0.057251,-0.164185
0.057373,-0.164185
0.0576172,-0.166016
0.0577393,-0.171509
0.0575562,-0.172729
0.057373,-0.169678
0.0574341,-0.164795
0.0576172,-0.158691
0.0578003,-0.15564
0.0576782,-0.150757
0.0576172,-0.149536
0.0576172,-0.146484
0.0577393,-0.146484
0.0578003,-0.142212
0.0577393,-0.136108
0.0576782,-0.134277
0.0577393,-0.142212
0.0578613,-0.151367
0.0576782,-0.161133
0.0574951,-0.159912
0.057251,-0.149536
0.057251,-0.137329
0.057312,-0.134277
0.057312,-0.137939
0.0571289,-0.145874
0.0570068,-0.150146
0.0570068,-0.153198
0.057251,-0.151978
0.057373,-0.147095
0.0571899,-0.139771
0.0570679,-0.136719
0.0570679,-0.135498
0.0571899,-0.140381
0.0571899,-0.145874
0.0570679,-0.150146
0.0570068,-0.146484
0.0568848,-0.145874
0.0570068,-0.145264
0.0569458,-0.13916
0.0567017,-0.13855
0.0565186,-0.126343
0.0564575,-0.12146
0.0564575,-0.119019
0.0564575,-0.117188
0.0561523,-0.12146
0.0560303,-0.130615
0.0560303,-0.140381
0.0560913,-0.145874
0.0560303,-0.140991
0.0557861,-0.131226
0.055542,-0.125732
0.055542,-0.130615
0.0556641,-0.142822
0.0556641,-0.151367
0.0554199,-0.146484
0.0550537,-0.139771
0.0548706,-0.136108
0.0548096,-0.142212
0.0547485,-0.155029
0.0545044,-0.157471
0.0543213,-0.150757
0.0541992,-0.136719
0.0541992,-0.125732
0.0541992,-0.127563
0.053894,-0.133057
0.0537109,-0.136108
0.0535278,-0.133057
0.0535278,-0.130615
0.0535278,-0.126343
0.0533447,-0.130615
0.0531616,-0.135498
0.0529175,-0.13855
0.0527954,-0.13855
0.0524902,-0.137939
0.0522461,-0.131226
0.052002,-0.133057
0.052063,-0.145264
0.0521851,-0.158081
0.052124,-0.17334
0.0518188,-0.177612
0.0514526,-0.164795
0.0512085,-0.144653
0.0512085,-0.132446
0.0512085,-0.127563
0.0509644,-0.133057
0.0507813,-0.143433
0.0505981,-0.148315
0.050415,-0.150146
0.0502319,-0.143433
0.0500488,-0.136108
0.0498657,-0.133667
0.0498047,-0.132446
0.0499268,-0.128784
0.0498047,-0.125122
0.0494995,-0.12146
0.0493164,-0.12085
0.0492554,-0.126953
0.0492554,-0.146484
0.0490112,-0.159912
0.048584,-0.164795
0.0481567,-0.15686
0.0479126,-0.145264
0.0479126,-0.133057
0.0478516,-0.123291
0.0474854,-0.12207
0.0471191,-0.125732
0.0467529,-0.133057
0.0465088,-0.140381
0.0463257,-0.144043
0.0459595,-0.146484
0.0455933,-0.145874
0.0454102,-0.13855
0.0452881,-0.136108
0.0450439,-0.133057
0.0446777,-0.127563
0.0443726,-0.126953
0.0441895,-0.126953
0.0440674,-0.131836
0.0438843,-0.132446
0.0435181,-0.132446
0.0431519,-0.125732
0.0429688,-0.12146
0.0429077,-0.124512
0.0426636,-0.128784
0.0423584,-0.13855
0.0420532,-0.147705
0.0418701,-0.142212
0.041748,-0.137939
0.0415039,-0.128174
0.0411377,-0.12207
0.0408325,-0.120239
0.0405273,-0.119019
0.0404053,-0.12207
0.0401611,-0.124512
0.0397339,-0.12207
0.0394897,-0.119019
0.0393066,-0.119629
0.0393066,-0.125732
0.0391846,-0.139771
0.0388794,-0.153809
0.0386963,-0.157471
0.0384521,-0.148315
0.0384521,-0.136719
0.038269,-0.125122
0.0379639,-0.117798
0.0376587,-0.109863
0.0374756,-0.10498
0.0374756,-0.100708
0.0372925,-0.0994873
0.0369263,-0.100708
0.0366211,-0.0970459
0.036377,-0.090332
0.036377,-0.0836182
0.0362549,-0.0830078
0.0360107,-0.0793457
0.0357666,-0.0811768
0.0355835,-0.0891113
0.0356445,-0.101318
0.0355225,-0.117188
0.0351563,-0.136108
0.0348511,-0.142212
0.034729,-0.142212
0.034729,-0.136719
0.0346069,-0.119629
0.0343018,-0.102539
0.0340576,-0.0958252
0.0338745,-0.10498
0.0338745,-0.126343
0.0336914,-0.145874
0.0332642,-0.147705
0.0330811,-0.139771
0.0328979,-0.126343
0.03302,-0.116577
0.032959,-0.119629
0.0326538,-0.125122
0.0324097,-0.131836
0.0322266,-0.144043
0.0322266,-0.154419
0.0319824,-0.159912
0.0316162,-0.15686
0.0313721,-0.154419
0.03125,-0.148315
0.03125,-0.140381
0.0310669,-0.140381
0.0307007,-0.139771
0.0303955,-0.13855
0.0302734,-0.143433
0.0302734,-0.145264
0.0302124,-0.136719
0.0299683,-0.128784
0.0298462,-0.12207
0.0297852,-0.117188
0.0297852,-0.123901
0.0297852,-0.125732
0.02948,-0.117798
0.0292358,-0.111084
0.0291748,-0.108643
0.0292358,-0.117798
0.0292969,-0.126343
0.0291138,-0.125732
0.0290527,-0.116577
0.0288086,-0.10376
0.0288086,-0.0994873
0.0286865,-0.105591
0.0284424,-0.111084
0.0283203,-0.113525
0.0283203,-0.117188
0.0283813,-0.120239
0.0283203,-0.125732
0.0280762,-0.131836
0.0278931,-0.136108
0.0279541,-0.139771
0.0280762,-0.137939
0.0281372,-0.136108
0.0278931,-0.130615
0.027771,-0.12146
0.02771,-0.115967
0.027832,-0.114136
0.027832,-0.119019
0.0275879,-0.126953
0.0275269,-0.134888
0.0274658,-0.134277
0.0276489,-0.126953
0.02771,-0.117798
0.0275269,-0.109863
0.0274658,-0.108643
0.0274658,-0.108643
0.02771,-0.112305
0.02771,-0.111084
0.0275879,-0.112915
0.0274658,-0.117798
0.0274658,-0.126343
0.0276489,-0.136108
0.02771,-0.136108
0.0275879,-0.133057
0.0275269,-0.126343
0.0275879,-0.122681
0.027832,-0.124512
0.0280151,-0.127563
0.0280762,-0.128174
0.0280762,-0.119629
0.0280762,-0.111694
0.0281372,-0.106812
0.0281372,-0.109253
0.0279541,-0.114746
0.0279541,-0.12085
0.0280151,-0.12085
0.0281982,-0.115356
0.0283203,-0.111084
0.0282593,-0.115967
0.0282593,-0.12207
0.0283203,-0.130005
0.0285034,-0.133057
0.0285034,-0.125122
0.0282593,-0.110474
0.0281982,-0.101318
0.0283203,-0.0994873
0.0285034,-0.106201
0.0286865,-0.112915
0.0286255,-0.115967
0.0286255,-0.113525
0.0287476,-0.115967
0.0289307,-0.117188
0.0289917,-0.122681
0.0289307,-0.119629
0.0289307,-0.111694
0.0291138,-0.109863
0.0293579,-0.117188
0.029541,-0.12146
0.0294189,-0.123291
0.0293579,-0.118408
0.02948,-0.112305
0.0296021,-0.113525
0.0297241,-0.118408
0.0297241,-0.120239
0.0299072,-0.112915
0.0300903,-0.10376
0.0303345,-0.0946045
0.0303345,-0.0927734
0.0302124,-0.0958252
0.0300903,-0.109863
0.0301514,-0.123291
0.0302734,-0.132446
0.0302734,-0.126343
0.0300903,-0.106201
0.0300903,-0.0860596
0.0303345,-0.0769043
0.0305176,-0.0842285
0.0305786,-0.101318
0.0304565,-0.12146
0.0303345,-0.136108
0.0304565,-0.136108
0.0306396,-0.131226
0.0307617,-0.127563
0.0305786,-0.119629
0.0305176,-0.120239
0.0304565,-0.123291
0.0305786,-0.125122
0.0305786,-0.123291
0.0304565,-0.117188
0.0304565,-0.107422
0.0304565,-0.100708
0.0305786,-0.101318
0.0306396,-0.10498
0.0304565,-0.108032
0.0304565,-0.115967
0.0305176,-0.112915
0.0307007,-0.112915
0.0307007,-0.108643
0.0305786,-0.101318
0.0305786,-0.0933838
0.0306396,-0.088501
0.0308838,-0.088501
0.0308228,-0.0891113
0.0307007,-0.0927734
0.0306396,-0.0964355
0.0307007,-0.0976563
0.0308838,-0.10498
0.0308838,-0.108643
0.0307617,-0.113525
0.0307617,-0.114136
0.0308838,-0.108032
0.0310059,-0.10437
0.0310669,-0.098877
0.0309448,-0.0939941
0.0308838,-0.0939941
0.0309448,-0.0933838
0.0310059,-0.0958252
0.0310059,-0.101318
0.0307617,-0.10437
0.0307617,-0.107422
0.0308838,-0.10498
0.0310669,-0.0976563
0.031311,-0.0994873
0.03125,-0.100708
0.031311,-0.102539
0.0314331,-0.114136
0.0314941,-0.119629
0.0314941,-0.12085
0.0313721,-0.118408
0.0313721,-0.10376
0.0315552,-0.0939941
0.0316772,-0.0939941
0.0316772,-0.0976563
0.0315552,-0.10498
0.0314941,-0.10498
0.0316162,-0.0982666
0.0317993,-0.0939941
0.0318604,-0.0976563
0.0317383,-0.103149
0.0318604,-0.10498
0.0319214,-0.107422
0.0321655,-0.108643
0.0321045,-0.107422
0.0319824,-0.107422
0.0319214,-0.107422
0.0319824,-0.107422
0.0321045,-0.111084
0.0321045,-0.111694
0.0319214,-0.109253
0.0319214,-0.109863
0.0319824,-0.110474
0.0321655,-0.119629
0.0321655,-0.128174
0.0319824,-0.129395
0.0319214,-0.119629
0.0319824,-0.117188
0.0321045,-0.119629
0.0320435,-0.124512
0.0319214,-0.130005
0.0319214,-0.128784
0.0320435,-0.126343
0.0322876,-0.124512
0.0324097,-0.116577
0.0322876,-0.108643
0.0321655,-0.0921631
0.0322266,-0.0769043
0.0323486,-0.0744629
0.0323486,-0.0866699
0.0321655,-0.0976563
0.0321045,-0.105591
0.0319824,-0.111694
0.0319824,-0.109863
0.0319214,-0.113525
0.0317383,-0.112305
0.0317383,-0.112305
0.0318604,-0.107422
0.0319214,-0.101318
0.0319824,-0.0994873
0.0318604,-0.0976563
0.0318604,-0.100098
0.0319214,-0.103149
0.0320435,-0.109253
0.0319214,-0.111084
0.0317383,-0.108643
0.0316162,-0.100098
0.0316772,-0.0921631
0.0319214,-0.0878906
0.0319214,-0.0854492
0.0317383,-0.0891113
0.0316162,-0.0939941
0.0316162,-0.0982666
0.0317383,-0.10437
0.0318604,-0.108032
0.0317993,-0.106201
0.0317383,-0.0964355
0.0317383,-0.0939941
0.0317383,-0.0964355
0.0316772,-0.109863
0.0315552,-0.120239
0.0315552,-0.124512
0.0316162,-0.112915
0.0316772,-0.101318
0.0316162,-0.0964355
0.0314941,-0.10437
0.0314941,-0.117188
0.0314941,-0.123901
0.0316162,-0.125122
0.0314941,-0.111694
0.03125,-0.0958252
0.031189,-0.090332
0.03125,-0.0958252
0.0313721,-0.107422
0.031311,-0.118408
0.031189,-0.120239
0.0311279,-0.114136
0.0311279,-0.112305
0.03125,-0.113525
0.031189,-0.117798
0.0309448,-0.117188
0.0308228,-0.112915
0.0308838,-0.109253
0.0309448,-0.110474
0.0309448,-0.117188
0.0308228,-0.120239
0.0308838,-0.12085
0.0309448,-0.118408
0.0311279,-0.106812
0.0310669,-0.0970459
0.0307617,-0.0970459
0.0305176,-0.0946045
0.0303955,-0.0982666
0.0304565,-0.106201
0.0303955,-0.105591
0.0301514,-0.105591
0.0300293,-0.102539
0.0300293,-0.103149
0.0301514,-0.10376
0.0300903,-0.106201
0.0299072,-0.108643
0.0298462,-0.108032
0.0298462,-0.109863
0.0299683,-0.109253
0.0299072,-0.109863
0.0297241,-0.105591
0.0296021,-0.105591
0.029541,-0.106812
0.0296021,-0.110474
0.0294189,-0.108032
0.0291138,-0.10498
0.0289917,-0.098877
0.0289917,-0.0994873
0.0291138,-0.100708
0.0289917,-0.0964355
0.0287476,-0.0872803
0.0285645,-0.0762939
0.0285034,-0.0775146
0.0285645,-0.0878906
0.0285645,-0.0994873
0.0283813,-0.107422
0.0281372,-0.109863
0.0281372,-0.100708
0.0280762,-0.0952148
0.0280151,-0.0878906
0.027832,-0.0860596
0.02771,-0.0927734
0.027771,-0.0970459
0.027771,-0.0958252
0.0275879,-0.0958252
0.0272217,-0.0933838
0.0270386,-0.0927734
0.0269165,-0.10376
0.0269165,-0.113525
0.0269165,-0.107422
0.0266113,-0.0964355
0.0263062,-0.0823975
0.026123,-0.0708008
0.026062,-0.0750732
0.0259399,-0.0799561
0.0256958,-0.0842285
0.0254517,-0.0811768
0.0252686,-0.0793457
0.0252075,-0.0811768
0.0250854,-0.0817871
0.0247803,-0.0878906
0.0245361,-0.0909424
0.024292,-0.0933838
0.024292,-0.0958252
0.0241089,-0.100708
0.0237427,-0.10498
0.0234985,-0.109863
0.0233765,-0.112915
0.0232544,-0.113525
0.0231323,-0.113525
0.0227661,-0.106812
0.022522,-0.0982666
0.0223389,-0.0921631
0.0222168,-0.0891113
0.0220947,-0.090332
0.0217896,-0.0933838
0.0216064,-0.0958252
0.0215454,-0.0976563
0.0215454,-0.0994873
0.0213623,-0.10437
0.0209961,-0.106201
0.020752,-0.102539
0.0206299,-0.0994873
0.0206909,-0.0946045
0.0205688,-0.0878906
0.0202026,-0.0854492
0.0200806,-0.0817871
0.0197754,-0.0787354
0.0198364,-0.0787354
0.0197754,-0.0805664
0.0197144,-0.0830078
0.0196533,-0.0823975
0.0195923,-0.0805664
0.0195313,-0.0799561
0.0193481,-0.0805664
0.019043,-0.0811768
0.0189209,-0.0805664
0.0187988,-0.0799561
0.0186768,-0.0830078
0.0184326,-0.0805664
0.0181274,-0.0799561
0.0180054,-0.0762939
0.0180054,-0.0787354
0.0180054,-0.078125
0.0179443,-0.0823975
0.0176392,-0.0811768
0.0175781,-0.0744629
0.0175171,-0.0708008
0.0174561,-0.0732422
0.017395,-0.0756836
0.0171509,-0.0769043
0.0170898,-0.0720215
0.0170288,-0.0689697
0.0170288,-0.0653076
0.0168457,-0.0665283
0.0165405,-0.0750732
0.0164185,-0.0872803
0.0163574,-0.0952148
0.0164185,-0.0994873
0.0162964,-0.0946045
0.0159912,-0.0836182
0.0157471,-0.0732422
0.015625,-0.0665283
0.015625,-0.0640869
0.0154419,-0.0689697
0.0151367,-0.0726318
0.0149536,-0.0793457
0.0148315,-0.0842285
0.0147705,-0.0848389
0.0145874,-0.0854492
0.0143433,-0.0848389
0.0142822,-0.0799561
0.0143433,-0.0769043
0.0144043,-0.0799561
0.0142212,-0.0848389
0.0137939,-0.0933838
0.0135498,-0.0970459
0.0133667,-0.0952148
0.0133667,-0.0982666
0.0132446,-0.098877
0.0128784,-0.101929
0.0126343,-0.109863
0.0125122,-0.106812
0.0125122,-0.0994873
0.0125122,-0.0909424
0.0122681,-0.0848389
0.012085,-0.0799561
0.0119629,-0.0769043
0.0119019,-0.0701904
0.0115967,-0.0640869
0.0112915,-0.0634766
0.0110474,-0.0726318
0.0109863,-0.0805664
0.0110474,-0.0897217
0.0109253,-0.0848389
0.010498,-0.0848389
0.0101929,-0.0909424
0.0101318,-0.0921631
0.0101318,-0.100098
0.0101318,-0.098877
0.00982666,-0.0897217
0.00952148,-0.0805664
0.00933838,-0.0714111
0.00927734,-0.0665283
0.00915527,-0.057373
0.00891113,-0.0524902
0.00866699,-0.0445557
0.00854492,-0.0427246
0.00854492,-0.0482178
0.00842285,-0.0671387
0.00811768,-0.0848389
0.00787354,-0.0939941
0.00769043,-0.0964355
0.00762939,-0.0830078
0.00756836,-0.0744629
0.00732422,-0.0634766
0.00720215,-0.0665283
0.00708008,-0.0714111
0.00708008,-0.078125
0.00683594,-0.0817871
0.00646973,-0.0805664
0.00622559,-0.0695801
0.00616455,-0.067749
0.00622559,-0.0714111
0.00616455,-0.0775146
0.00592041,-0.088501
0.0057373,-0.0952148
0.00561523,-0.0915527
0.00561523,-0.0854492
0.00543213,-0.0762939
0.00512695,-0.0689697
0.00500488,-0.0598145
0.00482178,-0.0598145
0.00494385,-0.0592041
0.00482178,-0.0665283
0.00439453,-0.078125
0.00415039,-0.088501
0.00402832,-0.0939941
0.00402832,-0.0927734
0.00390625,-0.0836182
0.00354004,-0.0793457
0.0032959,-0.0775146
0.00317383,-0.0805664
0.00317383,-0.0927734
0.00305176,-0.100708
0.00274658,-0.101929
0.00250244,-0.0976563
0.00231934,-0.088501
0.00231934,-0.0805664
0.00219727,-0.078125
0.00183105,-0.0750732
0.00158691,-0.0750732
0.00146484,-0.0756836
0.00146484,-0.0744629
0.00134277,-0.0738525
0.0010376,-0.0665283
0.000793457,-0.0628662
0.000671387,-0.0585938
0.000671387,-0.0561523
0.000549316,-0.0628662
0.00012207,-0.0701904
-0.000183105,-0.0738525
-0.000244141,-0.0775146
-0.000183105,-0.0799561
-0.000183105,-0.0762939
-0.000427246,-0.0683594
-0.000610352,-0.0683594
-0.000610352,-0.0695801
-0.000610352,-0.078125
-0.000732422,-0.0878906
-0.0010376,-0.090332
-0.00134277,-0.0842285
-0.00146484,-0.0793457
-0.00140381,-0.078125
-0.00152588,-0.0817871
-0.00177002,-0.090332
-0.00189209,-0.0921631
-0.00195313,-0.0854492
-0.00195313,-0.0787354
-0.00219727,-0.0708008
-0.00262451,-0.0683594
-0.00299072,-0.0689697
-0.00317383,-0.0720215
-0.00317383,-0.0769043
-0.00311279,-0.0787354
-0.00335693,-0.0750732
-0.00360107,-0.067749
-0.00378418,-0.0585938
-0.00390625,-0.0585938
-0.00408936,-0.065918
-0.0043335,-0.0756836
-0.00445557,-0.0836182
-0.0045166,-0.0897217
-0.0045166,-0.0866699
-0.00469971,-0.0830078
-0.00500488,-0.0799561
-0.00524902,-0.0708008
-0.00543213,-0.0628662
-0.00549316,-0.0604248
-0.00567627,-0.0628662
-0.00610352,-0.0714111
-0.00640869,-0.078125
-0.00653076,-0.0836182
-0.0065918,-0.0842285
-0.00665283,-0.0817871
-0.00695801,-0.0787354
-0.00726318,-0.0775146
-0.00744629,-0.0799561
-0.00756836,-0.0793457
-0.0078125,-0.0744629
-0.00817871,-0.065918
-0.00830078,-0.0579834
-0.00830078,-0.0616455
-0.00823975,-0.0744629
-0.00836182,-0.0909424
-0.00872803,-0.090332
-0.0090332,-0.0805664
-0.00921631,-0.0628662
-0.00927734,-0.0506592
-0.00933838,-0.0512695
-0.00964355,-0.0616455
-0.00982666,-0.0683594
-0.0100098,-0.0720215
-0.0100098,-0.078125
-0.0102539,-0.0799561
-0.0106201,-0.078125
-0.0108643,-0.0762939
-0.0108643,-0.0756836
-0.0108643,-0.0714111
-0.0109253,-0.0689697
-0.0112305,-0.0701904
-0.0114746,-0.067749
-0.0115356,-0.0634766
-0.0114746,-0.0604248
-0.0115356,-0.0592041
-0.0117798,-0.0592041
-0.0119629,-0.0622559
-0.012085,-0.0646973
-0.012085,-0.065918
-0.012146,-0.0604248
-0.0123291,-0.0561523
-0.0125122,-0.0543213
-0.0126343,-0.0549316
-0.0126343,-0.057373
-0.0128174,-0.0640869
-0.0130615,-0.0622559
-0.0131836,-0.0585938
-0.0131836,-0.0506592
-0.0131836,-0.0421143
-0.0133057,-0.0372314
-0.0135498,-0.03479
-0.0137939,-0.0421143
-0.0137939,-0.0506592
-0.0137939,-0.0531006
-0.013855,-0.0543213
-0.0140381,-0.0476074
-0.0141602,-0.0457764
-0.0143433,-0.0494385
-0.0144653,-0.0579834
-0.0147095,-0.055542
-0.0150757,-0.0506592
-0.0150757,-0.0439453
-0.0150146,-0.043335
-0.0149536,-0.0494385
-0.0150757,-0.057373
-0.0153198,-0.065918
-0.0155029,-0.0701904
-0.015564,-0.0732422
-0.015564,-0.0756836
-0.015686,-0.0775146
-0.0158691,-0.0732422
-0.0158691,-0.0720215
-0.0159302,-0.0695801
-0.0158691,-0.067749
-0.0159912,-0.0634766
-0.0164185,-0.0646973
-0.0166626,-0.065918
-0.0167236,-0.0653076
-0.0167236,-0.0695801
-0.0168457,-0.065918
-0.0170898,-0.0634766
-0.0170898,-0.0598145
-0.0170898,-0.0561523
-0.0170898,-0.0543213
-0.0172729,-0.0463867
-0.0176392,-0.045166
-0.0177002,-0.045166
-0.0176392,-0.0512695
-0.0175171,-0.0640869
-0.0175781,-0.0695801
-0.0179443,-0.0634766
-0.0181885,-0.0592041
-0.0183105,-0.0518799
-0.0183105,-0.0488281
-0.0184326,-0.0506592
-0.0186768,-0.0482178
-0.0187988,-0.0488281
-0.0187378,-0.0543213
-0.0186768,-0.0592041
-0.0187378,-0.0604248
-0.0189209,-0.055542
-0.0189819,-0.0543213
-0.0189819,-0.0543213
-0.0189819,-0.0604248
-0.019165,-0.0628662
-0.0195313,-0.0695801
-0.0196533,-0.0714111
-0.0195923,-0.0811768
-0.0195313,-0.0836182
-0.0195313,-0.0769043
-0.0198975,-0.0689697
-0.0200195,-0.0567627
-0.0200806,-0.0488281
-0.0200806,-0.0476074
-0.0200806,-0.0476074
-0.0203247,-0.0494385
-0.0204468,-0.0543213
-0.0205688,-0.0585938
-0.0205688,-0.0543213
-0.0206909,-0.0488281
-0.020874,-0.0427246
-0.0209351,-0.0415039
-0.020874,-0.0476074
-0.020874,-0.0567627
-0.0209961,-0.0653076
-0.0213623,-0.0665283
-0.0214844,-0.0604248
-0.0214844,-0.0531006
-0.0213623,-0.0494385
-0.0213623,-0.0463867
-0.0216064,-0.0494385
-0.0216675,-0.0506592
-0.0217285,-0.0500488
-0.0216675,-0.0543213
-0.0217285,-0.0610352
-0.0218506,-0.0622559
-0.0219727,-0.0585938
-0.0220337,-0.0457764
-0.0220337,-0.0341797
-0.0222168,-0.0378418
-0.022522,-0.0390625
-0.022644,-0.0482178
-0.022644,-0.057373
-0.022583,-0.0531006
-0.022644,-0.0506592
-0.0229492,-0.0463867
-0.0230713,-0.043335
-0.0231934,-0.0506592
-0.0231323,-0.0616455
-0.0231934,-0.0689697
-0.0234985,-0.0689697
-0.0235596,-0.0616455
-0.0234985,-0.0476074
-0.0234375,-0.0408936
-0.0234985,-0.0372314
-0.0237427,-0.0378418
-0.0238037,-0.0439453
-0.0236816,-0.043335
-0.0235596,-0.0469971
-0.0235596,-0.0482178
-0.0238647,-0.0494385
-0.0239258,-0.0567627
-0.0239868,-0.0622559
-0.0238037,-0.0683594
-0.0238647,-0.0738525
-0.0241699,-0.0714111
-0.024353,-0.0756836
-0.0244141,-0.0787354
-0.024353,-0.0823975
-0.024292,-0.0836182
-0.0244751,-0.0793457
-0.0245361,-0.0744629
-0.0245361,-0.0653076
-0.0245361,-0.0598145
-0.0245972,-0.055542
-0.0249023,-0.0500488
-0.0250854,-0.0396729
-0.0250854,-0.0378418
-0.0250854,-0.0378418
-0.0250854,-0.0445557
-0.0252686,-0.0543213
-0.0253906,-0.055542
-0.0254517,-0.0579834
-0.0255127,-0.0592041
-0.0257568,-0.0579834
-0.026062,-0.0622559
-0.0262451,-0.0640869
-0.0262451,-0.0604248
-0.0261841,-0.0616455
-0.0262451,-0.0628662
-0.0265503,-0.0592041
-0.0266724,-0.0561523
-0.0267334,-0.0524902
-0.0266113,-0.0506592
-0.0266113,-0.0561523
-0.0269165,-0.0604248
-0.0270386,-0.0646973
-0.0270996,-0.065918
-0.0270996,-0.0567627
-0.0272827,-0.0445557
-0.0275879,-0.032959
-0.027771,-0.0238037
-0.027832,-0.0274658
-0.0276489,-0.0372314
-0.0276489,-0.0384521
-0.0278931,-0.0372314
-0.0280151,-0.0366211
-0.0280151,-0.0360107
-0.0280762,-0.0463867
-0.0281372,-0.0567627
-0.0284424,-0.0701904
-0.0285034,-0.0738525
-0.0284424,-0.0640869
-0.0282593,-0.055542
-0.0282593,-0.0372314
-0.0284424,-0.0219727
-0.0286255,-0.0146484
-0.0287476,-0.022583
-0.0286865,-0.0378418
-0.0286865,-0.0531006
-0.0288696,-0.0622559
-0.0288696,-0.057373
-0.0289307,-0.0457764
-0.0289307,-0.03479
-0.0289917,-0.0372314
-0.0292358,-0.0439453
-0.0292969,-0.0512695
-0.0292358,-0.0543213
-0.0291138,-0.055542
-0.0291748,-0.0537109
-0.0293579,-0.055542
-0.02948,-0.0567627
-0.0294189,-0.065918
-0.0292969,-0.0683594
-0.0292969,-0.0671387
-0.02948,-0.0579834
-0.0296021,-0.0457764
-0.029541,-0.0366211
-0.02948,-0.0402832
-0.02948,-0.0445557
-0.0298462,-0.0494385
-0.0299683,-0.0488281
-0.0299683,-0.0439453
-0.0297241,-0.0402832
-0.0297241,-0.0402832
-0.0299683,-0.0402832
-0.0301514,-0.0384521
-0.0302124,-0.0360107
-0.0300903,-0.032959
-0.0299683,-0.0323486
-0.0302124,-0.0280762
-0.0302734,-0.0219727
-0.0302734,-0.0201416
-0.0302124,-0.0213623
-0.0302124,-0.0311279
-0.0304565,-0.0421143
-0.0305786,-0.0518799
-0.0305786,-0.0543213
-0.0303345,-0.0567627
-0.0303345,-0.0549316
-0.0305176,-0.055542
-0.0306396,-0.0598145
-0.0307007,-0.0567627
-0.0305786,-0.0537109
-0.0305176,-0.0537109
-0.0307617,-0.057373
-0.0309448,-0.0640869
-0.0309448,-0.0695801
-0.0308838,-0.0653076
-0.0307617,-0.0549316
-0.0310059,-0.045166
-0.0310669,-0.0476074
-0.0310669,-0.0579834
-0.0309448,-0.0689697
-0.0308838,-0.0744629
-0.0310059,-0.0701904
-0.0310059,-0.0634766
-0.0310059,-0.0640869
-0.0309448,-0.0579834
-0.0308838,-0.055542
-0.0310059,-0.0494385
-0.0310669,-0.0463867
-0.0310669,-0.0469971
-0.0309448,-0.0561523
-0.0310059,-0.0616455
-0.031189,-0.0671387
-0.031189,-0.0701904
-0.031189,-0.0720215
-0.0311279,-0.0756836
-0.03125,-0.0714111
-0.0315552,-0.0592041
-0.0316162,-0.0427246
-0.0314331,-0.0354004
-0.031189,-0.0360107
-0.0311279,-0.0421143
-0.031311,-0.0518799
-0.0314331,-0.0579834
-0.0314331,-0.0604248
-0.03125,-0.0628662
-0.03125,-0.0592041
-0.0314331,-0.0518799
-0.0315552,-0.0408936
-0.0314941,-0.0360107
-0.0314331,-0.03479
-0.0313721,-0.0408936
-0.0314331,-0.0421143
-0.0315552,-0.0408936
-0.0314331,-0.0360107
-0.03125,-0.0305176
-0.0311279,-0.0366211
-0.031311,-0.0457764
-0.031311,-0.0567627
-0.031311,-0.0585938
-0.031311,-0.055542
-0.0311279,-0.0488281
-0.031311,-0.0518799
-0.031311,-0.057373
-0.03125,-0.0634766
-0.0311279,-0.0646973
-0.0311279,-0.0592041
-0.031311,-0.0537109
-0.031311,-0.0506592
-0.03125,-0.0531006
-0.0310669,-0.055542
-0.0310059,-0.0579834
-0.031311,-0.0616455
-0.0314331,-0.055542
-0.031311,-0.0476074
-0.0311279,-0.0415039
-0.0310059,-0.0445557
-0.031189,-0.0488281
-0.0313721,-0.0494385
-0.0313721,-0.0469971
-0.031311,-0.0402832
-0.031189,-0.0354004
-0.03125,-0.0390625
-0.031311,-0.043335
-0.03125,-0.0476074
-0.031189,-0.0494385
-0.03125,-0.0488281
-0.0314941,-0.0518799
-0.0316162,-0.055542
-0.0314941,-0.0567627
-0.03125,-0.0616455
-0.0310669,-0.0592041
-0.0311279,-0.0506592
-0.031189,-0.0421143
-0.03125,-0.0335693
-0.0311279,-0.0280762
-0.0311279,-0.0286865
-0.031311,-0.0323486
-0.031311,-0.0396729
-0.0311279,-0.0427246
-0.0309448,-0.0494385
-0.0309448,-0.0439453
-0.0311279,-0.043335
-0.03125,-0.0445557
-0.03125,-0.0445557
-0.031189,-0.0476074
-0.0311279,-0.0427246
-0.03125,-0.0378418
-0.031189,-0.0317383
-0.0310669,-0.0323486
-0.0308838,-0.0384521
-0.0309448,-0.0415039
-0.0311279,-0.045166
-0.03125,-0.043335
-0.0311279,-0.0427246
-0.0309448,-0.0439453
-0.0308838,-0.043335
-0.0311279,-0.0372314
-0.03125,-0.0335693
-0.0311279,-0.0256348
-0.0309448,-0.022583
-0.0308838,-0.0299072
-0.0311279,-0.0396729
-0.0314331,-0.0476074
-0.0314941,-0.055542
-0.0314331,-0.0567627
-0.0313721,-0.0543213
-0.0314941,-0.0482178
-0.0315552,-0.0402832
-0.0315552,-0.0274658
-0.0314941,-0.022583
-0.0314941,-0.0219727
-0.0317993,-0.0299072
-0.0317993,-0.0427246
-0.0317383,-0.0518799
-0.0315552,-0.0598145
-0.0315552,-0.0610352
-0.0317993,-0.0579834
-0.0319214,-0.0537109
-0.0319824,-0.0500488
-0.0319824,-0.0463867
-0.0319214,-0.0482178
-0.0322266,-0.0500488
-0.0322266,-0.0512695
-0.0322266,-0.0543213
-0.0321045,-0.0537109
-0.0321045,-0.0537109
-0.0322266,-0.0518799
-0.0322266,-0.0494385
-0.0321045,-0.0500488
-0.0319214,-0.0518799
-0.0318604,-0.0604248
-0.0321655,-0.0689697
-0.0322266,-0.0683594
-0.0321655,-0.0665283
-0.0319824,-0.0598145
-0.0318604,-0.0476074
-0.0319824,-0.0372314
-0.0320435,-0.0262451
-0.0319214,-0.0219727
-0.0317993,-0.0231934
-0.0317993,-0.0323486
-0.0320435,-0.0415039
-0.0322266,-0.0463867
-0.0322266,-0.0445557
-0.0320435,-0.0415039
-0.0319214,-0.0335693
-0.0321045,-0.0244141
-0.0322266,-0.0146484
-0.0322876,-0.00976563
-0.0321045,-0.0231934
-0.0320435,-0.0390625
-0.0320435,-0.0512695
-0.0319824,-0.0512695
-0.0318604,-0.0439453
-0.0317383,-0.0384521
-0.0317383,-0.0445557
-0.0319214,-0.0561523
-0.0319824,-0.0646973
-0.0319824,-0.0653076
-0.0317993,-0.055542
-0.0318604,-0.0457764
-0.0320435,-0.0396729
-0.0320435,-0.0360107
-0.0319214,-0.0402832
-0.0317993,-0.0445557
-0.0317383,-0.045166
-0.0319214,-0.0402832
-0.0319214,-0.0341797
-0.0317383,-0.0323486
-0.0316772,-0.0354004
-0.0316162,-0.0384521
-0.0319214,-0.0372314
-0.0321045,-0.0335693
-0.0319824,-0.0280762
-0.0318604,-0.0195313
-0.0317993,-0.0152588
-0.0319824,-0.0134277
-0.0320435,-0.010376
-0.0319824,-0.0170898
-0.0316772,-0.0280762
-0.0316162,-0.0390625
-0.0316772,-0.043335
-0.0317383,-0.0408936
-0.0317383,-0.032959
-0.0316772,-0.0238037
-0.0317383,-0.022583
-0.0318604,-0.0250244
-0.0318604,-0.0299072
-0.0316772,-0.0335693
-0.0314941,-0.0317383
-0.0314331,-0.0250244
-0.0316772,-0.0219727
-0.0317993,-0.022583
-0.0317993,-0.0323486
-0.0316162,-0.0500488
-0.0315552,-0.0634766
-0.0317383,-0.0592041
-0.0317383,-0.0524902
-0.0317993,-0.0396729
-0.0316162,-0.032959
-0.0315552,-0.0384521
-0.0316772,-0.0421143
-0.0315552,-0.0457764
-0.0315552,-0.0463867
-0.0314331,-0.0476074
-0.0313721,-0.0457764
-0.0315552,-0.045166
-0.0316772,-0.0439453
-0.0316162,-0.0396729
-0.0315552,-0.0341797
-0.0314941,-0.0305176
-0.0316772,-0.0305176
-0.0316162,-0.0372314
-0.0315552,-0.0494385
-0.0313721,-0.0537109
-0.031311,-0.0531006
-0.0314331,-0.0421143
-0.0314331,-0.0305176
-0.031311,-0.0311279
-0.031189,-0.0421143
-0.031189,-0.055542
-0.0313721,-0.0695801
-0.0313721,-0.0756836
-0.03125,-0.0726318
-0.0310059,-0.0671387
-0.0310059,-0.0567627
-0.031189,-0.0488281
-0.03125,-0.0427246
-0.0310669,-0.03479
-0.0308228,-0.0317383
-0.0307617,-0.0323486
-0.0310059,-0.0354004
-0.0311279,-0.0402832
-0.0311279,-0.0488281
-0.0308838,-0.055542
-0.0307617,-0.0610352
-0.0308838,-0.0592041
-0.0309448,-0.057373
-0.0310059,-0.0421143
-0.0308838,-0.032959
-0.0309448,-0.0262451
-0.0311279,-0.0213623
-0.031189,-0.0317383
-0.0310669,-0.0396729
-0.0308838,-0.0500488
-0.0308228,-0.0543213
-0.0309448,-0.0476074
-0.0310059,-0.0384521
-0.0309448,-0.0299072
-0.0308838,-0.0317383
-0.0308228,-0.0390625
-0.0310059,-0.0439453
-0.0310059,-0.0439453
-0.0309448,-0.0317383
-0.0308838,-0.022583
-0.0309448,-0.0183105
-0.0311279,-0.0195313
-0.031189,-0.0256348
-0.0310059,-0.0286865
-0.0307617,-0.0323486
-0.0307007,-0.0360107
-0.0308228,-0.032959
-0.0308838,-0.0311279
-0.0307617,-0.0317383
-0.0306396,-0.0323486
-0.0306396,-0.0372314
-0.0308838,-0.0378418
-0.0309448,-0.0341797
-0.0308838,-0.0274658
-0.0307617,-0.0280762
-0.0307617,-0.0396729
-0.0310059,-0.0476074
-0.0310669,-0.0561523
-0.0310059,-0.0543213
-0.0308228,-0.0543213
-0.0307617,-0.0531006
-0.0308838,-0.055542
-0.0310059,-0.0628662
-0.0309448,-0.0634766
-0.0308228,-0.0592041
-0.0307617,-0.0488281
-0.0308838,-0.0427246
-0.0308838,-0.0408936
-0.0308838,-0.0402832
-0.0307007,-0.0378418
-0.0306396,-0.0341797
-0.0307007,-0.032959
-0.0306396,-0.0421143
-0.0306396,-0.0500488
-0.0305176,-0.057373
-0.0307007,-0.0543213
-0.0308228,-0.0494385
-0.0308228,-0.0469971
-0.0307617,-0.0512695
-0.0307007,-0.0543213
-0.0308228,-0.0506592
-0.0310059,-0.0390625
-0.0310059,-0.0231934
-0.0308228,-0.0152588
-0.0307007,-0.0170898
-0.0307617,-0.0280762
-0.0310059,-0.032959
-0.0310669,-0.0268555
-0.0310059,-0.0134277
-0.0309448,-0.00610352
-0.031189,-0.0109863
-0.0314331,-0.0201416
-0.0315552,-0.032959
-0.0314941,-0.0384521
-0.03125,-0.03479
-0.031189,-0.0335693
-0.0314941,-0.0292969
-0.0315552,-0.0244141
-0.0315552,-0.0274658
-0.0314941,-0.0256348
-0.0314331,-0.0292969
-0.0315552,-0.0274658
-0.0315552,-0.0268555
-0.0315552,-0.0280762
-0.0314941,-0.0292969
-0.0315552,-0.0299072
-0.0317993,-0.0305176
-0.0318604,-0.0250244
-0.0318604,-0.0250244
-0.0316162,-0.0262451
-0.0317993,-0.0292969
-0.0320435,-0.032959
-0.0321045,-0.0286865
-0.0321045,-0.0286865
-0.0319824,-0.0292969
-0.0318604,-0.0311279
-0.0320435,-0.0372314
-0.0320435,-0.0439453
-0.0318604,-0.0494385
-0.0316772,-0.0531006
-0.0316162,-0.057373
-0.0317383,-0.0561523
-0.0316772,-0.0512695
-0.0315552,-0.0439453
-0.0313721,-0.0323486
-0.0313721,-0.020752
-0.0317383,-0.0134277
-0.0319824,-0.012207
-0.0319824,-0.0152588
-0.0319824,-0.0189209
-0.0319214,-0.0213623
-0.0319824,-0.0250244
-0.0319214,-0.0244141
-0.0317383,-0.020752
-0.0315552,-0.020752
-0.0314941,-0.0250244
-0.0316162,-0.0427246
-0.0315552,-0.0646973
-0.0314331,-0.0805664
-0.0313721,-0.0805664
-0.0313721,-0.0634766
-0.0314941,-0.045166
-0.0315552,-0.0354004
-0.0314331,-0.0372314
-0.0313721,-0.0494385
-0.0314331,-0.0524902
-0.0316772,-0.0457764
-0.0316772,-0.0311279
-0.0316162,-0.0201416
-0.0314941,-0.0189209
-0.0315552,-0.0305176
-0.0317383,-0.0415039
-0.0317993,-0.0482178
-0.0317383,-0.045166
-0.0316162,-0.0354004
-0.0316162,-0.0250244
-0.0317993,-0.0164795
-0.0319214,-0.0140381
-0.0317993,-0.0170898
-0.0316772,-0.0177002
-0.0316772,-0.0238037
-0.0319824,-0.0286865
-0.0320435,-0.032959
-0.0321045,-0.0341797
-0.0319824,-0.0366211
-0.0320435,-0.0341797
-0.0321655,-0.0341797
-0.0321655,-0.0354004
-0.0319824,-0.0372314
-0.0319214,-0.032959
-0.0319214,-0.0299072
-0.0321655,-0.0268555
-0.0322266,-0.0305176
-0.0321655,-0.0360107
-0.0320435,-0.0439453
-0.0321045,-0.0494385
-0.0323486,-0.0476074
-0.0323486,-0.0469971
-0.0322876,-0.0488281
-0.0321655,-0.0500488
-0.0321655,-0.0524902
-0.0322876,-0.0524902
-0.0321655,-0.0518799
-0.0320435,-0.0537109
-0.0318604,-0.0592041
-0.0319214,-0.0567627
-0.0321655,-0.0488281
-0.0321655,-0.03479
-0.0320435,-0.0231934
-0.0319824,-0.0213623
-0.0319824,-0.0292969
-0.0321655,-0.045166
-0.0321655,-0.043335
-0.0319824,-0.0360107
-0.0317993,-0.0268555
-0.0318604,-0.0158691
-0.0319824,-0.0213623
-0.0319824,-0.032959
-0.0317993,-0.0427246
-0.0316162,-0.0512695
-0.0316772,-0.0537109
-0.0319214,-0.0524902
-0.0319824,-0.0524902
-0.0318604,-0.0524902
-0.0316162,-0.0543213
-0.0314331,-0.0549316
-0.0315552,-0.0567627
-0.0316162,-0.0524902
-0.0315552,-0.0494385
-0.0313721,-0.0427246
-0.0313721,-0.0335693
-0.0314941,-0.0280762
-0.0315552,-0.020752
-0.0315552,-0.022583
-0.0314331,-0.0286865
-0.0314331,-0.0402832
-0.0316162,-0.045166
-0.0316162,-0.045166
-0.0315552,-0.0445557
-0.0313721,-0.0469971
-0.031311,-0.0549316
-0.0314941,-0.0616455
-0.0314941,-0.067749
-0.0313721,-0.0592041
-0.0311279,-0.0439453
-0.0309448,-0.0317383
-0.0310669,-0.0250244
-0.0310059,-0.0262451
-0.0308838,-0.0323486
-0.0307007,-0.0366211
-0.0307007,-0.0341797
-0.0308228,-0.0292969
-0.0308228,-0.0299072
-0.0306396,-0.0421143
-0.0303345,-0.0567627
-0.0300903,-0.0646973
-0.0302734,-0.0616455
-0.0301514,-0.0500488
-0.0301514,-0.0396729
-0.0300293,-0.0390625
-0.0299683,-0.0469971
-0.0301514,-0.0531006
-0.0302124,-0.0579834
-0.0301514,-0.0592041
-0.0300293,-0.0567627
-0.0300903,-0.0543213
-0.0303345,-0.0506592
-0.0303955,-0.0494385
-0.0303345,-0.0439453
-0.0301514,-0.0439453
-0.0300293,-0.0366211
-0.0302734,-0.0292969
-0.0302734,-0.0311279
-0.0300903,-0.0268555
-0.0297852,-0.0335693
-0.02948,-0.0317383
-0.02948,-0.0256348
-0.0294189,-0.0170898
-0.0292358,-0.010376
-0.0289307,-0.012207
-0.0286865,-0.0213623
-0.0286255,-0.0305176
-0.0285034,-0.0378418
-0.0283203,-0.0396729
-0.0280762,-0.0384521
-0.0278931,-0.0421143
-0.027832,-0.0494385
-0.0275879,-0.0543213
-0.0272827,-0.0506592
-0.0269775,-0.0445557
-0.0267944,-0.0378418
-0.0268555,-0.0360107
-0.0266724,-0.0439453
-0.0263672,-0.0494385
-0.0259399,-0.0518799
-0.0256348,-0.055542
-0.0255127,-0.0512695
-0.0252686,-0.0488281
-0.0249634,-0.0506592
-0.0245361,-0.0537109
-0.024353,-0.0531006
-0.024292,-0.0518799
-0.0241089,-0.0488281
-0.0238037,-0.043335
-0.0234375,-0.0427246
-0.0231323,-0.0476074
-0.0229492,-0.0500488
-0.0228271,-0.0494385
-0.0224609,-0.0439453
-0.0221558,-0.0372314
-0.0219116,-0.0299072
-0.0218506,-0.020752
-0.0214844,-0.0140381
-0.0209961,-0.0177002
-0.0205078,-0.0280762
-0.0201416,-0.0421143
-0.0200195,-0.0567627
-0.0197754,-0.0610352
-0.0193481,-0.0482178
-0.0189819,-0.0366211
-0.0186768,-0.0372314
-0.0186157,-0.0445557
-0.0183716,-0.0604248
-0.0179443,-0.0665283
-0.0175171,-0.0634766
-0.0172119,-0.0506592
-0.0171509,-0.0354004
-0.0168457,-0.0280762
-0.0163574,-0.0280762
-0.0158691,-0.0323486
-0.0153198,-0.0366211
-0.0151367,-0.0415039
-0.0148315,-0.0408936
-0.0144043,-0.0421143
-0.0139771,-0.0427246
-0.0136719,-0.0482178
-0.0134888,-0.0457764
-0.0132446,-0.0408936
-0.0128174,-0.0439453
-0.0123901,-0.0476074
-0.012085,-0.0549316
-0.0119019,-0.0610352
-0.0114746,-0.0598145
-0.0109253,-0.055542
-0.0102539,-0.0482178
-0.0098877,-0.0427246
-0.00964355,-0.0390625
-0.00921631,-0.0396729
-0.00866699,-0.0469971
-0.00799561,-0.0531006
-0.00744629,-0.0561523
-0.00714111,-0.0494385
-0.00671387,-0.0384521
-0.00616455,-0.0335693
-0.0055542,-0.0390625
-0.00518799,-0.0463867
-0.00500488,-0.0567627
-0.00463867,-0.0585938
-0.00408936,-0.0549316
-0.00341797,-0.0518799
-0.00280762,-0.0488281
-0.00244141,-0.045166
-0.00189209,-0.0469971
-0.00134277,-0.0506592
-0.000732422,-0.0494385
-0.000244141,-0.0445557
6.10352,-0.0317383
0.000610352,-0.0195313
0.00128174,-0.0146484
0.00189209,-0.022583
0.00238037,-0.0335693
0.00262451,-0.043335
0.00311279,-0.0482178
0.00378418,-0.0500488
0.00445557,-0.0543213
0.00500488,-0.0543213
0.00531006,-0.0476074
0.0057373,-0.0372314
0.00628662,-0.0250244
0.00683594,-0.0183105
0.00738525,-0.0213623
0.00775146,-0.0268555
0.00817871,-0.0384521
0.0088501,-0.0543213
0.00939941,-0.067749
0.00994873,-0.0720215
0.0102539,-0.0689697
0.0106201,-0.0561523
0.0112305,-0.0482178
0.0119019,-0.0482178
0.0124512,-0.0512695
0.0126953,-0.0506592
0.0131836,-0.0476074
0.0137939,-0.0396729
0.0144653,-0.0366211
0.0148926,-0.0274658
0.0151367,-0.0219727
0.0154419,-0.0109863
0.0159302,-0.00549316
0.0165405,-0.012207
0.0170288,-0.020752
0.017334,-0.0286865
0.0178223,-0.0341797
0.0183716,-0.0396729
0.0188599,-0.0494385
0.0192871,-0.0561523
0.0195923,-0.0592041
0.0200806,-0.0500488
0.020752,-0.0372314
0.0213623,-0.0244141
0.0218506,-0.0201416
0.0220947,-0.0256348
0.022644,-0.0341797
0.0233765,-0.0439453
0.0239868,-0.0500488
0.0244751,-0.0457764
0.0247192,-0.0396729
0.0251465,-0.0341797
0.0257568,-0.0384521
0.0264893,-0.0427246
0.0270386,-0.0439453
0.0274048,-0.0415039
0.027832,-0.0366211
0.0285034,-0.0366211
0.0291748,-0.0378418
0.0296631,-0.0427246
0.0299683,-0.0408936
0.0303955,-0.0366211
0.0310059,-0.0390625
0.0316772,-0.0372314
0.0322266,-0.0390625
0.0325317,-0.0439453
0.03302,-0.0518799
0.0336304,-0.0604248
0.0341797,-0.0689697
0.0346069,-0.0744629
0.0348511,-0.0695801
0.0353394,-0.0622559
0.0360107,-0.0622559
0.0366821,-0.0610352
0.0371094,-0.0622559
0.0372314,-0.0653076
0.0374756,-0.0689697
0.0379639,-0.0689697
0.0384521,-0.0720215
0.0388794,-0.0714111
0.0390015,-0.0665283
0.0392456,-0.0598145
0.0396118,-0.0561523
0.0400391,-0.0598145
0.0404053,-0.0567627
0.0405884,-0.0494385
0.0408936,-0.0372314
0.0413818,-0.0292969
0.041748,-0.0311279
0.0420532,-0.0427246
0.0421143,-0.0537109
0.0422974,-0.055542
0.0426636,-0.0494385
0.0430298,-0.0445557
0.043335,-0.0366211
0.043457,-0.0390625
0.0437622,-0.0445557
0.0442505,-0.055542
0.0447388,-0.0604248
0.045105,-0.055542
0.045166,-0.0512695
0.0454102,-0.0427246
0.0457153,-0.0402832
0.0460815,-0.0488281
0.0463257,-0.0561523
0.0463257,-0.0561523
0.0465088,-0.0531006
0.046875,-0.045166
0.0471191,-0.0408936
0.0472412,-0.0415039
0.0471191,-0.0445557
0.0470581,-0.0476074
0.0471802,-0.0531006
0.0473022,-0.0543213
0.0473022,-0.0543213
0.0471191,-0.0537109
0.0471802,-0.0445557
0.0473633,-0.0366211
0.0475464,-0.0341797
0.0475464,-0.0341797
0.0472412,-0.03479
0.0471802,-0.0360107
0.0471802,-0.0372314
0.0473633,-0.0372314
0.0473633,-0.0402832
0.0472412,-0.0445557
0.0473022,-0.0439453
0.0475464,-0.0408936
0.0477905,-0.0354004
0.0479126,-0.0311279
0.0479126,-0.0317383
0.0480957,-0.0335693
0.0484009,-0.0408936
0.0487671,-0.0457764
0.0488281,-0.043335
0.048645,-0.0354004
0.0484619,-0.0335693
0.0484009,-0.0396729
0.0483398,-0.0524902
0.0482788,-0.0671387
0.0481567,-0.0634766
0.0482178,-0.0524902
0.0484009,-0.0323486
0.048584,-0.0250244
0.048584,-0.0292969
0.0484619,-0.0378418
0.048584,-0.0439453
0.0489502,-0.0439453
0.0493774,-0.0384521
0.0496216,-0.0341797
0.0495605,-0.0292969
0.0495605,-0.0244141
0.0496826,-0.0177002
0.0497437,-0.0128174
0.0496826,-0.0134277
0.0494385,-0.0140381
0.0493774,-0.0195313
0.0494385,-0.0286865
0.0496826,-0.0292969
0.0498047,-0.03479
0.0497437,-0.0360107
0.0495605,-0.0378418
0.0494995,-0.0390625
0.0494385,-0.0463867
0.0491943,-0.0445557
0.0488892,-0.0360107
0.0487671,-0.0299072
0.0487671,-0.0244141
0.0487671,-0.0256348
0.048645,-0.0280762
0.0483398,-0.0311279
0.0481567,-0.0268555
0.0480957,-0.0201416
0.0480347,-0.020752
0.0478516,-0.0231934
0.0475464,-0.0299072
0.0474854,-0.0311279
0.0473633,-0.0262451
0.0471802,-0.0170898
0.046875,-0.00976563
0.0463867,-0.010376
0.0462036,-0.0158691
0.0462646,-0.03479
0.0462646,-0.0476074
0.0462646,-0.0537109
0.0460205,-0.0506592
0.0458374,-0.0360107
0.0458374,-0.0183105
0.0457764,-0.00793457
0.0457153,0.000610352
0.0455322,0.0
0.0455933,-0.00366211
0.0458374,-0.0109863
0.0459595,-0.0189209
0.0458984,-0.022583
0.0456543,-0.0238037
0.0454712,-0.022583
0.0455322,-0.0213623
0.0456543,-0.0177002
0.0456543,-0.0115967
0.0454712,-0.00976563
0.0452881,-0.0115967
0.0452881,-0.0164795
0.0454102,-0.0231934
0.0454712,-0.0256348
0.0454102,-0.0238037
0.0452271,-0.0231934
0.0452271,-0.0262451
0.045166,-0.032959
0.045166,-0.0268555
0.0449829,-0.020752
0.0449829,-0.012207
0.0450439,-0.00427246
0.045105,-0.00793457
0.0449829,-0.0115967
0.0447388,-0.012207
0.0446777,-0.00915527
0.0447388,-0.010376
0.0447998,-0.00854492
0.0447388,-0.012207
0.0443726,-0.0158691
0.0443726,-0.012207
0.0444946,-0.0134277
0.0447388,-0.0128174
0.0449219,-0.010376
0.0446777,-0.012207
0.0444946,-0.0183105
0.0444946,-0.0268555
0.0444946,-0.0341797
0.0444336,-0.0421143
0.0441284,-0.0445557
0.0438843,-0.0427246
0.0438843,-0.0378418
0.0438843,-0.0323486
0.0438843,-0.0250244
0.0436401,-0.0146484
0.043457,-0.010376
0.043335,-0.0140381
0.043396,-0.0183105
0.043396,-0.022583
0.0431519,-0.0219727
0.0429688,-0.0140381
0.0429077,-0.00671387
0.0427856,-0.00610352
0.0426025,-0.00488281
0.0422974,-0.00671387
0.0421753,-0.00671387
0.0421143,-0.0109863
0.0421753,-0.020752
0.0421753,-0.0280762
0.0419312,-0.0292969
0.0418701,-0.0280762
0.0418091,-0.0213623
0.0418091,-0.0115967
0.041687,-0.00671387
0.0414429,-0.00488281
0.0413818,-0.00854492
0.0414429,-0.012207
0.0415039,-0.0195313
0.0414429,-0.0238037
0.0411987,-0.0280762
0.0411987,-0.032959
0.0412598,-0.0354004
0.0413208,-0.0372314
0.0412598,-0.0360107
0.0410156,-0.0292969
0.0409546,-0.0256348
0.0410156,-0.0219727
0.0411987,-0.0177002
0.0412598,-0.00915527
0.0410767,-0.00488281
0.0409546,-0.0012207
0.0411377,-0.00488281
0.0410767,-0.020752
0.0408936,-0.0250244
0.0402832,-0.022583
0.0397339,-0.0146484
0.0393677,-0.0012207
0.0391846,0.00305176
0.0390625,0.00610352
0.0387573,-0.00244141
0.0385742,-0.00610352
0.0384521,-0.0115967
0.0383911,-0.0183105
0.038208,-0.0146484
0.0378418,-0.00366211
0.0376587,0.00427246
0.0375366,0.00671387
0.0374756,0.00366211
0.0372314,-0.00183105
0.0369263,-0.00671387
0.0366821,-0.00488281
0.0366211,0.0
0.0365601,-0.0012207
0.0363159,-0.00427246
0.0358887,-0.0128174
0.0355225,-0.0189209
0.0352783,-0.0250244
0.0350952,-0.0177002
0.034729,-0.00854492
0.0341797,0.00549316
0.0338135,0.0134277
0.0336914,0.0140381
0.0336304,0.012207
0.0335083,0.00732422
0.0332031,0.00366211
0.032959,-0.00854492
0.0328979,-0.020752
0.0328369,-0.0262451
0.0326538,-0.022583
0.0321655,-0.00671387
0.0317993,0.00488281
0.0316772,0.00549316
0.0316772,-0.00549316
0.0316772,-0.0164795
0.0314331,-0.0286865
0.0313721,-0.0280762
0.031189,-0.0201416
0.0309448,-0.0146484
0.0306396,0.00305176
0.0302124,0.0128174
0.0299683,0.0140381
0.0299683,0.010376
0.0300293,-0.00427246
0.0298462,-0.020752
0.0294189,-0.0244141
0.0291138,-0.022583
0.0289917,-0.0164795
0.0288696,-0.00549316
0.0286865,-0.00854492
0.0283813,-0.0115967
0.0281982,-0.0115967
0.0280151,-0.0109863
0.027832,-0.0012207
0.0275879,0.0134277
0.0271606,0.0268555
0.0269775,0.0323486
0.0268555,0.0305176
0.0267944,0.0256348
0.0265503,0.010376
0.026062,-0.0012207
0.0257568,-0.012207
0.0255737,-0.022583
0.0255127,-0.0238037
0.0253296,-0.0250244
0.0249634,-0.0195313
0.0246582,-0.0109863
0.0244141,0.0012207
0.024292,0.00488281
0.0240479,0.00976563
0.0236816,0.000610352
0.0234375,-0.00427246
0.0233154,-0.0128174
0.0231323,-0.0213623
0.0229492,-0.0213623
0.022522,-0.0219727
0.0222778,-0.0219727
0.0220947,-0.0219727
0.0219116,-0.0189209
0.0216064,-0.012207
0.0212402,0.00183105
0.0209351,0.010376
0.020874,0.00305176
0.020813,-0.00793457
0.0205688,-0.0195313
0.0202026,-0.0256348
0.0198975,-0.0213623
0.0198364,-0.0158691
0.0197144,-0.0146484
0.0195313,-0.0152588
0.019043,-0.0152588
0.0187378,-0.0231934
0.0185547,-0.032959
0.0184937,-0.0390625
0.0183716,-0.0354004
0.0180054,-0.0219727
0.0178223,-0.00183105
0.0175781,0.00793457
0.017395,0.00793457
0.0170288,-0.00305176
0.0164795,-0.0158691
0.0161743,-0.0305176
0.0159912,-0.0341797
0.0159912,-0.03479
0.0159302,-0.0305176
0.015625,-0.0305176
0.0155029,-0.0311279
0.0152588,-0.03479
0.0149536,-0.0341797
0.0144653,-0.0323486
0.0139771,-0.0268555
0.0135498,-0.0250244
0.0133667,-0.0201416
0.0131836,-0.0201416
0.0128174,-0.0177002
0.012207,-0.00915527
0.0118408,-0.00305176
0.0115967,-0.00488281
0.0114136,-0.00488281
0.0111694,-0.00671387
0.0108032,-0.0115967
0.0105591,-0.0158691
0.010498,-0.0158691
0.010376,-0.022583
0.0100708,-0.0219727
0.00958252,-0.0201416
0.00933838,-0.0262451
0.00927734,-0.0341797
0.00927734,-0.043335
0.00909424,-0.0445557
0.00866699,-0.0317383
0.00830078,-0.0170898
0.00805664,-0.0177002
0.00799561,-0.0268555
0.00793457,-0.0390625
0.00762939,-0.0439453
0.00744629,-0.0378418
0.00732422,-0.0299072
0.00720215,-0.0244141
0.00689697,-0.0262451
0.00646973,-0.0262451
0.00610352,-0.020752
0.00598145,-0.0213623
0.00585938,-0.0195313
0.00585938,-0.0231934
0.00561523,-0.0238037
0.00543213,-0.0170898
0.00537109,-0.00976563
0.00518799,-0.00488281
0.00494385,-0.0012207
0.0045166,-0.00671387
0.0043335,-0.0134277
0.00427246,-0.0219727
0.00427246,-0.0292969
0.00408936,-0.03479
0.00360107,-0.0341797
0.00335693,-0.0262451
0.00323486,-0.0213623
0.00323486,-0.0183105
0.00305176,-0.0170898
0.00268555,-0.0170898
0.00238037,-0.0134277
0.0022583,-0.010376
0.00213623,-0.0109863
0.00201416,-0.012207
0.00164795,-0.00976563
0.00140381,-0.010376
0.00128174,-0.00915527
0.0012207,-0.00793457
0.00109863,-0.00915527
0.000732422,-0.00793457
0.000488281,0.00183105
0.000427246,0.00549316
0.000305176,0.00488281
0.00012207,0.000610352
-0.000305176,0.0
-0.000488281,-0.00549316
-0.000488281,-0.0109863
-0.000488281,-0.0183105
-0.000732422,-0.0262451
-0.0012207,-0.0317383
-0.00146484,-0.0274658
-0.00152588,-0.022583
-0.00146484,-0.022583
-0.00158691,-0.0256348
-0.00201416,-0.0305176
-0.00231934,-0.0354004
-0.00256348,-0.0335693
-0.00250244,-0.0238037
-0.00262451,-0.0109863
-0.00292969,-0.000610352
-0.00305176,0.00183105
-0.00323486,-0.010376
-0.0032959,-0.0195313
-0.003479,-0.0274658
-0.00390625,-0.0274658
-0.00402832,-0.020752
-0.00402832,-0.0219727
-0.00402832,-0.0250244
-0.00421143,-0.0262451
-0.00457764,-0.0238037
-0.00476074,-0.0164795
-0.00469971,-0.0158691
-0.00469971,-0.0170898
-0.00482178,-0.0146484
-0.00512695,-0.0158691
-0.00524902,-0.010376
-0.00531006,-0.00854492
-0.00531006,-0.010376
-0.00549316,-0.0189209
-0.00585938,-0.0177002
-0.00610352,-0.0189209
-0.00616455,-0.0231934
-0.00616455,-0.0238037
-0.00634766,-0.0280762
-0.00665283,-0.0299072
-0.00683594,-0.0262451
-0.0067749,-0.0183105
-0.0067749,-0.0134277
-0.00689697,-0.0183105
-0.00732422,-0.0244141
-0.00750732,-0.0299072
-0.00756836,-0.0366211
-0.00756836,-0.0384521
-0.00769043,-0.0354004
-0.00805664,-0.03479
-0.00823975,-0.0372314
-0.00830078,-0.0396729
-0.00830078,-0.0427246
-0.00836182,-0.0439453
-0.00872803,-0.0421143
-0.00891113,-0.03479
-0.00897217,-0.0213623
-0.0090332,-0.0183105
-0.0090332,-0.0158691
-0.00933838,-0.0201416
-0.00946045,-0.0292969
-0.00952148,-0.0366211
-0.00958252,-0.0341797
-0.00970459,-0.0305176
-0.00994873,-0.032959
-0.0101318,-0.0372314
-0.0101318,-0.0463867
-0.0101929,-0.0567627
-0.0102539,-0.0592041
-0.010498,-0.0561523
-0.0105591,-0.0482178
-0.010498,-0.0360107
-0.0105591,-0.0268555
-0.0106812,-0.0170898
-0.0111084,-0.0164795
-0.0113525,-0.0152588
-0.0114136,-0.020752
-0.0114746,-0.0286865
-0.0117188,-0.0354004
-0.0120239,-0.0378418
-0.012085,-0.0366211
-0.0119019,-0.0280762
-0.0117798,-0.0189209
-0.0118408,-0.0134277
-0.0122681,-0.00854492
-0.0125122,-0.010376
-0.0125732,-0.0177002
-0.0125732,-0.0244141
-0.0126343,-0.0292969
-0.0130005,-0.032959
-0.0131836,-0.0317383
-0.0132446,-0.03479
-0.0131836,-0.032959
-0.0131836,-0.0231934
-0.0134277,-0.012207
-0.0134888,-0.00976563
-0.0135498,-0.0109863
-0.0136719,-0.0195313
-0.013855,-0.0299072
-0.0141602,-0.0299072
-0.0142212,-0.0311279
-0.0141602,-0.0323486
-0.0140991,-0.0323486
-0.0142212,-0.0280762
-0.0144653,-0.0189209
-0.0145874,-0.00671387
-0.0145264,-0.00549316
-0.0145264,-0.0164795
-0.0147095,-0.0268555
-0.0150146,-0.0415039
-0.0152588,-0.0500488
-0.0151978,-0.0457764
-0.0151367,-0.0366211
-0.0152588,-0.0323486
-0.015564,-0.0231934
-0.0157471,-0.0177002
-0.0157471,-0.0219727
-0.015625,-0.0238037
-0.015686,-0.032959
-0.0159912,-0.0335693
-0.0161743,-0.0354004
-0.0162354,-0.0354004
-0.0162964,-0.0299072
-0.0163574,-0.0262451
-0.0166626,-0.0213623
-0.0168457,-0.0183105
-0.0169067,-0.0177002
-0.0169067,-0.0201416
-0.0170898,-0.020752
-0.0174561,-0.0256348
-0.0176392,-0.0286865
-0.0177002,-0.03479
-0.0176392,-0.0354004
-0.0178223,-0.0323486
-0.0181274,-0.0219727
-0.0183716,-0.0134277
-0.0184937,-0.00610352
-0.0185547,-0.00427246
-0.0187378,-0.00610352
-0.019104,-0.00610352
-0.0192261,-0.010376
-0.0192261,-0.0140381
-0.019165,-0.0177002
-0.0192261,-0.0238037
-0.0195313,-0.0305176
-0.0197144,-0.03479
-0.0198364,-0.0421143
-0.0198364,-0.0402832
-0.0199585,-0.0366211
-0.0202026,-0.0311279
-0.0202637,-0.0256348
-0.0203857,-0.0238037
-0.0205078,-0.0244141
-0.0206909,-0.022583
-0.0209351,-0.0177002
-0.020874,-0.0195313
-0.0205688,-0.0244141
-0.0205078,-0.0268555
-0.0206909,-0.0256348
-0.0210571,-0.00854492
-0.0213623,0.0152588
-0.0213623,0.0354004
-0.0213623,0.0408936
-0.0213623,0.0268555
-0.0216064,0.00366211
-0.0216675,-0.0170898
-0.0217285,-0.0238037
-0.0216675,-0.022583
-0.0216675,-0.0195313
-0.0219116,-0.0158691
-0.0219727,-0.0183105
-0.0219727,-0.0262451
-0.0220337,-0.022583
-0.0222168,-0.0170898
-0.022522,-0.00671387
-0.0227051,0.0
-0.0227051,-0.000610352
-0.022644,-0.0134277
-0.0227051,-0.0292969
-0.0230103,-0.0396729
-0.0231323,-0.0415039
-0.0231323,-0.03479
-0.0231934,-0.0256348
-0.0232544,-0.0231934
-0.0234375,-0.0195313
-0.0234375,-0.0219727
-0.0234375,-0.022583
-0.0234375,-0.022583
-0.0235596,-0.0195313
-0.0239258,-0.0201416
-0.0239868,-0.0177002
-0.0239868,-0.0158691
-0.0240479,-0.022583
-0.0241699,-0.0280762
-0.0244141,-0.0323486
-0.0244751,-0.0280762
-0.024292,-0.020752
-0.024231,-0.0115967
-0.024292,-0.00488281
-0.0245972,-0.010376
-0.0247192,-0.0134277
-0.0247803,-0.0140381
-0.0247192,-0.00915527
-0.0248413,-0.000610352
-0.0250244,0.00549316
-0.0250854,0.00915527
-0.0250854,0.0128174
-0.0250854,0.0140381
-0.0251465,0.0164795
-0.0253906,0.010376
-0.0253906,-0.00305176
-0.0252686,-0.0134277
-0.0252075,-0.0219727
-0.0252686,-0.0170898
-0.0255737,-0.00488281
-0.0257568,0.00305176
-0.0257568,0.00549316
-0.0257568,0.0012207
-0.0258179,-0.0109863
-0.026001,-0.0195313
-0.026001,-0.0231934
-0.0258789,-0.0213623
-0.0256958,-0.0158691
-0.0256958,-0.0152588
-0.0259399,-0.0219727
-0.026062,-0.0305176
-0.026062,-0.03479
-0.0261841,-0.0292969
-0.0261841,-0.0195313
-0.0264282,-0.00366211
-0.0264282,-0.00244141
-0.0263062,-0.00793457
-0.0262451,-0.0170898
-0.0263672,-0.0219727
-0.0265503,-0.022583
-0.0266113,-0.0189209
-0.0265503,-0.0109863
-0.0265503,-0.00549316
-0.0266113,-0.00427246
-0.0268555,-0.00732422
-0.0269165,-0.0109863
-0.0267944,-0.0213623
-0.0267334,-0.0231934
-0.0267944,-0.0177002
-0.0269775,-0.0128174
-0.0270996,-0.010376
-0.0270996,-0.00793457
-0.0270386,-0.00488281
-0.0270386,-0.00488281
-0.0271606,0.00366211
-0.0270996,0.00427246
-0.0269165,-0.00305176
-0.0267944,-0.0152588
-0.0267944,-0.0280762
-0.0270386,-0.0378418
-0.0271606,-0.0366211
-0.0270996,-0.0262451
-0.0270386,-0.0134277
-0.0270996,-0.000610352
-0.0272827,0.00671387
-0.0273438,0.00366211
-0.0272827,-0.00488281
-0.0272217,-0.010376
-0.0274048,-0.0128174
-0.0275269,-0.00732422
-0.0276489,-0.000610352
-0.0275269,-0.00183105
-0.0274048,-0.012207
-0.0274048,-0.0250244
-0.0275879,-0.0299072
-0.027771,-0.0268555
-0.027832,-0.0134277
-0.0279541,-0.00915527
-0.0280762,-0.0115967
-0.0282593,-0.0219727
-0.0282593,-0.0280762
-0.0280762,-0.0256348
-0.0280151,-0.022583
-0.0280151,-0.0201416
-0.0281982,-0.0268555
-0.0283203,-0.0250244
-0.0281982,-0.0244141
-0.0281372,-0.0158691
-0.0281982,-0.00610352
-0.0285034,-0.00244141
-0.0286255,-0.00427246
-0.0287476,-0.00610352
-0.0286865,-0.0146484
-0.0286865,-0.0231934
-0.0288696,-0.0238037
-0.0288696,-0.0189209
-0.0288086,-0.0140381
-0.0288086,-0.00854492
-0.0288086,-0.00671387
-0.0289307,-0.00610352
-0.0289917,-0.00793457
-0.0288696,-0.012207
-0.0288086,-0.0244141
-0.0289917,-0.0445557
-0.0292358,-0.057373
-0.0292969,-0.057373
-0.0292358,-0.0457764
-0.0291748,-0.0286865
-0.0292358,-0.0183105
-0.0294189,-0.00915527
-0.0294189,-0.00915527
-0.0293579,-0.00732422
-0.0292969,-0.00976563
-0.0292969,-0.0201416
-0.0296021,-0.0250244
-0.0296631,-0.0311279
-0.029541,-0.0305176
-0.0294189,-0.0268555
-0.0293579,-0.0280762
-0.0296021,-0.0268555
-0.0296631,-0.020752
-0.0296631,-0.00976563
-0.0297852,0.00244141
-0.0298462,0.00671387
-0.0300903,0.000610352
-0.0301514,-0.0115967
-0.0299072,-0.0244141
-0.0297241,-0.0335693
-0.0298462,-0.03479
-0.0301514,-0.0238037
-0.0303345,-0.0115967
-0.0303345,-0.00732422
-0.0302124,-0.00549316
-0.0301514,-0.00915527
-0.0303345,-0.0128174
-0.0303345,-0.012207
-0.0303345,-0.010376
-0.0303955,-0.0158691
-0.0303955,-0.0238037
-0.0306396,-0.0213623
-0.0306396,-0.0146484
-0.0305786,-0.00244141
-0.0306396,0.00488281
-0.0308838,0.0
-0.031189,-0.0140381
-0.031189,-0.020752
-0.0311279,-0.0256348
-0.0310669,-0.0238037
-0.0311279,-0.0183105
-0.0314331,-0.0201416
-0.0315552,-0.0262451
-0.0315552,-0.0323486
-0.0314331,-0.0354004
-0.0314331,-0.0311279
-0.0316162,-0.0201416
-0.0317383,-0.00976563
-0.0317383,-0.00854492
-0.0317993,-0.0134277
-0.0318604,-0.0201416
-0.0319824,-0.0262451
-0.0319824,-0.0299072
-0.0318604,-0.03479
-0.0318604,-0.0354004
-0.0320435,-0.0317383
-0.0323486,-0.022583
-0.0323486,-0.010376
-0.0322266,-0.00366211
-0.0320435,-0.00488281
-0.0320435,-0.00244141
-0.0322266,0.0
-0.0322876,0.00244141
-0.0322266,0.000610352
-0.0321045,-0.00427246
-0.0321045,-0.00976563
-0.0322876,-0.00915527
-0.0324097,-0.010376
-0.0322876,-0.00244141
-0.0322266,-0.00610352
-0.0322266,-0.0146484
-0.0324097,-0.0250244
-0.0323486,-0.0378418
-0.0322266,-0.0445557
-0.0321045,-0.0366211
-0.0319824,-0.0244141
-0.0322266,-0.00732422
-0.0322266,0.00305176
-0.0322266,-0.00183105
-0.0321045,-0.00915527
-0.0320435,-0.0140381
-0.0321655,-0.00976563
-0.0321655,-0.0012207
-0.0320435,0.00732422
-0.0319214,0.00915527
-0.0319214,0.00244141
-0.0320435,-0.00366211
-0.0319824,-0.00976563
-0.0318604,-0.0140381
-0.0317993,-0.0146484
-0.0317993,-0.0115967
-0.0319824,-0.00366211
-0.0320435,-0.00183105
-0.0319214,-0.00183105
-0.0317993,-0.00488281
-0.0317383,-0.00915527
-0.0319214,-0.00976563
-0.0318604,-0.0140381
-0.0317383,-0.020752
-0.0315552,-0.0292969
-0.0313721,-0.032959
-0.0314331,-0.0323486
-0.03125,-0.0268555
-0.0310059,-0.0256348
-0.0307617,-0.0244141
-0.0305786,-0.0231934
-0.0308228,-0.0146484
-0.0308228,-0.00793457
-0.0307007,-0.00549316
-0.0304565,-0.012207
-0.0303955,-0.0189209
-0.0303955,-0.022583
-0.0302734,-0.0183105
-0.0301514,-0.0115967
-0.0299683,-0.00366211
-0.0299072,-0.0012207
-0.0300293,-0.00366211
-0.0299683,-0.00549316
-0.0296631,-0.00183105
-0.0292969,-0.00610352
-0.0291138,-0.00915527
-0.0291138,-0.00915527
-0.0291138,-0.0164795
-0.0288696,-0.0177002
-0.0286255,-0.0183105
-0.0283813,-0.0152588
-0.0283813,-0.0140381
-0.0281982,-0.0128174
-0.0280151,-0.0140381
-0.027832,-0.0183105
-0.02771,-0.022583
-0.027832,-0.0311279
-0.0276489,-0.03479
-0.0272827,-0.0305176
-0.0269775,-0.0256348
-0.0267334,-0.020752
-0.0267334,-0.0146484
-0.0267334,-0.0195313
-0.0264893,-0.0213623
-0.0263062,-0.0213623
-0.026123,-0.0195313
-0.026062,-0.0195313
-0.0258179,-0.0250244
-0.0254517,-0.0305176
-0.0250854,-0.0317383
-0.0249023,-0.0256348
-0.0248413,-0.0201416
-0.0245972,-0.0189209
-0.024292,-0.0195313
-0.0240479,-0.0292969
-0.0238037,-0.0292969
-0.0237427,-0.0274658
-0.0234375,-0.0268555
-0.0230713,-0.0286865
-0.022644,-0.03479
-0.0223999,-0.0396729
-0.0222778,-0.0408936
-0.0219727,-0.0335693
-0.0215454,-0.020752
-0.0211792,-0.0146484
-0.0209961,-0.010376
-0.0209961,-0.0109863
-0.020813,-0.0152588
-0.0205078,-0.012207
-0.0201416,-0.00915527
-0.0198364,-0.00671387
-0.0197144,-0.00793457
-0.0192871,-0.0109863
-0.0187378,-0.0158691
-0.0182495,-0.0164795
-0.0178833,-0.0158691
-0.0176392,-0.0170898
-0.017334,-0.0231934
-0.0168457,-0.0335693
-0.0164795,-0.03479
-0.0162354,-0.0256348
-0.0161133,-0.0146484
-0.0158081,-0.0012207
-0.0153198,-0.00549316
-0.0148315,-0.0146484
-0.0144653,-0.0274658
-0.0142822,-0.0292969
-0.013916,-0.0244141
-0.0134277,-0.0238037
-0.0128784,-0.022583
-0.0125122,-0.0244141
-0.0123901,-0.0280762
-0.012085,-0.0274658
-0.0116577,-0.0238037
-0.0109863,-0.0256348
-0.0105591,-0.0250244
-0.0103149,-0.0256348
-0.00994873,-0.0323486
-0.00952148,-0.0341797
-0.00909424,-0.0317383
-0.00866699,-0.0213623
-0.00836182,-0.012207
-0.00793457,-0.00244141
-0.00744629,0.00427246
-0.00701904,0.00610352
-0.00671387,0.00549316
-0.00665283,0.00732422
-0.00628662,0.00976563
-0.00579834,0.00427246
-0.00537109,-0.00549316
-0.00500488,-0.022583
-0.00482178,-0.0354004
-0.00445557,-0.0366211
-0.00390625,-0.0262451
-0.00335693,-0.00854492
-0.00299072,0.00732422
-0.00274658,0.00915527
-0.00244141,0.00488281
-0.0020752,-0.00366211
-0.00170898,-0.0170898
-0.00134277,-0.0268555
-0.00115967,-0.0305176
-0.000732422,-0.0341797
-0.00012207,-0.0335693
0.000244141,-0.0323486
0.000488281,-0.0250244
0.000671387,-0.0201416
0.00115967,-0.012207
0.00177002,-0.012207
0.00231934,-0.0201416
0.00268555,-0.0256348
0.00268555,-0.0299072
0.00286865,-0.0317383
0.00323486,-0.0311279
0.00372314,-0.0292969
0.00408936,-0.022583
0.00427246,-0.0115967
0.00469971,-0.00366211
0.00518799,0.00183105
0.0055542,-0.00549316
0.00585938,-0.0201416
0.00592041,-0.0256348
0.00604248,-0.0299072
0.00640869,-0.0286865
0.00683594,-0.0238037
0.00708008,-0.0219727
0.00726318,-0.0219727
0.00756836,-0.0274658
0.00799561,-0.0305176
0.00836182,-0.0280762
0.00866699,-0.0219727
0.00872803,-0.0134277
0.00891113,-0.00732422
0.00927734,-0.010376
0.00958252,-0.0134277
0.00982666,-0.0164795
0.0100098,-0.0164795
0.010376,-0.012207
0.0108032,-0.00793457
0.0111694,-0.00244141
0.0114136,0.0012207
0.0115356,0.0
0.0118408,-0.0109863
0.0122681,-0.0231934
0.0126343,-0.0299072
0.0128784,-0.0292969
0.0130005,-0.0219727
0.0134277,-0.0201416
0.0139771,-0.0231934
0.0142822,-0.0292969
0.0144653,-0.0286865
0.0145264,-0.0244141
0.0147095,-0.0146484
0.0150757,-0.012207
0.0154419,-0.00976563
0.0157471,-0.00610352
0.0158081,-0.00610352
0.0160522,-0.0109863
0.0164185,-0.0164795
0.0167236,-0.0158691
0.0169067,-0.0115967
0.0169678,-0.00366211
0.0171509,0.0012207
0.0175781,-0.00366211
0.0178833,-0.00854492
0.0181274,-0.00488281
0.0182495,0.00244141
0.0184937,0.0140381
0.0188599,0.0146484
0.0192261,0.0109863
0.0194092,0.00244141
0.0194092,-0.00732422
0.0195923,-0.00915527
0.0198364,-0.00305176
0.0202026,0.00244141
0.0203857,0.0140381
0.0205078,0.0152588
0.020752,0.0109863
0.0209961,0.00244141
0.0213013,-0.00610352
0.0215454,-0.0115967
0.0214844,-0.00915527
0.0217285,-0.00610352
0.0220947,-0.00732422
0.0223389,-0.0134277
0.0224609,-0.0134277
0.022522,-0.0109863
0.022644,-0.00854492
0.0229492,-0.00671387
0.0232544,-0.012207
0.0233765,-0.0219727
0.0233765,-0.0213623
0.0236206,-0.0152588
0.0239868,-0.0128174
0.024231,-0.0109863
0.024292,-0.0152588
0.0241089,-0.0109863
0.024231,0.00183105
0.0244751,0.0134277
0.0247192,0.0140381
0.0249023,0.00366211
0.0248413,-0.0115967
0.0250244,-0.0158691
0.0253296,-0.0128174
0.0255127,-0.00793457
0.0256348,-0.00244141
0.0255737,-0.00488281
0.0256958,-0.00976563
0.026001,-0.0109863
0.0261841,-0.00793457
0.0264282,-0.000610352
0.0264282,0.00549316
0.0265503,0.00793457
0.0268555,0.00183105
0.0270386,-0.00854492
0.0270996,-0.0140381
0.0270386,-0.0128174
0.0270996,-0.012207
0.0272827,-0.00854492
0.0274658,-0.00793457
0.0275269,-0.00671387
0.0274658,-0.0012207
0.0274048,0.00305176
0.02771,0.00488281
0.0278931,-0.000610352
0.0280762,0.00305176
0.0280762,0.00549316
0.0281372,0.00305176
0.0283203,0.0
0.0283813,-0.00183105
0.0283813,-0.0012207
0.0282593,0.00366211
0.0283203,0.0134277
0.0285645,0.0115967
0.0287476,0.0012207
0.0288086,0.000610352
0.0286255,0.00427246
0.0286255,0.00793457
0.0288696,0.0140381
0.0291138,0.00915527
0.0292358,-0.00183105
0.0291138,-0.00854492
0.0290527,-0.00793457
0.0291748,-0.00610352
0.0291748,-0.00305176
0.0292969,0.0
0.0292358,0.00366211
0.0293579,0.00366211
0.0296021,0.00305176
0.0297852,-0.00183105
0.0297852,-0.00549316
0.0296631,-0.00549316
0.0296631,-0.00305176
0.0299072,-0.00610352
0.0300903,-0.0152588
0.0301514,-0.0256348
0.0299683,-0.0238037
0.0298462,-0.0146484
0.0298462,-0.00244141
0.0299072,-0.0012207
0.0299683,-0.00488281
0.0299072,-0.0158691
0.0300293,-0.0170898
0.0302124,-0.00793457
0.0302734,-0.000610352
0.0302124,0.00427246
0.0300903,0.00427246
0.0300903,0.00183105
0.0302124,0.0
0.0303345,0.0
0.0302734,0.0012207
0.0300903,0.00366211
0.0300903,0.00244141
0.0302734,0.000610352
0.0302734,-0.00549316
0.0302124,-0.012207
0.0299683,-0.0183105
0.0299072,-0.020752
0.0300293,-0.0177002
0.0301514,-0.010376
0.0302734,-0.00427246
0.0300903,-0.00793457
0.0300293,-0.012207
0.0300293,-0.0201416
0.0299072,-0.0274658
0.0297852,-0.0213623
0.029541,-0.0164795
0.0296631,-0.010376
0.0297852,-0.00671387
0.0299072,-0.00305176
0.0298462,0.0012207
0.0296021,0.00610352
0.02948,0.00244141
0.029541,-0.00488281
0.0296631,-0.0115967
0.0297852,-0.0152588
0.0296631,-0.0109863
0.0296631,-0.00183105
0.0297241,0.00427246
0.0296631,-0.000610352
0.0296021,0.0
0.0293579,-0.00305176
0.0292969,-0.00793457
0.0292969,-0.0134277
0.0291748,-0.0201416
0.0289307,-0.0244141
0.0286255,-0.0280762
0.0285034,-0.0286865
0.0286255,-0.0317383
0.0286865,-0.032959
0.0286255,-0.0256348
0.0283813,-0.0115967
0.0281982,0.00305176
0.0281982,0.00549316
0.0280762,-0.00366211
0.0279541,-0.0183105
0.0276489,-0.0299072
0.0274658,-0.0366211
0.0274658,-0.0378418
0.0273438,-0.0323486
0.0272217,-0.0250244
0.0268555,-0.0146484
0.0267334,-0.00183105
0.0267334,0.00732422
0.0267334,0.00976563
0.0266113,0.0134277
0.0263062,0.00793457
0.026062,-0.00427246
0.0259399,-0.0268555
0.0257568,-0.0427246
0.0255737,-0.0537109
0.0253906,-0.0445557
0.0253906,-0.0256348
0.0254517,-0.0128174
0.0253296,-0.00488281
0.0251465,-0.00488281
0.0248413,0.0
0.0246582,0.00549316
0.0247803,0.012207
0.0247803,0.0201416
0.0245972,0.0201416
0.024292,0.0140381
0.0239868,0.00549316
0.0239258,-0.00366211
0.0237427,-0.00793457
0.0236816,-0.00549316
0.0234375,-0.000610352
0.0234375,0.00183105
0.0235596,-0.0115967
0.0234985,-0.0280762
0.0233154,-0.0396729
0.0229492,-0.0402832
0.0228271,-0.0286865
0.0228271,-0.0115967
0.0228271,0.00244141
0.0227051,0.00671387
0.0223389,0.00366211
0.0221558,-0.00183105
0.0221558,-0.00610352
0.0219727,-0.010376
0.0217896,-0.0158691
0.0214233,-0.0189209
0.0213013,-0.0164795
0.0213623,-0.00854492
0.0213623,0.00305176
0.0213013,0.00427246
0.0209351,-0.00610352
0.020874,-0.0244141
0.020752,-0.0366211
0.0206909,-0.0299072
0.0205688,-0.0177002
0.0203247,-0.000610352
0.0201416,0.00671387
0.0200806,0.00671387
0.0198975,-0.00305176
0.0197144,-0.0128174
0.0194092,-0.0189209
0.0192261,-0.0164795
0.0192261,-0.0164795
0.0192871,-0.0115967
0.0192261,-0.0115967
0.0189819,-0.0201416
0.0189209,-0.0262451
0.0187988,-0.0305176
0.0186157,-0.0323486
0.0183716,-0.0311279
0.0180054,-0.0274658
0.0178223,-0.0274658
0.0178833,-0.0268555
0.0178833,-0.0360107
0.0177002,-0.0476074
0.017334,-0.0543213
0.0171509,-0.0494385
0.0170898,-0.03479
0.0170288,-0.0177002
0.0168457,-0.00610352
0.0166626,-0.00671387
0.0164795,-0.00305176
0.0163574,0.00183105
0.0162964,0.00305176
0.0161743,0.00244141
0.0159302,-0.00732422
0.0157471,-0.0201416
0.0157471,-0.0238037
0.015625,-0.0164795
0.0153198,-0.0109863
0.0148315,-0.00793457
0.0145874,-0.00732422
0.0145264,-0.0177002
0.0144043,-0.0195313
0.0142822,-0.0164795
0.0139771,-0.0115967
0.0137939,-0.010376
0.0137939,-0.00610352
0.0137939,-0.00915527
0.0136719,-0.00732422
0.0132446,-0.00305176
0.0130005,-0.00244141
0.0128174,-0.00610352
0.0126343,-0.00427246
0.0125732,-0.00244141
0.0123901,-0.00183105
0.0123291,-0.00427246
0.0122681,-0.0134277
0.012085,-0.0201416
0.0118408,-0.0299072
0.0114136,-0.0390625
0.0112915,-0.0396729
0.0112915,-0.0408936
0.0112915,-0.0421143
0.0111694,-0.0378418
0.0108643,-0.03479
0.0107422,-0.0317383
0.0106201,-0.0219727
0.0105591,-0.010376
0.0103149,-0.00183105
0.0100098,-0.00366211
0.00976563,-0.00793457
0.00976563,-0.0134277
0.00952148,-0.0152588
0.00939941,-0.00976563
0.0090332,0.000610352
0.00878906,0.00610352
0.00872803,0.00488281
0.00854492,0.0
0.00842285,-0.00793457
0.00817871,-0.0164795
0.00817871,-0.0189209
0.00817871,-0.0146484
0.00817871,-0.0128174
0.00787354,-0.00976563
0.00756836,-0.00305176
0.00738525,-0.0012207
0.00744629,-0.00366211
0.00726318,-0.00610352
0.00701904,-0.010376
0.00665283,-0.0128174
0.00646973,-0.00610352
0.00653076,0.0012207
0.00653076,0.00305176
0.00640869,0.00366211
0.00604248,-0.0012207
0.00592041,-0.00915527
0.00585938,-0.0146484
0.0057373,-0.0183105
0.00549316,-0.020752
0.00524902,-0.0140381
0.00512695,-0.00610352
0.00506592,0.000610352
0.00494385,0.00244141
0.00476074,0.0
0.00439453,-0.00488281
0.0043335,-0.00976563
0.0043335,-0.00976563
0.0043335,-0.010376
0.00415039,-0.0170898
0.00390625,-0.0280762
0.00372314,-0.0396729
0.00372314,-0.0469971
0.00354004,-0.045166
0.00335693,-0.0341797
0.00305176,-0.020752
0.00292969,-0.010376
0.00305176,0.0
0.00305176,0.00244141
0.00292969,-0.00427246
0.00256348,-0.00915527
0.00238037,-0.0213623
0.00231934,-0.0250244
0.00219727,-0.0231934
0.00201416,-0.0177002
0.00177002,-0.00793457
0.00170898,-0.0012207
0.00170898,-0.00183105
0.00158691,-0.00793457
0.00134277,-0.0183105
0.000976563,-0.0201416
0.000854492,-0.00854492
0.000793457,0.010376
0.000793457,0.022583
0.000549316,0.0268555
0.000305176,0.0213623
0.000183105,0.00732422
0.000244141,-0.00671387
0.00012207,-0.0177002
-6.10352,-0.0231934
-0.000549316,-0.0158691
-0.000732422,-0.00732422
-0.000732422,-0.00366211
-0.000793457,0.0
-0.000915527,-0.0012207
-0.00128174,-0.00488281
-0.00146484,-0.00793457
-0.00146484,-0.010376
-0.00146484,-0.012207
-0.00164795,-0.00549316
-0.00195313,0.00366211
-0.00219727,0.0128174
-0.0022583,0.0152588
-0.00244141,0.00244141
-0.00274658,-0.00732422
-0.00305176,-0.00976563
-0.00323486,-0.00610352
-0.00317383,0.00427246
-0.00317383,0.0140381
-0.0032959,0.00976563
-0.00360107,0.000610352
-0.00384521,-0.00366211
-0.00384521,-0.00183105
-0.00402832,0.00671387
-0.00415039,0.00671387
-0.0045166,-0.00671387
-0.00463867,-0.022583
-0.00463867,-0.0323486
-0.00469971,-0.0219727
-0.00494385,-0.00488281
-0.00524902,0.00854492
-0.00543213,0.0134277
-0.00543213,0.0
-0.00549316,-0.012207
-0.00561523,-0.0219727
-0.00592041,-0.0219727
-0.00604248,-0.0170898
-0.00604248,-0.00854492
-0.00616455,-0.00427246
-0.00634766,-0.00549316
-0.00665283,-0.00366211
-0.00689697,-0.00671387
-0.00695801,-0.00854492
-0.00695801,-0.0115967
-0.00720215,-0.0164795
-0.00744629,-0.0177002
-0.00756836,-0.012207
-0.00750732,-0.00732422
-0.00750732,0.00183105
-0.00762939,0.00854492
-0.00787354,0.012207
-0.00793457,0.00732422
-0.00787354,-0.0012207
-0.00787354,-0.00915527
-0.00805664,-0.0170898
-0.00836182,-0.0115967
-0.00848389,0.00488281
-0.00848389,0.0115967
-0.00848389,0.0164795
-0.00866699,0.0164795
-0.00891113,0.0152588
-0.00891113,0.020752
-0.00878906,0.0231934
-0.00872803,0.0146484
-0.0088501,-0.00183105
-0.00915527,-0.0195313
-0.00933838,-0.0280762
-0.00933838,-0.020752
-0.00933838,-0.0170898
-0.00952148,-0.0140381
-0.00982666,-0.0158691
-0.00994873,-0.0152588
-0.0098877,-0.0109863
-0.00994873,0.00366211
-0.0101318,0.0134277
-0.010437,0.0189209
-0.0105591,0.0183105
-0.010498,0.0128174
-0.0105591,-0.00366211
-0.0106201,-0.0140381
-0.0108032,-0.022583
-0.0108643,-0.0195313
-0.0108032,-0.012207
-0.0108643,-0.00488281
-0.0109863,0.0
-0.0112305,-0.00244141
-0.0112915,-0.012207
-0.0111694,-0.0158691
-0.0112305,-0.0170898
-0.0114136,-0.0183105
-0.0117798,-0.00915527
-0.0119019,-0.00732422
-0.0119629,-0.0158691
-0.0120239,-0.022583
-0.012085,-0.0274658
-0.0122681,-0.022583
-0.0122681,-0.010376
-0.012146,-0.0012207
-0.012207,-0.00183105
-0.0124512,-0.00671387
-0.0127563,-0.0109863
-0.0129395,-0.0177002
-0.0128784,-0.0213623
-0.0130005,-0.0213623
-0.0129395,-0.0299072
-0.0131836,-0.032959
-0.0131836,-0.03479
-0.0130615,-0.0372314
-0.0130005,-0.032959
-0.0131226,-0.0268555
-0.0133667,-0.0189209
-0.0134277,-0.0177002
-0.0134888,-0.0189209
-0.0134888,-0.0238037
-0.0136108,-0.0286865
-0.013855,-0.020752
-0.013916,-0.00549316
-0.0137939,0.00549316
-0.0136719,0.0109863
-0.0137329,0.00976563
-0.013916,0.00305176
-0.0141602,-0.00244141
-0.0141602,-0.00671387
-0.0142212,-0.010376
-0.0142822,-0.0152588
-0.0144653,-0.0183105
-0.0145264,-0.0146484
-0.0144653,-0.0128174
-0.0144653,-0.0152588
-0.0146484,-0.0164795
-0.0149536,-0.0158691
-0.0150757,-0.0158691
-0.0150146,-0.0158691
-0.0150146,-0.0146484
-0.0150146,-0.0140381
-0.0152588,-0.0146484
-0.0153198,-0.00427246
-0.0153198,-0.00244141
-0.0153198,-0.00244141
-0.0154419,-0.00671387
-0.0157471,-0.0115967
-0.0157471,-0.0164795
-0.015686,-0.012207
-0.0158081,-0.00427246
-0.0158691,0.00427246
-0.0160522,0.00793457
-0.0161133,0.00915527
-0.0160522,0.00793457
-0.0160522,-0.000610352
-0.0162354,-0.00549316
-0.0165405,-0.0140381
-0.0166016,-0.0299072
-0.0165405,-0.0390625
-0.0164795,-0.0482178
-0.0166016,-0.0506592
-0.0168457,-0.0366211
-0.0169067,-0.020752
-0.0169067,-0.00793457
-0.0169067,-0.00732422
-0.0169678,-0.0158691
-0.0171509,-0.020752
-0.0172119,-0.0170898
-0.0172119,-0.00366211
-0.0172119,0.012207
-0.0172729,0.0164795
-0.017395,0.00610352
-0.017334,-0.012207
-0.0172729,-0.0280762
-0.0172729,-0.0311279
-0.0175171,-0.0213623
-0.0177612,-0.00427246
-0.0178223,0.0158691
-0.0177002,0.0164795
-0.0176392,0.00610352
-0.0176392,-0.00610352
-0.0178833,-0.0183105
-0.0180664,-0.012207
-0.0180664,-0.00366211
-0.0180664,0.00793457
-0.0181274,0.00610352
-0.0182495,-0.00183105
-0.0183105,-0.0146484
-0.0175781,-0.0250244
-0.0176392,-0.0280762
-0.0176392,-0.0305176
-0.0180664,-0.0274658
-0.0185547,-0.0219727
-0.0186768,-0.0189209
-0.0187378,-0.0140381
-0.0187988,-0.00610352
-0.019043,0.0012207
-0.0192261,0.00854492
-0.0192261,0.0134277
-0.019165,0.0109863
-0.0193481,0.00244141
-0.0195923,-0.00488281
-0.0195923,-0.0164795
-0.0194702,-0.0238037
-0.0194702,-0.0244141
-0.0195923,-0.0170898
-0.0198364,-0.00244141
-0.0198975,0.010376
-0.0198975,0.0170898
-0.0198975,0.0146484
-0.0201416,0.00976563
-0.0203857,0.00366211
-0.0205078,0.000610352
-0.0204468,-0.00793457
-0.0204468,-0.010376
-0.0205688,-0.00671387
-0.020752,0.00427246
-0.020813,0.010376
-0.020813,0.0170898
-0.020874,0.0177002
-0.0210571,0.0146484
-0.0213623,0.0140381
-0.0214233,0.00732422
-0.0213623,0.00244141
-0.0213013,0.00488281
-0.0214233,0.0146484
-0.0216064,0.0286865
-0.0216675,0.0341797
-0.0215454,0.0250244
-0.0216064,0.00793457
-0.0217896,-0.00549316
-0.0220337,-0.0134277
-0.0220947,-0.0115967
-0.0220337,-0.00549316
-0.0220337,-0.00183105
-0.0220947,-0.00915527
-0.0223389,-0.0183105
-0.0222778,-0.0274658
-0.0220947,-0.0311279
-0.0220947,-0.0238037
-0.0220337,-0.00915527
-0.0222778,0.00305176
-0.0223999,0.0146484
-0.0223999,0.0177002
-0.0223999,0.0146484
-0.022522,0.00366211
-0.0227051,-0.00610352
-0.0227661,-0.00976563
-0.022644,-0.00793457
-0.0227661,-0.000610352
-0.0228882,0.00610352
-0.0230713,0.00793457
-0.0230713,0.00244141
-0.0228882,-0.000610352
-0.0228882,-0.00915527
-0.0230103,-0.0146484
-0.0232544,-0.00915527
-0.0233154,-0.00183105
-0.0230713,0.00854492
-0.0229492,0.0219727
-0.0230103,0.020752
-0.0232544,0.0238037
-0.0234375,0.020752
-0.0234985,0.0183105
-0.0234985,0.0189209
-0.0236206,0.0146484
-0.0237427,0.010376
-0.0235596,0.00854492
-0.0233765,0.00610352
-0.0233154,0.00610352
-0.0233765,0.0140381
-0.0236816,0.0177002
-0.0237427,0.0158691
-0.0235596,0.00793457
-0.0235596,-0.010376
-0.0236206,-0.0268555
-0.0238647,-0.0311279
-0.0239868,-0.0231934
-0.0239258,-0.00854492
-0.0239258,0.0115967
-0.0240479,0.020752
-0.024231,0.0280762
-0.024292,0.0268555
-0.0241699,0.0219727
-0.0241089,0.0183105
-0.0241089,0.00549316
-0.024292,-0.00915527
-0.024353,-0.0201416
-0.0241699,-0.0238037
-0.024231,-0.00854492
-0.0244751,0.0134277
-0.0247803,0.0317383
-0.0249634,0.0396729
-0.0248413,0.0274658
-0.0247192,0.020752
-0.0247803,0.012207
-0.0249023,0.00671387
-0.0249634,0.0012207
-0.0249634,-0.00854492
-0.0249023,-0.0213623
-0.0249634,-0.0219727
-0.0252686,-0.0140381
-0.0252686,0.00183105
-0.0252075,0.0115967
-0.0252075,0.0164795
-0.0252075,0.012207
-0.0253906,0.00549316
-0.0253906,-0.00183105
-0.0252686,-0.00732422
-0.0253296,-0.012207
-0.0254517,-0.020752
-0.0256958,-0.0183105
-0.0257568,-0.0152588
-0.0256348,-0.00549316
-0.0256348,0.00793457
-0.0256348,0.0213623
-0.0258179,0.020752
-0.0258179,0.0183105
-0.0257568,0.00976563
-0.0256958,0.00732422
-0.0256958,0.00305176
-0.0258789,0.0012207
-0.0258789,-0.00305176
-0.0257568,-0.00610352
-0.0257568,-0.00610352
-0.0258789,0.00183105
-0.026001,0.0115967
-0.026001,0.0219727
-0.0258179,0.0231934
-0.0258179,0.0201416
-0.0258789,0.0164795
-0.0261841,0.00915527
-0.0263062,0.00854492
-0.0261841,0.00671387
-0.026123,0.00671387
-0.0261841,0.00488281
-0.0264893,0.00305176
-0.0265503,0.0
-0.0264282,0.000610352
-0.0263672,0.000610352
-0.0264282,0.00244141
-0.0265503,0.00427246
-0.0266113,-0.00305176
-0.0264893,-0.012207
-0.0264282,-0.0262451
-0.0265503,-0.0274658
-0.0266724,-0.0286865
-0.0266724,-0.022583
-0.0264893,-0.0170898
-0.0264893,-0.00976563
-0.0266113,-0.00549316
-0.0267944,-0.00671387
-0.0269165,-0.0146484
-0.0266724,-0.0238037
-0.0265503,-0.0305176
-0.0266113,-0.0274658
-0.0268555,-0.0195313
-0.0268555,-0.0128174
-0.0267944,-0.0012207
-0.0267944,0.00183105
-0.0268555,0.00427246
-0.0270996,0.00732422
-0.0271606,0.0
-0.0270386,-0.00854492
-0.0269775,-0.0183105
-0.0270996,-0.0323486
-0.0273438,-0.0384521
-0.0274658,-0.0384521
-0.0273438,-0.0280762
-0.0271606,-0.00671387
-0.0271606,0.00610352
-0.0272827,0.00610352
-0.0273438,-0.00488281
-0.0272827,-0.0201416
-0.0272827,-0.0244141
-0.0274048,-0.0140381
-0.0276489,0.00305176
-0.0276489,0.00854492
-0.0275269,0.00427246
-0.0274658,-0.0128174
-0.0275879,-0.0274658
-0.027771,-0.0268555
-0.02771,-0.0201416
-0.0275879,-0.012207
-0.0275879,-0.0109863
-0.0276489,-0.0152588
-0.0279541,-0.0238037
-0.0280151,-0.0262451
-0.027832,-0.0213623
-0.027832,-0.0158691
-0.0278931,-0.00976563
-0.0281372,-0.00549316
-0.0281982,-0.00793457
-0.0281372,-0.012207
-0.0281982,-0.0195313
-0.0281982,-0.0213623
-0.0283813,-0.0170898
-0.0283813,-0.0128174
-0.0282593,-0.00732422
-0.0283203,-0.00854492
-0.0284424,-0.0134277
-0.0286865,-0.0164795
-0.0286255,-0.0164795
-0.0284424,-0.010376
-0.0283203,-0.00488281
-0.0285034,-0.00366211
-0.0288696,-0.00427246
-0.0290527,-0.00366211
-0.0289307,0.00305176
-0.0288696,0.012207
-0.0288696,0.00793457
-0.0289917,0.00549316
-0.0290527,-0.000610352
-0.0289917,-0.0012207
-0.0291138,0.010376
-0.0292358,0.0189209
-0.029541,0.0219727
-0.0296021,0.0158691
-0.0294189,0.00244141
-0.0293579,-0.00854492
-0.0293579,-0.010376
-0.029541,-0.00610352
-0.0296021,0.00427246
-0.029541,0.010376
-0.029541,0.00549316
-0.0296021,-0.00488281
-0.0298462,-0.0128174
-0.0298462,-0.0109863
-0.0297852,0.00183105
-0.0297241,0.00915527
-0.0297852,0.0158691
-0.0299683,0.0128174
-0.0299683,0.00488281
-0.0298462,0.00183105
-0.0298462,0.00183105
-0.0299072,0.00427246
-0.0300903,0.00488281
-0.0301514,-0.0012207
-0.0300293,-0.0128174
-0.0299683,-0.0238037
-0.0300293,-0.0335693
-0.0302734,-0.032959
-0.0302124,-0.022583
-0.0300293,-0.010376
-0.0299683,-0.000610352
-0.0299683,0.00976563
-0.0301514,0.0140381
-0.0302124,0.0109863
-0.0301514,0.00488281
-0.0300903,0.0012207
-0.0302124,-0.000610352
-0.0303345,0.00488281
-0.0303955,0.0115967
-0.0301514,0.00976563
-0.0301514,0.00549316
-0.0301514,-0.0012207
-0.0303955,-0.00610352
-0.0304565,-0.00732422
-0.0303955,-0.00549316
-0.0303955,-0.00183105
-0.0304565,-0.0012207
-0.0305786,0.000610352
-0.0305176,-0.0012207
-0.0302734,-0.00488281
-0.0302124,-0.00610352
-0.0303955,-0.00671387
-0.0305176,-0.0140381
-0.0304565,-0.0256348
-0.0302734,-0.0335693
-0.0302124,-0.0408936
-0.0303955,-0.0372314
-0.0306396,-0.0286865
-0.0307007,-0.0256348
-0.0304565,-0.0299072
-0.0303345,-0.0305176
-0.0302734,-0.0299072
-0.0303345,-0.020752
-0.0303955,-0.010376
-0.0302734,-0.00732422
-0.0302734,-0.00915527
-0.0303955,-0.0177002
-0.0305176,-0.0189209
-0.0304565,-0.00305176
-0.0302734,0.00976563
-0.0301514,0.020752
-0.0301514,0.0244141
-0.0303345,0.0189209
-0.0303955,0.0128174
-0.0302734,0.00427246
-0.0302124,-0.010376
-0.0301514,-0.0177002
-0.0302124,-0.0152588
-0.0301514,-0.00366211
-0.0300903,0.00976563
-0.0301514,0.0146484
-0.0302734,0.00427246
-0.0305176,-0.0140381
-0.0305176,-0.0213623
-0.0302734,-0.0219727
-0.0302124,-0.0183105
-0.0302124,-0.010376
-0.0302124,-0.00915527
-0.0302124,-0.00732422
-0.0299683,-0.00976563
-0.0299072,-0.00915527
-0.0299683,-0.010376
-0.0301514,-0.00671387
-0.0300903,-0.00244141
-0.0297852,-0.00244141
-0.0297241,-0.00488281
-0.0297241,-0.00915527
-0.0298462,-0.0109863
-0.0298462,-0.00854492
-0.0296631,-0.00305176
-0.0296631,0.00610352
-0.0296021,0.010376
-0.0297241,0.00732422
-0.0296021,0.00915527
-0.0292969,0.00488281
-0.0290527,0.00244141
-0.0290527,0.00305176
-0.0291748,0.0
-0.0292358,-0.00610352
-0.0291138,-0.0134277
-0.0290527,-0.0177002
-0.0290527,-0.0134277
-0.0291138,-0.00427246
-0.0290527,-0.00183105
-0.0288086,0.00244141
-0.0286865,-0.00305176
-0.0285645,-0.00488281
-0.0285645,-0.00305176
-0.0284424,-0.00183105
-0.0282593,0.00244141
-0.0281372,0.00244141
-0.0281982,0.00366211
-0.0282593,0.00976563
-0.0281372,0.0152588
-0.027771,0.0152588
-0.02771,0.00854492
-0.0276489,-0.000610352
-0.027832,-0.00732422
-0.0278931,-0.00793457
-0.0276489,-0.00244141
-0.0274658,0.00427246
-0.0272827,0.00671387
-0.0272827,0.00549316
-0.0272217,0.00183105
-0.0269165,0.0012207
-0.0268555,0.00183105
-0.0269165,0.0109863
-0.0270386,0.0164795
-0.0270386,0.0195313
-0.0267944,0.0177002
-0.0265503,0.0109863
-0.0264893,-0.00183105
-0.0264893,-0.0115967
-0.0263672,-0.0244141
-0.026062,-0.0299072
-0.0258789,-0.0323486
-0.0257568,-0.0274658
-0.0258179,-0.0158691
-0.0257568,-0.00854492
-0.0255737,-0.000610352
-0.0253906,0.00732422
-0.0253296,0.00732422
-0.0253906,0.0140381
-0.0252686,0.0146484
-0.0249634,0.0134277
-0.0247192,0.012207
-0.0246582,0.00183105
-0.0246582,-0.00549316
-0.0245361,-0.012207
-0.024292,-0.020752
-0.0241089,-0.020752
-0.0240479,-0.0177002
-0.0241089,-0.0134277
-0.0239868,-0.00366211
-0.0237427,-0.00366211
-0.0234985,-0.00610352
-0.0234375,-0.00976563
-0.0234375,-0.0158691
-0.0233154,-0.0201416
-0.0229492,-0.020752
-0.0228882,-0.0250244
-0.0227661,-0.0244141
-0.0228882,-0.022583
-0.0228271,-0.020752
-0.022583,-0.0115967
-0.0224609,-0.00793457
-0.0223389,-0.00915527
-0.0223999,-0.010376
-0.0222168,-0.0115967
-0.0219727,-0.0158691
-0.0218506,-0.0158691
-0.0219116,-0.0158691
-0.0220337,-0.0219727
-0.0219116,-0.0256348
-0.0215454,-0.0299072
-0.0213623,-0.0262451
-0.0213013,-0.0189209
-0.0214844,-0.00732422
-0.0214844,0.00366211
-0.0213013,0.00793457
-0.0211182,0.00915527
-0.0210571,0.0140381
-0.0211792,0.0164795
-0.0211182,0.0140381
-0.020813,0.012207
-0.020752,0.00488281
-0.0206299,-0.00488281
-0.0206299,-0.00854492
-0.0205688,-0.00610352
-0.0203247,-0.0012207
-0.0202026,-0.000610352
-0.0202637,-0.00305176
-0.0204468,-0.00549316
-0.0203857,-0.0115967
-0.0200806,-0.0134277
-0.0197754,-0.00976563
-0.0197144,-0.00305176
-0.0197754,0.00549316
-0.0198975,0.0128174
-0.0197144,0.0140381
-0.0196533,0.010376
-0.0196533,0.00671387
-0.0196533,0.00427246
-0.0196533,0.000610352
-0.0194092,-0.00305176
-0.0192871,-0.00915527
-0.0192871,-0.0146484
-0.0194702,-0.0164795
-0.0194702,-0.0134277
-0.0192261,-0.00732422
-0.019043,0.00183105
-0.0188599,0.00671387
-0.0189209,0.00854492
-0.0188599,0.00183105
-0.0186768,-0.00732422
-0.0184937,-0.0177002
-0.0184937,-0.022583
-0.0186768,-0.0164795
-0.0186768,-0.010376
-0.0184326,0.000610352
-0.0182495,0.00183105
-0.0181885,0.00183105
-0.0182495,-0.00305176
-0.0181885,-0.0134277
-0.0180054,-0.0256348
-0.0178833,-0.0317383
-0.0178223,-0.03479
-0.0178833,-0.0262451
-0.0178223,-0.0213623
-0.0176392,-0.020752
-0.0175781,-0.0262451
-0.0175781,-0.0262451
-0.0175781,-0.0189209
-0.0175171,-0.00366211
-0.0172119,0.00183105
-0.0170288,0.00427246
-0.0169678,-0.00183105
-0.0170898,-0.00366211
-0.0170288,-0.00244141
-0.0168457,0.0
-0.0167847,0.00244141
-0.0167236,0.00183105
-0.0169067,-0.00671387
-0.0168457,-0.0128174
-0.0166016,-0.0170898
-0.0164185,-0.0201416
-0.0163574,-0.0158691
-0.0165405,-0.0146484
-0.0165405,-0.0201416
-0.0164185,-0.0256348
-0.0162964,-0.0366211
-0.0161743,-0.0335693
-0.0162354,-0.0195313
-0.0161133,-0.010376
-0.0159302,-0.00366211
-0.0158691,-0.0158691
-0.0158691,-0.0256348
-0.0160522,-0.032959
-0.0160522,-0.0274658
-0.0159302,-0.0128174
-0.0158081,-0.00671387
-0.0157471,0.0
-0.0158081,-0.00183105
-0.0157471,-0.000610352
-0.0155029,0.00549316
-0.0153809,0.0109863
-0.0155029,0.0128174
-0.0157471,0.00976563
-0.015686,0.00366211
-0.015564,-0.00305176
-0.0153809,0.00305176
-0.0153809,0.00915527
-0.0154419,0.022583
-0.0153809,0.0244141
-0.0152588,0.0201416
-0.0152588,0.00610352
-0.0152588,-0.00427246
-0.0153809,-0.00488281
-0.0152588,-0.00305176
-0.0150146,0.00366211
-0.0149536,0.0012207
-0.0150146,-0.00976563
-0.0151367,-0.0152588
-0.0151367,-0.0115967
-0.0150146,0.0
-0.0148926,0.00793457
-0.0148926,0.010376
-0.0150757,0.0109863
-0.0151367,0.00183105
-0.0149536,0.0
-0.0148926,0.00183105
-0.0148315,0.00671387
-0.0148315,0.0128174
-0.0147095,0.0177002
-0.0144653,0.0152588
-0.0143433,0.00549316
-0.0143433,-0.00427246
-0.0145874,-0.00793457
-0.0146484,-0.00732422
-0.0145874,-0.00427246
-0.0146484,-0.00244141
-0.0148315,-0.00183105
-0.0149536,-0.00305176
-0.0148926,0.00671387
-0.0147095,0.012207
-0.0145264,0.00915527
-0.0144043,0.00244141
-0.0145874,-0.0109863
-0.0145874,-0.020752
-0.0145264,-0.0219727
-0.0145264,-0.0158691
-0.0145264,-0.012207
-0.0145874,-0.00976563
-0.0145874,-0.00610352
-0.0143433,-0.00549316
-0.0142822,-0.00305176
-0.0144043,0.00244141
-0.0147095,0.00854492
-0.0147705,0.0170898
-0.0147095,0.0170898
-0.0145874,0.0183105
-0.0145264,0.0152588
-0.0146484,0.00549316
-0.0146484,-0.0012207
-0.0144653,-0.00549316
-0.0144653,-0.010376
-0.0145264,-0.00976563
-0.0148315,-0.00732422
-0.0148926,-0.00976563
-0.0147095,-0.0128174
-0.0145874,-0.0219727
-0.0144653,-0.0219727
-0.0144653,-0.0177002
-0.0144653,-0.010376
-0.0143433,-0.010376
-0.0143433,-0.0109863
-0.0144043,-0.00671387
-0.0145874,-0.00610352
-0.0145874,0.0012207
-0.0144043,0.00305176
-0.0143433,0.000610352
-0.0143433,-0.0012207
-0.0145264,-0.000610352
-0.0145874,-0.00183105
-0.0144653,-0.0109863
-0.0144653,-0.0183105
-0.0145264,-0.0286865
-0.0147095,-0.0323486
-0.0147705,-0.0244141
-0.0146484,-0.012207
-0.0145264,-0.0012207
-0.0145264,0.00854492
-0.0147095,0.00610352
-0.0147705,-0.0012207
-0.0146484,-0.00854492
-0.0145874,-0.0109863
-0.0145264,-0.010376
-0.0147095,-0.00549316
-0.0146484,-0.012207
-0.0145264,-0.0189209
-0.0144653,-0.0274658
-0.0145874,-0.0299072
-0.0148926,-0.0244141
-0.0149536,-0.0109863
-0.0148315,-0.00488281
-0.0147705,-0.00854492
-0.0148315,-0.0231934
-0.0151367,-0.0408936
-0.0151978,-0.0506592
-0.0149536,-0.0543213
-0.0148926,-0.0500488
-0.0148315,-0.045166
-0.0150146,-0.0372314
-0.0151978,-0.022583
-0.0151978,-0.00854492
-0.0152588,-0.000610352
-0.0153198,0.00305176
-0.0155029,0.0012207
-0.0155029,-0.00244141
-0.0153809,-0.00244141
-0.0153809,-0.00366211
-0.0155029,-0.00610352
-0.015686,-0.00793457
-0.0157471,-0.00610352
-0.015625,-0.00915527
-0.015625,-0.0115967
-0.0157471,-0.0189209
-0.0160522,-0.0250244
-0.0161743,-0.0286865
-0.0161133,-0.0268555
-0.0160522,-0.0231934
-0.0161743,-0.0195313
-0.0163574,-0.0134277
-0.0165405,-0.0134277
-0.0164185,-0.0146484
-0.0164185,-0.0201416
-0.0164185,-0.0244141
-0.0165405,-0.0183105
-0.0166626,-0.0128174
-0.0166016,-0.00427246
-0.0166626,-0.00183105
-0.0167236,-0.00366211
-0.0169067,-0.0109863
-0.0169678,-0.0183105
-0.0167847,-0.0177002
-0.0167847,-0.0140381
-0.0167847,-0.010376
-0.0170288,-0.00976563
-0.0170898,-0.0146484
-0.0169678,-0.0250244
-0.0169067,-0.0183105
-0.0170288,-0.00732422
-0.0172119,0.00915527
-0.0172729,0.0158691
-0.0170898,0.00854492
-0.0170288,-0.00427246
-0.0169678,-0.00976563
-0.0171509,-0.00793457
-0.0170898,-0.00366211
-0.0169678,-0.00976563
-0.0169678,-0.022583
-0.0170898,-0.03479
-0.017334,-0.0360107
-0.0174561,-0.0286865
-0.0174561,-0.0231934
-0.0174561,-0.0177002
-0.0174561,-0.0177002
-0.0176392,-0.012207
-0.0176392,-0.00244141
-0.0174561,0.00244141
-0.0175171,0.00488281
-0.0175781,-0.00183105
-0.0177612,-0.00854492
-0.0178223,-0.0146484
-0.0175781,-0.0128174
-0.0174561,-0.0140381
-0.0174561,-0.00915527
-0.0176392,-0.0012207
-0.0177612,0.0012207
-0.0177612,0.000610352
-0.0178223,-0.0012207
-0.0178833,-0.010376
-0.0180664,-0.0170898
-0.0181274,-0.022583
-0.0180664,-0.0219727
-0.0180054,-0.020752
-0.0180664,-0.012207
-0.0182495,-0.00671387
-0.0183105,-0.00732422
-0.0182495,-0.0177002
-0.0181885,-0.0189209
-0.0183105,-0.0201416
-0.0184326,-0.012207
-0.0183716,0.00366211
-0.0181885,0.0128174
-0.0182495,0.0158691
-0.0183105,0.012207
-0.0186157,0.00488281
-0.0186768,0.00183105
-0.0184937,0.0012207
-0.0183716,0.00671387
-0.0183716,0.0115967
-0.0186768,0.0146484
-0.0187988,0.00732422
-0.0186768,-0.00488281
-0.0186768,-0.0170898
-0.0186768,-0.0256348
-0.0187988,-0.0238037
-0.0188599,-0.0158691
-0.0187988,-0.00610352
-0.0187988,0.0012207
-0.0187988,0.00244141
-0.0189819,0.00244141
-0.0189819,0.0012207
-0.0189209,0.000610352
-0.0188599,0.000610352
-0.0189209,0.00183105
-0.019165,0.00183105
-0.019104,-0.00305176
-0.0189209,-0.00671387
-0.0188599,-0.0128174
-0.0188599,-0.0115967
-0.019165,-0.00671387
-0.0192871,-0.00183105
-0.0192261,-0.00244141
-0.019165,-0.00244141
-0.019104,-0.00488281
-0.0192261,-0.00488281
-0.019165,0.000610352
-0.0189819,0.00427246
-0.019043,0.00183105
-0.019165,0.0012207
-0.0194092,0.0012207
-0.0194702,-0.000610352
-0.0193481,0.00244141
-0.019165,0.00183105
-0.019165,0.00183105
-0.0193481,0.00671387
-0.0194092,0.00793457
-0.0193481,0.00915527
-0.0192871,0.00732422
-0.0192871,-0.00488281
-0.0194702,-0.0115967
-0.0194702,-0.0115967
-0.0194702,-0.00976563
-0.0194092,-0.00366211
-0.0195313,0.00427246
-0.0196533,0.0152588
-0.0195923,0.0219727
-0.0194702,0.0335693
-0.0194092,0.0341797
-0.0194092,0.0238037
-0.0195923,0.00915527
-0.0195923,-0.00610352
-0.0194702,-0.012207
-0.0194092,-0.00427246
-0.0194092,0.010376
-0.0195313,0.020752
-0.0194702,0.0152588
-0.0193481,-0.00244141
-0.0192871,-0.020752
-0.0193481,-0.0299072
-0.0195923,-0.0250244
-0.0195923,-0.0195313
-0.0194702,-0.0158691
-0.0195313,-0.0170898
-0.0195923,-0.020752
-0.0198364,-0.0177002
-0.0198364,-0.00732422
-0.0197144,0.00366211
-0.0196533,0.0115967
-0.0197144,0.012207
-0.0200195,0.00915527
-0.0200195,0.00427246
-0.0197754,0.00305176
-0.0196533,0.00366211
-0.0196533,0.00244141
-0.0198364,-0.0012207
-0.0198975,-0.00732422
-0.0197754,-0.0152588
-0.0197144,-0.0189209
-0.0197754,-0.0189209
-0.0200195,-0.020752
-0.0199585,-0.0177002
-0.0197144,-0.0109863
-0.0195923,-0.00366211
-0.0195923,0.00244141
-0.0198975,0.00488281
-0.0199585,0.0012207
-0.0197754,-0.0109863
-0.0195923,-0.012207
-0.0195923,-0.00854492
-0.0196533,-0.00305176
-0.0196533,0.00488281
-0.0195313,0.00610352
-0.0194092,0.00793457
-0.0192871,0.00976563
-0.0193481,0.0140381
-0.0192261,0.00915527
-0.019104,0.00305176
-0.019043,-0.00305176
-0.019165,-0.0115967
-0.0193481,-0.0115967
-0.0193481,-0.0134277
-0.019043,-0.0170898
-0.0189209,-0.0177002
-0.0187988,-0.0170898
-0.0189209,-0.0183105
-0.0189209,-0.0170898
-0.0187988,-0.0128174
-0.0187988,-0.00549316
-0.0187988,-0.000610352
-0.0189819,0.00427246
-0.0189819,0.00793457
-0.0187988,0.00427246
-0.0187378,0.0012207
-0.0187378,-0.00305176
-0.0189819,-0.00427246
-0.0189209,-0.00671387
-0.0187378,-0.00549316
-0.0186768,-0.00366211
-0.0187378,-0.00610352
-0.0189209,-0.00976563
-0.019043,-0.0115967
-0.0189209,-0.0164795
-0.0187988,-0.0183105
-0.0187378,-0.0177002
-0.0187988,-0.0140381
-0.0187378,-0.0109863
-0.0186157,-0.00976563
-0.0186157,-0.00732422
-0.0186157,-0.00671387
-0.0187378,0.00183105
-0.0186768,0.0140381
-0.0184326,0.0268555
-0.0183105,0.0311279
-0.0183716,0.0250244
-0.0184937,0.0134277
-0.0184326,0.00732422
-0.0182495,-0.00488281
-0.0181885,0.0
-0.0181885,0.0012207
-0.0184326,0.00427246
-0.0183716,0.00427246
-0.0182495,0.00244141
-0.0180664,-0.00610352
-0.0180054,-0.00976563
-0.0181274,-0.00549316
-0.0180664,-0.00427246
-0.0178223,-0.00305176
-0.0177002,-0.00732422
-0.0176392,-0.0146484
-0.0177612,-0.0140381
-0.0177612,-0.00305176
-0.0175171,0.0140381
-0.0175171,0.0170898
-0.017395,0.0177002
-0.0175781,0.0140381
-0.0175171,0.0109863
-0.0172729,0.0177002
-0.0172119,0.0195313
-0.0171509,0.0134277
-0.0172729,0.00366211
-0.0171509,-0.00732422
-0.0168457,-0.010376
-0.0167236,-0.00305176
-0.0166016,0.00366211
-0.0166626,0.0146484
-0.0166626,0.0152588
-0.0164185,0.010376
-0.0162964,0.0115967
-0.0162354,0.0146484
-0.0162964,0.020752
-0.0162964,0.0238037
-0.0160522,0.0183105
-0.0159912,0.00976563
-0.0159302,0.00427246
-0.0159912,0.00183105
-0.0159302,0.00183105
-0.015625,-0.00244141
-0.0155029,-0.00427246
-0.0153809,-0.00610352
-0.0154419,0.000610352
-0.0154419,0.0109863
-0.0152588,0.0140381
-0.0150757,0.0109863
-0.0150757,0.0012207
-0.0151367,-0.0115967
-0.0150146,-0.0164795
-0.0148926,-0.0146484
-0.0147705,-0.00305176
-0.0148315,0.00305176
-0.0148926,0.00610352
-0.0147705,0.00610352
-0.0144653,0.00305176
-0.0141602,0.00671387
-0.0140991,0.0134277
-0.0142212,0.0201416
-0.0141602,0.0219727
-0.0139771,0.0152588
-0.0137329,0.00671387
-0.0136719,0.000610352
-0.0137329,0.00305176
-0.0137329,0.00915527
-0.0135498,0.00976563
-0.0134277,0.0115967
-0.0134277,0.00854492
-0.0134888,0.0012207
-0.0134277,-0.0012207
-0.0131836,-0.000610352
-0.0129395,-0.00183105
-0.0128784,0.000610352
-0.0129395,0.00549316
-0.0128784,0.000610352
-0.0126343,-0.00610352
-0.0125732,-0.010376
-0.0125122,-0.0115967
-0.0126343,0.0012207
-0.0125122,0.0146484
-0.012207,0.0195313
-0.0120239,0.0213623
-0.0120239,0.0195313
-0.0122681,0.0164795
-0.0122681,0.0195313
-0.012085,0.0146484
-0.0118408,0.012207
-0.0116577,0.00549316
-0.0116577,-0.00183105
-0.0115967,-0.00610352
-0.0114136,-0.0140381
-0.0112915,-0.0158691
-0.0112915,-0.00854492
-0.0114136,0.00366211
-0.0114136,0.0152588
-0.0111694,0.0146484
-0.0111694,0.00793457
-0.0111084,0.000610352
-0.0112915,0.00183105
-0.0112305,0.00671387
-0.0109863,0.010376
-0.0108643,0.00976563
-0.0106812,0.00366211
-0.0107422,-0.0012207
-0.0106201,-0.00488281
-0.010498,-0.010376
-0.010498,-0.0140381
-0.0105591,-0.012207
-0.0107422,-0.00915527
-0.0106201,-0.00183105
-0.0103149,0.00427246
-0.0102539,0.00549316
-0.0101929,0.00915527
-0.0103149,0.00854492
-0.0103149,0.00488281
-0.0100708,-0.00305176
-0.0098877,-0.0128174
-0.0098877,-0.0195313
-0.00994873,-0.0201416
-0.00994873,-0.0164795
-0.00970459,-0.00976563
-0.00958252,-0.0012207
-0.00958252,0.0
-0.00964355,-0.0012207
-0.00964355,-0.00793457
-0.00946045,-0.012207
-0.00927734,-0.0128174
-0.00933838,-0.00793457
-0.00939941,0.0
-0.00933838,0.00793457
-0.00915527,0.0177002
-0.0090332,0.0250244
-0.0090332,0.0268555
-0.00915527,0.020752
-0.00909424,0.012207
-0.00891113,0.00305176
-0.00891113,-0.00793457
-0.00891113,-0.0115967
-0.0090332,-0.0134277
-0.0090332,-0.00854492
-0.00878906,0.0
-0.00866699,0.00732422
-0.00866699,0.0128174
-0.00872803,0.0152588
-0.00866699,0.0152588
-0.00854492,0.0152588
-0.00848389,0.00915527
-0.00854492,0.00366211
-0.00866699,0.0012207
-0.00866699,0.0012207
-0.00848389,0.00732422
-0.00848389,0.012207
-0.00848389,0.0134277
-0.00872803,0.00793457
-0.00878906,0.00244141
-0.00866699,-0.00488281
-0.00854492,-0.00549316
-0.00848389,-0.00549316
-0.00860596,0.000610352
-0.00854492,0.00915527
-0.00836182,0.0170898
-0.00842285,0.0219727
-0.00860596,0.0201416
-0.0088501,0.0152588
-0.0088501,0.00732422
-0.00872803,0.00183105
-0.00860596,-0.00366211
-0.00854492,-0.00854492
-0.00872803,-0.010376
-0.00872803,-0.00915527
-0.00866699,-0.00427246
-0.00860596,-0.00244141
-0.00866699,-0.00244141
-0.00878906,-0.00610352
-0.00872803,-0.012207
-0.00860596,-0.0170898
-0.00860596,-0.0115967
-0.00866699,-0.00671387
-0.00878906,0.00549316
-0.00872803,0.0201416
-0.00854492,0.0238037
-0.00842285,0.0244141
-0.00854492,0.0219727
-0.00878906,0.0152588
-0.00878906,0.00427246
-0.00872803,-0.00671387
-0.00872803,-0.0146484
-0.00897217,-0.010376
-0.00921631,0.00854492
-0.00927734,0.022583
-0.00909424,0.0268555
-0.00897217,0.0177002
-0.00897217,-0.00305176
-0.0090332,-0.0152588
-0.00909424,-0.0201416
-0.00891113,-0.0274658
-0.00891113,-0.0262451
-0.00897217,-0.0219727
-0.00921631,-0.0134277
-0.00921631,-0.00305176
-0.00921631,-0.0012207
-0.00921631,-0.00915527
-0.00933838,-0.0219727
-0.00952148,-0.0262451
-0.00958252,-0.0244141
-0.00946045,-0.0146484
-0.00952148,-0.0109863
-0.00964355,-0.0115967
-0.00982666,-0.0134277
-0.00976563,-0.0152588
-0.00958252,-0.00976563
-0.00939941,-0.00610352
-0.00933838,-0.00610352
-0.00964355,-0.00671387
-0.00970459,-0.00610352
-0.00970459,-0.000610352
-0.00976563,0.00854492
-0.00994873,0.0115967
-0.0101318,0.0152588
-0.0101929,0.00549316
-0.00994873,0.00488281
-0.0098877,0.00610352
-0.0098877,0.0109863
-0.0100098,0.012207
-0.0100098,0.0177002
-0.00976563,0.0189209
-0.00976563,0.0170898
-0.00982666,0.0158691
-0.0100098,0.012207
-0.0100708,0.00366211
-0.0100098,0.0
-0.0100708,-0.00183105
-0.0101929,-0.000610352
-0.010376,-0.000610352
-0.010376,0.0
-0.0101929,-0.0109863
-0.0101318,-0.0152588
-0.0101318,-0.0170898
-0.0101929,-0.0109863
-0.0101318,0.000610352
-0.00994873,0.00732422
-0.0100708,-0.0012207
-0.0102539,-0.012207
-0.0105591,-0.0256348
-0.0106812,-0.0268555
-0.0105591,-0.0195313
-0.010437,-0.0109863
-0.010498,-0.00610352
-0.0106201,-0.00976563
-0.0105591,-0.0189209
-0.0103149,-0.020752
-0.010376,-0.0115967
-0.010437,0.00366211
-0.0106201,0.0115967
-0.0106812,0.00549316
-0.0105591,-0.00793457
-0.0106201,-0.0195313
-0.0107422,-0.0152588
-0.0109253,-0.00183105
-0.0109253,0.00549316
-0.0107422,0.0012207
-0.0106201,-0.00366211
-0.0106812,-0.0128174
-0.0109253,-0.010376
-0.0109253,-0.00610352
-0.0107422,-0.0012207
-0.0106201,-0.00427246
-0.0106812,-0.00427246
-0.0109863,-0.00549316
-0.0111694,-0.00854492
-0.0111084,-0.00610352
-0.0109863,-0.00366211
-0.0109863,-0.00305176
-0.0112305,-0.00183105
-0.0113525,-0.00671387
-0.0112915,-0.00976563
-0.0112915,-0.0128174
-0.0112915,-0.00671387
-0.0114136,0.00793457
-0.0114746,0.0183105
-0.0112305,0.0231934
-0.0111694,0.0146484
-0.0112915,0.00427246
-0.0115356,-0.00427246
-0.0115967,-0.00854492
-0.0115356,-0.00610352
-0.0114136,-0.00305176
-0.0115356,-0.00610352
-0.0116577,-0.0158691
-0.0117188,-0.0262451
-0.0115967,-0.0378418
-0.0114746,-0.0469971
-0.0114746,-0.0463867
-0.0115356,-0.0341797
-0.0115967,-0.0195313
-0.0115356,-0.0109863
-0.0115356,-0.0115967
-0.0116577,-0.0183105
-0.0119019,-0.020752
-0.0119019,-0.0170898
-0.0117798,-0.00427246
-0.0117188,0.00671387
-0.0117188,0.00732422
-0.0119629,0.00305176
-0.0119629,-0.00793457
-0.0118408,-0.0189209
-0.0118408,-0.0195313
-0.0119019,-0.0109863
-0.012146,0.000610352
-0.0122681,0.00976563
-0.012146,0.00427246
-0.012085,-0.00427246
-0.012085,-0.0164795
-0.0122681,-0.0195313
-0.0123291,-0.0164795
-0.012146,-0.0115967
-0.012146,-0.00488281
-0.0123291,0.00244141
-0.0125122,-0.000610352
-0.0125122,-0.00183105
-0.0123291,-0.00854492
-0.0122681,-0.0146484
-0.0123291,-0.0115967
-0.0125122,-0.00976563
-0.0125732,-0.010376
-0.0124512,-0.0164795
-0.0124512,-0.0262451
-0.0125732,-0.0311279
-0.0127563,-0.020752
-0.0127563,-0.00427246
-0.0125732,0.010376
-0.0125122,0.0183105
-0.0126343,0.0164795
-0.0129395,0.0195313
-0.0130615,0.020752
-0.0128174,0.0268555
-0.0128174,0.0292969
-0.0128174,0.0274658
-0.0129395,0.0262451
-0.0130005,0.0250244
-0.0128174,0.0164795
-0.0128174,0.00671387
-0.0128174,-0.00183105
-0.0130615,-0.00976563
-0.0131226,-0.00671387
-0.0130005,0.0012207
-0.0130615,0.00915527
-0.0131836,0.012207
-0.0133057,0.0140381
-0.0133057,0.0170898
-0.0131226,0.0244141
-0.0131836,0.0305176
-0.0133667,0.03479
-0.0136108,0.0305176
-0.0136719,0.0170898
-0.0135498,0.00976563
-0.0135498,0.00671387
-0.0135498,0.00854492
-0.0137939,0.00488281
-0.0137329,0.00183105
-0.0134277,-0.00244141
-0.0133667,-0.00976563
-0.0134888,-0.010376
-0.0136719,-0.0109863
-0.0137939,-0.0109863
-0.0136108,-0.0115967
-0.0135498,-0.010376
-0.0136719,-0.00915527
-0.013855,-0.00427246
-0.013916,0.00976563
-0.013855,0.0183105
-0.0137939,0.0146484
-0.013916,0.00854492
-0.0140381,0.00183105
-0.0140381,-0.00244141
-0.013916,0.00427246
-0.013916,0.00854492
-0.0139771,0.00549316
-0.0142822,-0.00305176
-0.0143433,-0.0109863
-0.0142212,-0.0158691
-0.0142212,-0.0195313
-0.0144043,-0.0213623
-0.0146484,-0.0189209
-0.0147705,-0.0158691
-0.0146484,-0.0128174
-0.0147095,-0.00915527
-0.0148315,-0.00305176
-0.0149536,0.010376
-0.0150146,0.0238037
-0.0148926,0.0268555
-0.0149536,0.0274658
-0.0150146,0.0152588
-0.0151367,0.00549316
-0.0150757,0.00244141
-0.0148926,0.00671387
-0.0149536,0.00610352
-0.0150757,-0.0012207
-0.0153198,-0.00976563
-0.0153198,-0.012207
-0.0150146,-0.00549316
-0.0149536,0.00427246
-0.0149536,0.0134277
-0.0151978,0.0140381
-0.0153198,0.00854492
-0.0151978,0.00732422
-0.0151367,0.00793457
-0.0151367,0.0134277
-0.0152588,0.012207
-0.0152588,0.0115967
-0.0151367,0.0115967
-0.0151978,0.0158691
-0.0152588,0.0219727
-0.0154419,0.0335693
-0.0154419,0.0317383
-0.0153198,0.0238037
-0.0152588,0.0140381
-0.0152588,0.012207
-0.0154419,0.0115967
-0.0154419,0.00671387
-0.0152588,-0.00488281
-0.0152588,-0.0250244
-0.0153809,-0.0390625
-0.0154419,-0.0354004
-0.0153809,-0.0250244
-0.0151367,-0.0134277
-0.0150757,-0.0134277
-0.0151978,-0.0170898
-0.0154419,-0.0256348
-0.0155029,-0.0299072
-0.0152588,-0.0250244
-0.0150757,-0.0213623
-0.0150757,-0.0177002
-0.0152588,-0.0140381
-0.0153809,-0.00854492
-0.0152588,-0.00366211
-0.0153198,0.00427246
-0.0153809,0.00732422
-0.015564,-0.00488281
-0.0155029,-0.0170898
-0.0153198,-0.0262451
-0.0151978,-0.0262451
-0.0152588,-0.0134277
-0.0154419,0.00671387
-0.015564,0.0183105
-0.0154419,0.0250244
-0.015564,0.0170898
-0.015625,0.00366211
-0.0157471,-0.00915527
-0.015625,-0.0170898
-0.0153809,-0.0244141
-0.0153198,-0.0244141
-0.0154419,-0.020752
-0.015564,-0.0140381
-0.015686,-0.00549316
-0.015564,0.000610352
-0.015625,-0.0012207
-0.0157471,-0.00732422
-0.0159302,-0.012207
-0.0159302,-0.0109863
-0.0157471,0.00427246
-0.0158081,0.0177002
-0.0159302,0.0250244
-0.0160522,0.0256348
-0.0159912,0.0170898
-0.0158691,0.00671387
-0.0158691,0.00671387
-0.0159302,-0.0012207
-0.0161743,-0.0115967
-0.0159912,-0.0238037
-0.0158081,-0.0238037
-0.0158081,-0.0109863
-0.0159912,0.0128174
-0.0162354,0.0323486
-0.0162964,0.0378418
-0.0160522,0.0274658
-0.0159302,0.0128174
-0.0159912,0.00610352
-0.0161133,0.00549316
-0.0161133,0.00976563
-0.0159912,0.00854492
-0.0159912,0.000610352
-0.0161133,-0.0128174
-0.0163574,-0.0183105
-0.0164185,-0.0164795
-0.0162964,-0.00732422
-0.0162964,0.00549316
-0.0163574,0.00976563
-0.0166016,0.0146484
-0.0166016,0.00915527
-0.0164185,0.00183105
-0.0163574,-0.00732422
-0.0164185,-0.022583
-0.0166016,-0.0250244
-0.0166016,-0.0219727
-0.0165405,-0.012207
-0.0166016,-0.00427246
-0.0166626,0.00732422
-0.0167847,0.0140381
-0.0167236,0.0164795
-0.0164795,0.0170898
-0.0164795,0.00976563
-0.0166016,-0.00183105
-0.0168457,-0.00183105
-0.0169067,0.00183105
-0.0167847,0.010376
-0.0167236,0.0244141
-0.0167236,0.0262451
-0.0169067,0.0195313
-0.0169067,0.00549316
-0.0167847,-0.00732422
-0.0167236,-0.0201416
-0.0167847,-0.0238037
-0.0169678,-0.0177002
-0.0170898,-0.0109863
-0.0169678,-0.012207
-0.0170898,-0.00915527
-0.0171509,-0.00732422
-0.017334,0.00183105
-0.017334,0.00732422
-0.0171509,0.010376
-0.0171509,0.00732422
-0.0171509,-0.000610352
-0.0172119,-0.00488281
-0.0171509,-0.00793457
-0.0169678,-0.0115967
-0.0170898,-0.0146484
-0.0172119,-0.0170898
-0.017395,-0.010376
-0.017395,0.000610352
-0.0172119,0.010376
-0.0171509,0.020752
-0.0172729,0.0195313
-0.0174561,0.010376
-0.0174561,0.00244141
-0.0172119,-0.00854492
-0.0171509,-0.010376
-0.0171509,-0.012207
-0.0174561,-0.00610352
-0.0176392,-0.00488281
-0.0176392,0.00549316
-0.0176392,0.0140381
-0.0177002,0.0219727
-0.0177612,0.0231934
-0.0177612,0.0158691
-0.0175781,0.00854492
-0.0176392,0.00488281
-0.0177002,0.0109863
-0.0178833,0.0170898
-0.0177612,0.022583
-0.0175171,0.0213623
-0.0175171,0.0152588
-0.0176392,0.0152588
-0.0178223,0.0219727
-0.0178833,0.0256348
-0.0176392,0.0250244
-0.0175171,0.0170898
-0.0176392,0.0109863
-0.0178223,0.00854492
-0.0179443,0.0109863
-0.0178833,0.0201416
-0.0178223,0.0183105
-0.0178223,0.0201416
-0.0178223,0.022583
-0.0177002,0.0183105
-0.0176392,0.0170898
-0.0175781,0.0164795
-0.0176392,0.0134277
-0.0179443,0.0134277
-0.0179443,0.012207
-0.0178223,0.00549316
-0.0178833,-0.00183105
-0.0178833,-0.0115967
-0.0180054,-0.0134277
-0.0180054,-0.00610352
-0.0179443,-0.000610352
-0.0180054,0.00732422
-0.0181274,0.0152588
-0.0183716,0.0177002
-0.0184326,0.0158691
-0.0183105,0.0140381
-0.0183105,0.0115967
-0.0184326,0.00976563
-0.0186768,0.0170898
-0.0187378,0.0231934
-0.0185547,0.0274658
-0.0186157,0.0317383
-0.0186768,0.0286865
-0.0189819,0.0213623
-0.019104,0.0115967
-0.0189819,-0.0012207
-0.0189209,-0.00671387
-0.0189819,-0.00183105
-0.019165,0.00793457
-0.0192871,0.0146484
-0.0192871,0.0189209
-0.0194092,0.0140381
-0.0195313,0.0128174
-0.0197144,0.00976563
-0.0197144,0.00732422
-0.0195313,-0.00305176
-0.0194702,-0.0115967
-0.0195313,-0.0152588
-0.0197754,-0.00915527
-0.0198975,0.00305176
-0.0197754,0.0134277
-0.0197754,0.0158691
-0.0198975,0.00793457
-0.0200195,-0.000610352
-0.0201416,-0.00732422
-0.0200195,-0.00488281
-0.0200806,0.00366211
-0.0202026,0.0195313
-0.0203857,0.0292969
-0.0203857,0.0274658
-0.0202637,0.0183105
-0.0202026,0.00671387
-0.0203247,0.0012207
-0.0205078,0.00488281
-0.0205688,0.0115967
-0.0204468,0.012207
-0.0203857,0.0109863
-0.0203247,0.010376
-0.0203247,0.0183105
-0.0202026,0.0152588
-0.0200195,0.0115967
-0.0200806,-0.00305176
-0.0202026,-0.0158691
-0.0204468,-0.0189209
-0.0205078,-0.0152588
-0.0203247,-0.00610352
-0.0203857,0.00183105
-0.0204468,0.00793457
-0.0205078,0.0134277
-0.0205078,0.0128174
-0.0203247,0.00732422
-0.0204468,0.00427246
-0.0206299,0.00854492
-0.020874,0.0134277
-0.020874,0.0256348
-0.020752,0.0317383
-0.020752,0.0274658
-0.020813,0.0170898
-0.0209961,0.00549316
-0.0209961,-0.0012207
-0.020752,-0.00915527
-0.0205688,-0.0128174
-0.0205688,-0.0140381
-0.020752,-0.00854492
-0.020813,-0.00305176
-0.020874,0.00488281
-0.0210571,0.00732422
-0.0211792,0.00793457
-0.0213623,0.00610352
-0.0213623,0.00366211
-0.0211182,0.00244141
-0.0210571,0.00427246
-0.0210571,0.00427246
-0.0213013,0.00976563
-0.0213623,0.0219727
-0.0211792,0.0305176
-0.0211182,0.0360107
-0.0211182,0.0402832
-0.0213013,0.0396729
-0.0213013,0.0372314
-0.0211792,0.032959
-0.0211182,0.0262451
-0.0211792,0.0170898
-0.0213623,0.0183105
-0.0214233,0.0170898
-0.0212402,0.0134277
-0.0211792,0.012207
-0.0213623,0.00610352
-0.0216064,0.0
-0.0217285,-0.000610352
-0.0215454,-0.00305176
-0.0214844,-0.00427246
-0.0215454,-0.00610352
-0.0217285,-0.00244141
-0.0216675,-0.000610352
-0.0214233,0.00366211
-0.0212402,0.00366211
-0.0213013,0.0012207
-0.0214844,-0.0012207
-0.0217285,-0.00732422
-0.0217285,-0.00915527
-0.0217896,-0.0134277
-0.0219116,-0.00732422
-0.0220947,0.00183105
-0.0221558,0.0158691
-0.0219727,0.0250244
-0.0219116,0.0268555
-0.0219116,0.0231934
-0.0220947,0.0170898
-0.0221558,0.0195313
-0.0220337,0.0262451
-0.0220947,0.0286865
-0.0221558,0.0292969
-0.0223389,0.0250244
-0.0224609,0.0177002
-0.0222168,0.0152588
-0.0222168,0.0177002
-0.0222168,0.0164795
-0.0223389,0.0164795
-0.0223999,0.0201416
-0.0222778,0.0177002
-0.0222168,0.0109863
-0.0223389,0.00732422
-0.0224609,0.00854492
-0.0224609,0.00976563
-0.0222168,0.0115967
-0.0221558,0.0146484
-0.0222168,0.0115967
-0.0223999,0.00610352
-0.0224609,0.00305176
-0.0223389,0.0
-0.0222168,-0.00366211
-0.0223389,-0.00732422
-0.022522,-0.00793457
-0.022644,-0.00793457
-0.022583,0.00244141
-0.0224609,0.00915527
-0.0224609,0.020752
-0.022522,0.0335693
-0.022522,0.0341797
-0.0223999,0.0311279
-0.0224609,0.0244141
-0.022522,0.00976563
-0.022644,-0.00183105
-0.0227051,-0.00549316
-0.022522,-0.00610352
-0.022522,-0.0012207
-0.022583,0.00305176
-0.0227051,0.00549316
-0.022644,0.00549316
-0.0224609,0.00854492
-0.0223999,0.00915527
-0.0224609,0.0109863
-0.022583,0.0140381
-0.022583,0.00915527
-0.0224609,0.00549316
-0.022522,0.00244141
-0.0227051,0.0012207
-0.0228882,0.00427246
-0.0228271,0.00732422
-0.022522,0.00854492
-0.0224609,0.00976563
-0.0224609,0.0115967
-0.022644,0.0152588
-0.022644,0.0177002
-0.022583,0.0195313
-0.022522,0.0195313
-0.022583,0.020752
-0.0228271,0.0256348
-0.0228882,0.0256348
-0.0227661,0.0231934
-0.0227051,0.0146484
-0.0227051,0.00976563
-0.0228271,0.00732422
-0.0228271,0.010376
-0.0227051,0.012207
-0.0227051,0.0109863
-0.0228271,0.00793457
-0.0229492,0.00854492
-0.0229492,0.00610352
-0.0227051,0.00732422
-0.0227051,0.00549316
-0.0228271,0.00610352
-0.0230713,0.00610352
-0.0230713,0.00244141
-0.0229492,-0.00732422
-0.0228882,-0.0152588
-0.0229492,-0.0195313
-0.0230713,-0.00793457
-0.0230713,0.000610352
-0.0229492,0.00976563
-0.0229492,0.00976563
-0.0230713,0.00427246
-0.0233154,0.0012207
-0.0233154,0.00305176
-0.0231934,0.00549316
-0.0231323,0.00366211
-0.0231934,-0.00488281
-0.0234985,-0.0146484
-0.0235596,-0.0244141
-0.0234375,-0.0256348
-0.0233765,-0.0189209
-0.0234375,-0.00915527
-0.0235596,-0.00244141
-0.0237427,0.00549316
-0.0236816,0.00305176
-0.0236816,-0.00183105
-0.0238037,-0.00549316
-0.0239868,-0.0012207
-0.0240479,0.00427246
-0.0239258,0.012207
-0.0239258,0.0146484
-0.0240479,0.00488281
-0.0241699,-0.0115967
-0.024231,-0.0250244
-0.0239868,-0.0311279
-0.0239258,-0.0286865
-0.0240479,-0.0164795
-0.024231,-0.00305176
-0.024353,0.00854492
-0.0241699,0.00671387
-0.0241699,0.00183105
-0.024231,-0.00732422
-0.0244141,-0.0146484
-0.0244751,-0.0189209
-0.024353,-0.0177002
-0.024292,-0.0109863
-0.024353,-0.00305176
-0.0244751,0.00610352
-0.0244141,0.00976563
-0.024292,0.00671387
-0.024353,-0.00549316
-0.0244751,-0.0170898
-0.0246582,-0.0244141
-0.0246582,-0.0274658
-0.0244141,-0.0280762
-0.0244141,-0.0244141
-0.0245972,-0.0195313
-0.0247803,-0.0268555
-0.0247803,-0.0317383
-0.0245972,-0.0372314
-0.024353,-0.0354004
-0.0244141,-0.0256348
-0.0245972,-0.0140381
-0.0246582,-0.00549316
-0.0244751,-0.00610352
-0.0244141,-0.00549316
-0.0244141,-0.00427246
-0.0245361,-0.00305176
-0.0245972,-0.000610352
-0.024353,-0.00610352
-0.024292,-0.0128174
-0.0241699,-0.0164795
-0.024231,-0.0177002
-0.024231,-0.0177002
-0.0240479,-0.0158691
-0.0241089,-0.0164795
-0.0241699,-0.0140381
-0.024353,-0.0109863
-0.024353,-0.012207
-0.0241699,-0.0189209
-0.0241089,-0.0250244
-0.0241699,-0.0256348
-0.024292,-0.0140381
-0.024292,-0.0012207
-0.0241089,0.00793457
-0.0241089,0.00366211
-0.0241699,-0.00488281
-0.024292,-0.00915527
-0.024231,-0.00854492
-0.0239258,-0.00488281
-0.0238647,-0.00183105
-0.0239258,-0.00610352
-0.0240479,-0.00183105
-0.0240479,-0.0012207
-0.0238647,-0.000610352
-0.0237427,-0.00427246
-0.0238037,-0.0115967
-0.0238647,-0.0164795
-0.0237427,-0.0213623
-0.0234985,-0.0189209
-0.0234375,-0.0183105
-0.0234985,-0.0170898
-0.0236206,-0.0115967
-0.0235596,-0.00793457
-0.0232544,0.0012207
-0.0230713,0.00732422
-0.0231323,0.0219727
-0.0233154,0.032959
-0.0233154,0.0366211
-0.0230103,0.0341797
-0.0228271,0.0231934
-0.0227661,0.00244141
-0.0229492,-0.0183105
-0.0230713,-0.0299072
-0.0229492,-0.0366211
-0.0228271,-0.03479
-0.022644,-0.0262451
-0.022583,-0.0164795
-0.0224609,-0.0115967
-0.0222168,0.0
-0.0221558,0.00366211
-0.0220947,0.00488281
-0.0222168,0.0152588
-0.0221558,0.0201416
-0.0219727,0.0195313
-0.0219116,0.0195313
-0.0219727,0.0128174
-0.0220337,0.00244141
-0.0219116,0.00183105
-0.0216064,-0.00183105
-0.0214233,-0.00610352
-0.0213623,-0.00610352
-0.0215454,-0.00305176
-0.0216064,0.00305176
-0.0213013,0.00854492
-0.0211792,0.00915527
-0.0210571,0.00732422
-0.0211182,0.00793457
-0.0209961,0.00793457
-0.020874,0.010376
-0.020874,0.00915527
-0.020874,0.00671387
-0.0209351,0.00488281
-0.020813,0.00488281
-0.0204468,0.00366211
-0.0202637,0.00183105
-0.0202026,0.00244141
-0.0203857,0.00183105
-0.0203247,0.00488281
-0.0200806,0.010376
-0.0197754,0.0152588
-0.0197144,0.0183105
-0.0198975,0.0140381
-0.0199585,0.00305176
-0.0198364,-0.012207
-0.0197144,-0.020752
-0.0195923,-0.0195313
-0.0197144,-0.0115967
-0.0197144,0.0012207
-0.0195313,0.00610352
-0.0194092,0.00488281
-0.0192871,0.00305176
-0.0192871,-0.0012207
-0.019165,-0.00793457
-0.0188599,-0.0140381
-0.0187378,-0.0238037
-0.0187378,-0.0299072
-0.0188599,-0.0280762
-0.0187988,-0.0244141
-0.0184937,-0.0189209
-0.0183105,-0.0134277
-0.0183105,-0.0128174
-0.0184326,-0.00671387
-0.0184326,0.0012207
-0.0181274,0.00793457
-0.0180664,0.0177002
-0.0180054,0.022583
-0.0181885,0.0238037
-0.0181885,0.0195313
-0.0180054,0.00915527
-0.0178223,-0.00244141
-0.0177612,-0.0128174
-0.0178223,-0.0164795
-0.0177002,-0.0134277
-0.0175171,-0.00549316
-0.017334,-0.000610352
-0.017334,0.00305176
-0.0174561,0.0
-0.0174561,-0.00488281
-0.0172729,-0.00793457
-0.0171509,-0.00549316
-0.0172119,-0.00183105
-0.0172119,0.00244141
-0.0170898,0.00427246
-0.0167847,0.00488281
-0.0166016,0.012207
-0.0166626,0.0170898
-0.0168457,0.0189209
-0.0169067,0.0158691
-0.0166626,0.00366211
-0.0164795,-0.00610352
-0.0164185,-0.0128174
-0.0164795,-0.010376
-0.0166016,-0.00610352
-0.0164185,0.00183105
-0.0163574,0.00793457
-0.0163574,0.0115967
-0.0164185,0.0115967
-0.0164185,0.00305176
-0.0161133,-0.00244141
-0.0160522,-0.010376
-0.0161133,-0.0140381
-0.0163574,-0.0152588
-0.0162964,-0.0152588
-0.0161133,-0.0134277
-0.0159912,-0.00793457
-0.0159912,-0.00427246
-0.0161743,0.0
-0.0162354,-0.00610352
-0.0159912,-0.0158691
-0.0159912,-0.0170898
-0.0160522,-0.0115967
-0.0162354,-0.00427246
-0.0162964,0.00549316
-0.0159912,0.00610352
-0.0158081,-0.0012207
-0.0157471,-0.0195313
-0.0157471,-0.0244141
-0.015625,-0.0219727
-0.0154419,-0.0152588
-0.0155029,-0.00915527
-0.015564,-0.00549316
-0.0157471,-0.00915527
-0.0159302,-0.0115967
-0.015686,-0.00671387
-0.015625,-0.00305176
-0.015564,0.00305176
-0.015564,0.0115967
-0.0154419,0.0152588
-0.0152588,0.0183105
-0.0151978,0.020752
-0.0152588,0.0195313
-0.0154419,0.0231934
-0.0153809,0.0292969
-0.0151367,0.0256348
-0.0150757,0.0158691
-0.0151367,0.00793457
-0.0151978,0.0
-0.0152588,0.00305176
-0.0150757,0.00488281
-0.0149536,0.00671387
-0.0150146,0.00793457
-0.0150146,0.00732422
-0.0150757,0.0140381
-0.0149536,0.0158691
-0.0149536,0.0115967
-0.0150146,0.00305176
-0.0150757,0.0
-0.0150146,0.00427246
-0.0147095,0.00854492
-0.0145264,0.00610352
-0.0145264,-0.00488281
-0.0146484,-0.0134277
-0.0147095,-0.0170898
-0.0145264,-0.0140381
-0.0143433,-0.00854492
-0.0143433,-0.00305176
-0.0144653,0.00183105
-0.0144653,0.0109863
-0.0143433,0.0164795
-0.0143433,0.0140381
-0.0142822,0.00305176
-0.0142212,-0.00549316
-0.0140991,-0.010376
-0.0137939,-0.00793457
-0.0137939,0.00183105
-0.0137939,0.00671387
-0.013916,0.012207
-0.0137939,0.010376
-0.0136108,0.000610352
-0.0135498,-0.00671387
-0.0136719,-0.00915527
-0.013855,-0.00976563
-0.013855,-0.00488281
-0.0136719,-0.000610352
-0.0135498,-0.00549316
-0.0135498,-0.012207
-0.0136719,-0.0164795
-0.0136108,-0.0152588
-0.0134277,-0.00488281
-0.0133667,0.00183105
-0.0133057,0.010376
-0.0133667,0.0158691
-0.0133667,0.00976563
-0.0132446,0.00610352
-0.0133057,-0.00183105
-0.0133667,-0.00854492
-0.0134888,-0.00549316
-0.0134277,-0.00244141
-0.0131836,0.0012207
-0.0131836,0.00488281
-0.0131836,0.00183105
-0.0132446,0.00244141
-0.0132446,-0.000610352
-0.0130615,-0.00549316
-0.0130005,-0.00793457
-0.0132446,-0.012207
-0.0134277,-0.0115967
-0.0134277,-0.00793457
-0.0131226,-0.00549316
-0.0129395,0.00305176
-0.0129395,0.00366211
-0.0130615,0.0012207
-0.0131226,0.00183105
-0.0129395,-0.00244141
-0.0128174,-0.00305176
-0.0127563,-0.00549316
-0.0128784,-0.010376
-0.0129395,-0.0152588
-0.0128174,-0.0195313
-0.0128174,-0.0146484
-0.0129395,-0.00793457
-0.0130615,-0.000610352
-0.0130005,0.00366211
-0.0126953,0.00183105
-0.0125122,-0.00244141
-0.0125122,-0.0109863
-0.0125732,-0.0109863
-0.0125732,-0.000610352
-0.0124512,0.00671387
-0.0123291,0.0164795
-0.0123291,0.0262451
-0.0123901,0.0317383
-0.0123291,0.0299072
-0.012207,0.0201416
-0.012146,0.00793457
-0.012207,-0.00366211
-0.0123291,-0.00976563
-0.012207,-0.00183105
-0.0119629,0.00305176
-0.0119019,0.00793457
-0.0120239,0.00976563
-0.012207,0.0109863
-0.012207,0.0134277
-0.0119019,0.0170898
-0.0117188,0.0244141
-0.0117798,0.0268555
-0.0119019,0.0262451
-0.0119019,0.0183105
-0.0117188,0.00854492
-0.0115967,-0.00305176
-0.0115967,-0.010376
-0.0116577,-0.010376
-0.0116577,-0.0109863
-0.0114746,-0.010376
-0.0115356,-0.00976563
-0.0116577,-0.0115967
-0.0118408,-0.00976563
-0.0117798,-0.00305176
-0.0114746,0.00610352
-0.0112915,0.0146484
-0.0113525,0.0164795
-0.0114746,0.0158691
-0.0114746,0.00427246
-0.0111694,-0.00915527
-0.0109863,-0.0219727
-0.0109253,-0.0250244
-0.0110474,-0.0213623
-0.0110474,-0.00976563
-0.0108643,0.00183105
-0.0108032,0.00549316
-0.0108643,0.00183105
-0.0109253,-0.00244141
-0.0109863,-0.00793457
-0.0108032,-0.0128174
-0.0106812,-0.0152588
-0.0106201,-0.0189209
-0.0106201,-0.0231934
-0.010498,-0.020752
-0.0103149,-0.0201416
-0.010376,-0.0128174
-0.010437,-0.00671387
-0.010498,-0.00549316
-0.010437,-0.00549316
-0.0101929,-0.00915527
-0.0100708,-0.012207
-0.0100708,-0.0128174
-0.0101318,-0.00549316
-0.0100708,0.00366211
-0.0098877,0.0128174
-0.0098877,0.0109863
-0.00994873,0.00915527
-0.0101318,0.0128174
-0.0100708,0.00854492
-0.00976563,0.00915527
-0.00964355,0.00610352
-0.00976563,-0.00427246
-0.0098877,-0.00488281
-0.0098877,0.00305176
-0.00964355,0.0109863
-0.00964355,0.0146484
-0.00970459,0.0134277
-0.00994873,0.0012207
-0.0098877,-0.00732422
-0.00964355,-0.00793457
-0.00952148,-0.00732422
-0.00958252,-0.00244141
-0.00976563,0.00427246
-0.00976563,0.00366211
-0.00958252,0.00305176
-0.00952148,0.00488281
-0.00964355,0.00427246
-0.00982666,-0.0012207
-0.00976563,-0.000610352
-0.00958252,-0.00183105
-0.00958252,-0.00366211
-0.00964355,-0.00305176
-0.00982666,-0.0109863
-0.00982666,-0.0183105
-0.00964355,-0.0189209
-0.00964355,-0.0146484
-0.0098877,-0.012207
-0.0101929,-0.00976563
-0.0102539,-0.00854492
-0.0100708,-0.00915527
-0.0100098,-0.00610352
-0.0100708,0.00427246
-0.0101929,0.00915527
-0.0101929,0.00488281
-0.00994873,-0.00427246
-0.0098877,-0.00854492
-0.0100098,-0.012207
-0.0102539,-0.00183105
-0.010376,0.0109863
-0.0102539,0.0140381
-0.0101318,0.00854492
-0.0103149,0.00183105
-0.010437,0.00610352
-0.0105591,0.0189209
-0.0103149,0.0292969
-0.0102539,0.0335693
-0.0102539,0.0213623
-0.010376,-0.0012207
-0.010498,-0.0201416
-0.010376,-0.0244141
-0.010437,-0.0195313
-0.010498,-0.00610352
-0.0105591,0.010376
-0.0106201,0.0152588
-0.010498,0.0164795
-0.0105591,0.0115967
-0.0107422,0.00732422
-0.0109253,0.00549316
-0.0108643,0.00610352
-0.0106201,0.0115967
-0.010498,0.0140381
-0.010498,0.00915527
-0.010498,-0.000610352
-0.010437,-0.00366211
-0.0101929,-0.00549316
-0.0101318,0.00366211
-0.0103149,0.00915527
-0.0105591,0.0115967
-0.0106201,0.00671387
-0.0105591,0.00183105
-0.0105591,-0.00305176
-0.0105591,-0.00244141
-0.0106812,0.00244141
-0.0106201,0.0115967
-0.010376,0.0244141
-0.010376,0.03479
-0.010437,0.0390625
-0.010498,0.0335693
-0.010498,0.0231934
-0.0103149,0.0158691
-0.010376,0.0170898
-0.010498,0.0195313
-0.0106201,0.0195313
-0.0106201,0.0158691
-0.010376,0.00671387
-0.010376,-0.000610352
-0.010437,0.000610352
-0.0106201,0.00427246
-0.0106812,0.0158691
-0.010437,0.0256348
-0.010376,0.0366211
-0.010376,0.0378418
-0.010498,0.0311279
-0.010437,0.0189209
-0.0103149,0.00610352
-0.0103149,-0.000610352
-0.010376,0.00183105
-0.0105591,0.00488281
-0.010498,0.0115967
-0.010376,0.0189209
-0.010437,0.0183105
-0.0106812,0.00915527
-0.0109253,0.00244141
-0.0109253,-0.00854492
-0.0106812,-0.00671387
-0.0105591,-0.00366211
-0.0105591,-0.00488281
-0.0106812,-0.012207
-0.0106812,-0.0213623
-0.0105591,-0.0244141
-0.0105591,-0.0128174
-0.0106201,0.00793457
-0.0108032,0.0189209
-0.0108643,0.0219727
-0.0107422,0.0164795
-0.0107422,0.00732422
-0.0108032,0.00671387
-0.0108032,0.0164795
-0.0107422,0.0219727
-0.010437,0.0231934
-0.010437,0.0164795
-0.0105591,0.00244141
-0.0108032,-0.012207
-0.0108032,-0.0213623
-0.0106201,-0.0231934
-0.0105591,-0.0152588
-0.0106201,-0.00488281
-0.0108643,0.00549316
-0.0108643,0.00854492
-0.0106812,0.00427246
-0.0106812,0.0012207
-0.0106812,-0.00244141
-0.0109253,0.000610352
-0.0109863,0.00488281
-0.0108643,0.00915527
-0.0108032,0.00610352
-0.0108643,0.00488281
-0.0109863,0.00183105
-0.0109863,0.00366211
-0.0108032,0.00793457
-0.0107422,0.0140381
-0.0108032,0.0152588
-0.0109863,0.0183105
-0.0109253,0.0158691
-0.0108643,0.0152588
-0.0108643,0.00610352
-0.0109863,-0.00610352
-0.0111694,-0.0128174
-0.0111084,-0.0115967
-0.0109253,-0.00366211
-0.0108643,0.00671387
-0.0109253,0.0128174
-0.0110474,0.0152588
-0.0110474,0.0158691
-0.0108643,0.0158691
-0.0108032,0.0158691
-0.0108643,0.010376
-0.0109863,0.00183105
-0.0110474,-0.00244141
-0.0109253,0.00305176
-0.0111084,0.00610352
-0.0113525,0.010376
-0.0114746,0.00915527
-0.0114136,0.00671387
-0.0111694,0.00427246
-0.0110474,0.00244141
-0.0112305,-0.000610352
-0.0115356,-0.00549316
-0.0114746,-0.00671387
-0.0112305,-0.00488281
-0.0111084,-0.0012207
-0.0111694,-0.00244141
-0.0114136,-0.00854492
-0.0114746,-0.0158691
-0.0113525,-0.0195313
-0.0112915,-0.0152588
-0.0113525,-0.00915527
-0.0114746,-0.00427246
-0.0114746,0.00366211
-0.0112305,0.0140381
-0.0111694,0.0238037
-0.0112915,0.0292969
-0.0114746,0.0292969
-0.0114746,0.0213623
-0.0112305,0.00793457
-0.0111694,-0.00366211
-0.0112915,-0.00671387
-0.0114746,-0.00793457
-0.0115356,-0.00549316
-0.0114136,-0.00366211
-0.0114136,-0.00610352
-0.0114746,-0.00915527
-0.0115356,-0.00915527
-0.0115356,-0.00671387
-0.0113525,-0.00366211
-0.0113525,0.00549316
-0.0114136,0.0146484
-0.0115356,0.0250244
-0.0115356,0.032959
-0.0113525,0.0317383
-0.0112915,0.0238037
-0.0113525,0.0140381
-0.0115967,0.00671387
-0.0115967,0.0012207
-0.0115356,0.00366211
-0.0115356,0.00671387
-0.0115967,0.0134277
-0.0117188,0.0177002
-0.0117798,0.0128174
-0.0116577,-0.00244141
-0.0117188,-0.020752
-0.0117798,-0.0292969
-0.0119019,-0.0195313
-0.0119629,0.000610352
-0.0117798,0.0158691
-0.0119019,0.0256348
-0.0119629,0.0256348
-0.012207,0.0244141
-0.012146,0.0268555
-0.0119629,0.0280762
-0.0120239,0.0292969
-0.012146,0.0219727
-0.0125122,0.0164795
-0.0125732,0.0115967
-0.0124512,0.0146484
-0.0125122,0.0244141
-0.0126343,0.0366211
-0.0127563,0.0445557
-0.0128784,0.0354004
-0.0128174,0.00976563
-0.0128784,-0.0115967
-0.0130615,-0.020752
-0.0132446,-0.0128174
-0.0133057,0.000610352
-0.0132446,0.00854492
-0.0133667,0.00183105
-0.0135498,-0.00427246
-0.0136719,-0.00732422
-0.0136719,-0.00305176
-0.0134277,0.00671387
-0.0134888,0.00732422
-0.0136719,0.00549316
-0.013855,0.0012207
-0.0140381,-0.00549316
-0.013916,-0.012207
-0.0139771,-0.0152588
-0.0142212,-0.0115967
-0.0144653,-0.00732422
-0.0144653,-0.0012207
-0.0142822,0.00488281
-0.0142212,0.00671387
-0.0142822,0.00427246
-0.0145264,0.00244141
-0.0146484,-0.00671387
-0.0145264,-0.0183105
-0.0145874,-0.022583
-0.0146484,-0.0244141
-0.0148315,-0.0170898
-0.0148315,-0.00488281
-0.0146484,0.00305176
-0.0145874,0.00305176
-0.0147705,0.000610352
-0.0149536,0.000610352
-0.0150757,-0.000610352
-0.0150146,0.0
-0.0150757,-0.00305176
-0.0151978,-0.00549316
-0.0153198,0.000610352
-0.0152588,0.010376
-0.0150757,0.0152588
-0.0151367,0.0134277
-0.0151978,0.00183105
-0.0153809,-0.00427246
-0.0153809,-0.00671387
-0.0151367,-0.000610352
-0.0150757,0.00610352
-0.0152588,0.00793457
-0.015564,0.00854492
-0.015625,0.00793457
-0.0155029,0.00671387
-0.015564,0.00488281
-0.015564,0.00915527
-0.015625,0.0128174
-0.015686,0.0170898
-0.0155029,0.0164795
-0.0154419,0.0152588
-0.015564,0.0115967
-0.015686,0.00915527
-0.015686,0.0109863
-0.015625,0.0109863
-0.015625,0.0146484
-0.0157471,0.0134277
-0.0159302,0.012207
-0.0159302,0.00732422
-0.0157471,0.00610352
-0.015686,0.00732422
-0.015686,0.0109863
-0.0158691,0.0170898
-0.0158691,0.0134277
-0.0158691,0.00488281
-0.0158691,0.00183105
-0.0159912,0.00549316
-0.0161133,0.0177002
-0.0161133,0.0231934
-0.0159302,0.0231934
-0.0159912,0.0170898
-0.0159912,0.0134277
-0.0161133,0.0201416
-0.0161133,0.03479
-0.0159912,0.0366211
-0.0159302,0.0280762
-0.0161133,0.0158691
-0.0162964,0.00549316
-0.0162964,0.00549316
-0.0161133,0.012207
-0.0160522,0.0128174
-0.0160522,0.0115967
-0.0162354,0.00915527
-0.0162964,0.012207
-0.0162354,0.022583
-0.0162354,0.03479
-0.0163574,0.045166
-0.0166016,0.045166
-0.0167236,0.043335
-0.0165405,0.0366211
-0.0165405,0.0268555
-0.0164795,0.0183105
-0.0165405,0.0128174
-0.0164185,0.0128174
-0.0162354,0.0170898
-0.0161743,0.0231934
-0.0162964,0.0311279
-0.0165405,0.0292969
-0.0167236,0.020752
-0.0166016,0.0109863
-0.0166626,0.0012207
-0.0167236,-0.00366211
-0.0168457,0.0
-0.0169067,0.0109863
-0.0166626,0.0158691
-0.0166626,0.0250244
-0.0166626,0.0286865
-0.0167236,0.0274658
-0.0166626,0.020752
-0.0165405,0.00854492
-0.0166016,0.000610352
-0.0167847,-0.00244141
-0.0169067,0.00366211
-0.0169067,0.0109863
-0.0166626,0.012207
-0.0165405,0.00671387
-0.0166626,-0.00305176
-0.0167847,-0.0134277
-0.0168457,-0.0128174
-0.0166626,-0.00915527
-0.0166626,0.0
-0.0167236,0.00305176
-0.0168457,0.0
-0.0167847,-0.00549316
-0.0166016,-0.00793457
-0.0165405,-0.00732422
-0.0166016,0.00183105
-0.0168457,0.0128174
-0.0169678,0.0183105
-0.0168457,0.0274658
-0.0167847,0.0256348
-0.0168457,0.0262451
-0.0169678,0.0195313
-0.0169678,0.012207
-0.0167847,0.00671387
-0.0167236,0.00427246
-0.0168457,0.00793457
-0.0170898,0.0158691
-0.0171509,0.0262451
-0.0169067,0.0268555
-0.0168457,0.020752
-0.0169067,0.0170898
-0.0170898,0.0140381
-0.0171509,0.0152588
-0.0169067,0.0189209
-0.0167236,0.0231934
-0.0167236,0.0219727
-0.0169678,0.0183105
-0.0170288,0.0140381
-0.0169067,0.00427246
-0.0168457,-0.00671387
-0.0168457,-0.0128174
-0.0169678,-0.00427246
-0.0169678,0.0109863
-0.0167236,0.0292969
-0.0166016,0.0384521
-0.0166016,0.03479
-0.0168457,0.0238037
-0.0169067,0.012207
-0.0168457,0.00915527
-0.0167847,0.0128174
-0.0168457,0.0219727
-0.0169678,0.0280762
-0.0169067,0.0262451
-0.0167236,0.0213623
-0.0167236,0.0189209
-0.0167847,0.0170898
-0.0170288,0.020752
-0.0172119,0.0238037
-0.0170288,0.0299072
-0.0170898,0.0354004
-0.0170898,0.0421143
-0.0172119,0.045166
-0.0171509,0.0408936
-0.0169678,0.0256348
-0.0169678,0.0189209
-0.0170288,0.0140381
-0.0171509,0.0183105
-0.0171509,0.0213623
-0.0169067,0.0238037
-0.0169067,0.0213623
-0.0170288,0.0164795
-0.017334,0.00976563
-0.0175171,-0.0012207
-0.017395,-0.0134277
-0.017334,-0.0146484
-0.0172729,-0.00732422
-0.017395,0.00671387
-0.0174561,0.0177002
-0.017334,0.0183105
-0.017395,0.0109863
-0.0175781,0.00305176
-0.0178223,0.000610352
-0.0178833,0.0012207
-0.0177612,-0.00183105
-0.0177612,-0.000610352
-0.0177612,-0.00305176
-0.0178833,0.00305176
-0.0178833,0.00854492
-0.0176392,0.0170898
-0.0177002,0.0201416
-0.0178223,0.0195313
-0.0181274,0.0146484
-0.0182495,0.0128174
-0.0180664,0.010376
-0.0180664,0.00793457
-0.0180664,0.012207
-0.0182495,0.0128174
-0.0183105,0.0152588
-0.0181885,0.0201416
-0.0182495,0.0280762
-0.0184326,0.0396729
-0.0187378,0.0439453
-0.0187988,0.0402832
-0.0186157,0.0311279
-0.0184326,0.0152588
-0.0183105,0.00366211
-0.0184937,0.00610352
-0.0185547,0.0158691
-0.0185547,0.0292969
-0.0186157,0.0415039
-0.0186768,0.043335
-0.0188599,0.032959
-0.0189819,0.0189209
-0.0189209,0.00488281
-0.0189819,0.0
-0.019043,0.00610352
-0.019043,0.0164795
-0.0189209,0.0231934
-0.0186768,0.022583
-0.0186768,0.022583
-0.0188599,0.0170898
-0.019043,0.0189209
-0.019165,0.0213623
-0.0189819,0.0201416
-0.0189209,0.0170898
-0.019043,0.0177002
-0.019104,0.0134277
-0.019165,0.00915527
-0.019043,0.00671387
-0.019043,0.00366211
-0.019165,0.00610352
-0.0193481,0.010376
-0.019165,0.0134277
-0.0189209,0.010376
-0.0188599,0.00793457
-0.019043,0.00976563
-0.0192871,0.0170898
-0.0193481,0.0262451
-0.0192261,0.0274658
-0.019043,0.0250244
