-0.00408936,-0.657654
-0.00378418,-0.669861
-0.00366211,-0.672913
-0.00354004,-0.662231
-0.00335693,-0.645447
-0.00299072,-0.636292
-0.00280762,-0.637817
-0.00286865,-0.643921
-0.00274658,-0.640869
-0.00250244,-0.63324
-0.00201416,-0.627136
-0.00170898,-0.627136
-0.00152588,-0.62561
-0.00146484,-0.622559
-0.0012207,-0.614929
-0.000915527,-0.610352
-0.000671387,-0.608826
-0.000732422,-0.614929
-0.000610352,-0.621033
-0.000427246,-0.614929
-6.10352,-0.614929
6.10352,-0.617981
0.000244141,-0.619507
0.000366211,-0.627136
0.000610352,-0.637817
0.000976563,-0.646973
0.00109863,-0.650024
0.00109863,-0.648499
0.00115967,-0.643921
0.00146484,-0.640869
0.00183105,-0.642395
0.0020752,-0.654602
0.0020752,-0.65918
0.00219727,-0.656128
0.00238037,-0.65155
0.00262451,-0.643921
0.00274658,-0.645447
0.00274658,-0.648499
0.00286865,-0.65155
0.00317383,-0.653076
0.00354004,-0.656128
0.00372314,-0.660706
0.00366211,-0.65918
0.00378418,-0.65155
0.00396729,-0.634766
0.00427246,-0.621033
0.00445557,-0.619507
0.00439453,-0.628662
0.00390625,-0.637817
0.00402832,-0.637817
0.00354004,-0.634766
0.00384521,-0.619507
0.00408936,-0.614929
0.00457764,-0.616455
0.00531006,-0.619507
0.00592041,-0.628662
0.00604248,-0.630188
0.00585938,-0.631714
0.00585938,-0.621033
0.00598145,-0.617981
0.00622559,-0.622559
0.00634766,-0.634766
0.00628662,-0.654602
0.00628662,-0.663757
0.00653076,-0.657654
0.00695801,-0.650024
0.00714111,-0.645447
0.00708008,-0.642395
0.00695801,-0.646973
0.00708008,-0.640869
0.00726318,-0.634766
0.00744629,-0.627136
0.00744629,-0.624084
0.00750732,-0.630188
0.00762939,-0.640869
0.00787354,-0.653076
0.00799561,-0.662231
0.00787354,-0.663757
0.00799561,-0.656128
0.00817871,-0.645447
0.00848389,-0.640869
0.00848389,-0.640869
0.00830078,-0.648499
0.00817871,-0.650024
0.00836182,-0.648499
0.00872803,-0.637817
0.0090332,-0.63324
0.0090332,-0.627136
0.00909424,-0.627136
0.00921631,-0.631714
0.00952148,-0.63324
0.00952148,-0.631714
0.00952148,-0.631714
0.00964355,-0.628662
0.00994873,-0.627136
0.0103149,-0.634766
0.010437,-0.634766
0.0100098,-0.630188
0.0098877,-0.62561
0.00970459,-0.619507
0.0100098,-0.622559
0.0103149,-0.63324
0.0103149,-0.642395
0.010376,-0.646973
0.010498,-0.645447
0.0106201,-0.637817
0.0107422,-0.637817
0.0106201,-0.642395
0.0106201,-0.643921
0.0106812,-0.650024
0.0108032,-0.646973
0.0108032,-0.642395
0.0107422,-0.637817
0.0108643,-0.630188
0.0110474,-0.624084
0.0112305,-0.624084
0.0113525,-0.627136
0.0111084,-0.63324
0.0109863,-0.637817
0.0111084,-0.640869
0.0113525,-0.642395
0.0114746,-0.643921
0.0114136,-0.648499
0.0113525,-0.65155
0.0114136,-0.656128
0.0115967,-0.657654
0.0116577,-0.650024
0.0115967,-0.639343
0.0116577,-0.624084
0.0119019,-0.619507
0.012207,-0.630188
0.0123291,-0.643921
0.012207,-0.653076
0.012085,-0.657654
0.012207,-0.65155
0.0124512,-0.643921
0.0126343,-0.643921
0.0126953,-0.645447
0.0127563,-0.645447
0.0128784,-0.642395
0.0130615,-0.640869
0.0131226,-0.636292
0.0130615,-0.637817
0.0131226,-0.636292
0.0132446,-0.63324
0.0134888,-0.634766
0.0134277,-0.637817
0.0130005,-0.645447
0.0128784,-0.645447
0.0130615,-0.642395
0.0136719,-0.637817
0.0140991,-0.637817
0.0143433,-0.643921
0.0144043,-0.65155
0.0144653,-0.65155
0.0148926,-0.642395
0.0152588,-0.631714
0.0153198,-0.619507
0.0154419,-0.611877
0.015625,-0.6073
0.0158081,-0.608826
0.0157471,-0.613403
0.0158081,-0.622559
0.0158691,-0.630188
0.0161133,-0.630188
0.0165405,-0.627136
0.0167236,-0.622559
0.0166626,-0.617981
0.0167236,-0.617981
0.0169067,-0.627136
0.0171509,-0.637817
0.017334,-0.640869
0.0172729,-0.636292
0.0168457,-0.621033
0.0171509,-0.604248
0.0169067,-0.601196
0.017334,-0.604248
0.0172729,-0.619507
0.0171509,-0.634766
0.0169678,-0.639343
0.0172729,-0.636292
0.0176392,-0.624084
0.0179443,-0.614929
0.0183105,-0.608826
0.0179443,-0.621033
0.0177002,-0.636292
0.0174561,-0.650024
0.017334,-0.662231
0.0178223,-0.666809
0.0182495,-0.669861
0.019104,-0.656128
0.0197754,-0.640869
0.0201416,-0.63324
0.0206299,-0.627136
0.0210571,-0.636292
0.0214233,-0.643921
0.0215454,-0.646973
0.0209961,-0.643921
0.020752,-0.637817
0.0206299,-0.631714
0.0209961,-0.627136
0.0214233,-0.619507
0.0214844,-0.617981
0.0213013,-0.622559
0.0210571,-0.631714
0.0205688,-0.639343
0.0205688,-0.643921
0.020874,-0.639343
0.0215454,-0.627136
0.0222168,-0.616455
0.0229492,-0.613403
0.0231934,-0.611877
0.0230713,-0.619507
0.0229492,-0.63324
0.0230103,-0.643921
0.0231934,-0.653076
0.0234375,-0.65918
0.0233765,-0.657654
0.0234375,-0.650024
0.0234985,-0.645447
0.0236816,-0.65155
0.0238037,-0.65918
0.0236816,-0.668335
0.0236816,-0.668335
0.0238647,-0.654602
0.0241089,-0.634766
0.024353,-0.617981
0.024292,-0.604248
0.024292,-0.601196
0.024292,-0.6073
0.024353,-0.614929
0.0244751,-0.619507
0.0244751,-0.622559
0.0245972,-0.619507
0.0247803,-0.611877
0.0249023,-0.611877
0.0250244,-0.613403
0.0248413,-0.622559
0.0249023,-0.637817
0.0250244,-0.648499
0.0253296,-0.654602
0.0254517,-0.643921
0.0254517,-0.628662
0.0255127,-0.617981
0.0255127,-0.610352
0.0256958,-0.614929
0.0256958,-0.628662
0.0255737,-0.634766
0.0256348,-0.63324
0.0256958,-0.624084
0.0258179,-0.614929
0.0257568,-0.610352
0.0255737,-0.611877
0.0255127,-0.617981
0.0256348,-0.621033
0.0258179,-0.62561
0.0258789,-0.630188
0.0256348,-0.636292
0.0255737,-0.636292
0.0255737,-0.628662
0.0257568,-0.624084
0.0258789,-0.616455
0.0256348,-0.611877
0.0256348,-0.6073
0.0256958,-0.608826
0.0258789,-0.616455
0.026001,-0.628662
0.0259399,-0.636292
0.026123,-0.642395
0.0262451,-0.640869
0.0264893,-0.639343
0.0265503,-0.636292
0.0264282,-0.630188
0.0264282,-0.621033
0.0266724,-0.611877
0.0269165,-0.608826
0.0269775,-0.616455
0.0267944,-0.624084
0.0266113,-0.634766
0.0265503,-0.642395
0.0265503,-0.640869
0.0266113,-0.640869
0.0264893,-0.636292
0.0264282,-0.63324
0.0265503,-0.627136
0.0267944,-0.624084
0.0266724,-0.621033
0.0264282,-0.622559
0.0262451,-0.62561
0.0263062,-0.634766
0.0264282,-0.648499
0.0264282,-0.653076
0.0261841,-0.65155
0.026001,-0.648499
0.0258179,-0.642395
0.0258789,-0.642395
0.0258179,-0.646973
0.0256348,-0.648499
0.0255737,-0.646973
0.0255737,-0.639343
0.0256348,-0.634766
0.0254517,-0.636292
0.0250854,-0.639343
0.0249023,-0.645447
0.0249634,-0.654602
0.0250244,-0.65918
0.0249634,-0.657654
0.0246582,-0.654602
0.024353,-0.650024
0.0241699,-0.643921
0.0241699,-0.645447
0.0241699,-0.639343
0.0239258,-0.631714
0.0238647,-0.624084
0.0238647,-0.627136
0.0239258,-0.631714
0.0237427,-0.637817
0.0233765,-0.63324
0.0231323,-0.627136
0.0230103,-0.621033
0.0229492,-0.622559
0.0227661,-0.631714
0.0224609,-0.639343
0.0223999,-0.642395
0.0224609,-0.645447
0.022522,-0.642395
0.0224609,-0.643921
0.0221558,-0.645447
0.0219727,-0.645447
0.0220337,-0.645447
0.0220337,-0.645447
0.0219727,-0.640869
0.0216675,-0.643921
0.0215454,-0.645447
0.0216064,-0.650024
0.0216675,-0.657654
0.0217285,-0.657654
0.0214844,-0.650024
0.0214233,-0.643921
0.0214233,-0.639343
0.0214233,-0.642395
0.0213013,-0.650024
0.0210571,-0.654602
0.0209351,-0.653076
0.0209961,-0.648499
0.0211792,-0.639343
0.0211182,-0.630188
0.020752,-0.631714
0.0205688,-0.634766
0.0205078,-0.639343
0.0205078,-0.642395
0.0203857,-0.639343
0.0200806,-0.639343
0.0198364,-0.634766
0.0197144,-0.630188
0.0196533,-0.62561
0.0194702,-0.617981
0.019104,-0.616455
0.0189209,-0.617981
0.0188599,-0.622559
0.0187988,-0.634766
0.0186768,-0.639343
0.0183105,-0.636292
0.0181274,-0.634766
0.0181885,-0.631714
0.0181885,-0.630188
0.0180054,-0.63324
0.0176392,-0.634766
0.017395,-0.637817
0.0172729,-0.646973
0.017395,-0.654602
0.0172729,-0.65918
0.0170288,-0.646973
0.0169067,-0.631714
0.0169067,-0.619507
0.0170288,-0.619507
0.0170288,-0.630188
0.0167236,-0.640869
0.0164795,-0.643921
0.0163574,-0.634766
0.0164795,-0.628662
0.0166016,-0.621033
0.0166016,-0.611877
0.0167236,-0.611877
0.0168457,-0.617981
0.0168457,-0.628662
0.0167847,-0.637817
0.0164795,-0.637817
0.0163574,-0.622559
0.0163574,-0.614929
0.0164185,-0.613403
0.0163574,-0.617981
0.0161743,-0.631714
0.0161743,-0.637817
0.0163574,-0.642395
0.0165405,-0.646973
0.0165405,-0.637817
0.0162964,-0.628662
0.0161133,-0.62561
0.0161743,-0.624084
0.0162964,-0.631714
0.0162354,-0.640869
0.0158691,-0.645447
0.0157471,-0.643921
0.0158081,-0.637817
0.0159302,-0.634766
0.0159302,-0.628662
0.015686,-0.619507
0.015564,-0.610352
0.0155029,-0.610352
0.015564,-0.613403
0.015564,-0.62561
0.0153809,-0.634766
0.0152588,-0.639343
0.0153809,-0.63324
0.015564,-0.62561
0.015625,-0.617981
0.0154419,-0.617981
0.0153198,-0.630188
0.0152588,-0.650024
0.0152588,-0.662231
0.0151978,-0.665283
0.0149536,-0.656128
0.0148926,-0.645447
0.0150757,-0.640869
0.0151978,-0.645447
0.0153198,-0.654602
0.0150757,-0.653076
0.0150146,-0.646973
0.0151367,-0.636292
0.0152588,-0.62561
0.0153198,-0.622559
0.0151978,-0.624084
0.0151367,-0.624084
0.0151978,-0.622559
0.0151978,-0.627136
0.0151367,-0.631714
0.0147095,-0.636292
0.0146484,-0.640869
0.0146484,-0.634766
0.0148926,-0.62561
0.0149536,-0.619507
0.0148315,-0.614929
0.0148315,-0.619507
0.0149536,-0.627136
0.0150757,-0.630188
0.0150757,-0.630188
0.0149536,-0.622559
0.0151367,-0.622559
0.0153198,-0.627136
0.015625,-0.639343
0.015686,-0.646973
0.0155029,-0.642395
0.0154419,-0.634766
0.015686,-0.630188
0.0159302,-0.634766
0.0161133,-0.642395
0.0159302,-0.645447
0.0158691,-0.637817
0.0159912,-0.628662
0.0161133,-0.617981
0.0162354,-0.610352
0.0161133,-0.602722
0.0160522,-0.605774
0.0161743,-0.614929
0.0164185,-0.63324
0.0164795,-0.654602
0.0163574,-0.657654
0.0164185,-0.648499
0.0165405,-0.634766
0.0166626,-0.621033
0.0167847,-0.622559
0.0167236,-0.631714
0.0167236,-0.636292
0.0169067,-0.639343
0.0170898,-0.637817
0.0171509,-0.645447
0.0170288,-0.646973
0.0171509,-0.65155
0.017334,-0.650024
0.0175171,-0.636292
0.0176392,-0.63324
0.0176392,-0.631714
0.0178223,-0.624084
0.0182495,-0.622559
0.0185547,-0.622559
0.0186157,-0.616455
0.0184326,-0.619507
0.0184326,-0.62561
0.0186768,-0.624084
0.0189209,-0.62561
0.019043,-0.631714
0.0189209,-0.639343
0.0189209,-0.646973
0.019043,-0.650024
0.0192871,-0.642395
0.0194092,-0.640869
0.0193481,-0.642395
0.0194702,-0.650024
0.0197754,-0.657654
0.0200195,-0.662231
0.0201416,-0.65155
0.0199585,-0.643921
0.0199585,-0.640869
0.0200806,-0.639343
0.0203247,-0.642395
0.0204468,-0.636292
0.0203857,-0.627136
0.0203247,-0.614929
0.0205078,-0.605774
0.020752,-0.605774
0.020752,-0.614929
0.0206909,-0.624084
0.0206909,-0.62561
0.020813,-0.62561
0.0210571,-0.617981
0.0211182,-0.614929
0.0209961,-0.617981
0.0210571,-0.624084
0.0213013,-0.621033
0.0216064,-0.616455
0.0217896,-0.611877
0.0217896,-0.613403
0.0219116,-0.619507
0.0220337,-0.627136
0.0222168,-0.631714
0.0222778,-0.630188
0.0222168,-0.627136
0.0222778,-0.622559
0.022583,-0.621033
0.0228882,-0.624084
0.0230713,-0.627136
0.0230103,-0.628662
0.0230713,-0.619507
0.0232544,-0.613403
0.0234375,-0.608826
0.0235596,-0.608826
0.0233765,-0.610352
0.0233765,-0.613403
0.0233765,-0.614929
0.0235596,-0.619507
0.0236206,-0.631714
0.0234985,-0.640869
0.0235596,-0.645447
0.0236816,-0.642395
0.0239258,-0.636292
0.0238647,-0.624084
0.0236206,-0.613403
0.0234985,-0.605774
0.0234985,-0.601196
0.0236816,-0.598145
0.0237427,-0.605774
0.0237427,-0.616455
0.0238647,-0.621033
0.0240479,-0.624084
0.0241699,-0.624084
0.0241089,-0.616455
0.0237427,-0.616455
0.0236816,-0.621033
0.0238037,-0.62561
0.0240479,-0.631714
0.0241089,-0.631714
0.0239258,-0.624084
0.0239258,-0.605774
0.0239868,-0.59967
0.0241699,-0.596619
0.0241699,-0.604248
0.0238647,-0.616455
0.0238037,-0.617981
0.0239258,-0.614929
0.0241089,-0.6073
0.0241699,-0.611877
0.0239258,-0.613403
0.0238647,-0.610352
0.0240479,-0.6073
0.0241699,-0.604248
0.0241699,-0.611877
0.0239868,-0.62561
0.0237427,-0.636292
0.0238037,-0.636292
0.0239258,-0.631714
0.0240479,-0.616455
0.0238647,-0.610352
0.0238037,-0.605774
0.0238647,-0.604248
0.0239868,-0.605774
0.0239868,-0.604248
0.0238037,-0.598145
0.0236816,-0.602722
0.0236816,-0.613403
0.0237427,-0.624084
0.0237427,-0.62561
0.0235596,-0.624084
0.0234375,-0.616455
0.0234375,-0.610352
0.0234375,-0.6073
0.0232544,-0.6073
0.0230103,-0.6073
0.0229492,-0.6073
0.0230713,-0.614929
0.0231934,-0.628662
0.0232544,-0.628662
0.0230713,-0.624084
0.0230103,-0.616455
0.0231323,-0.610352
0.0233154,-0.613403
0.0232544,-0.621033
0.0230103,-0.62561
0.0228271,-0.622559
0.0229492,-0.616455
0.0230713,-0.6073
0.0230713,-0.604248
0.0227661,-0.604248
0.022583,-0.611877
0.022644,-0.622559
0.0228271,-0.634766
0.0229492,-0.634766
0.0228271,-0.627136
0.0228271,-0.617981
0.0228271,-0.616455
0.0227661,-0.624084
0.022522,-0.630188
0.0221558,-0.63324
0.0219116,-0.62561
0.0219116,-0.617981
0.0219727,-0.617981
0.0218506,-0.624084
0.0215454,-0.628662
0.0213623,-0.631714
0.0214233,-0.62561
0.0214844,-0.617981
0.0215454,-0.610352
0.0213013,-0.604248
0.0211792,-0.604248
0.0210571,-0.608826
0.0209961,-0.613403
0.020874,-0.624084
0.0205078,-0.628662
0.0204468,-0.624084
0.0203247,-0.616455
0.0202637,-0.613403
0.0200806,-0.6073
0.0197754,-0.6073
0.0196533,-0.611877
0.0197144,-0.608826
0.0197754,-0.6073
0.0196533,-0.6073
0.0192871,-0.613403
0.019104,-0.613403
0.0189819,-0.621033
0.0189209,-0.628662
0.0187378,-0.634766
0.0184326,-0.63324
0.0183716,-0.631714
0.0184326,-0.614929
0.0184937,-0.6073
0.0183105,-0.611877
0.0179443,-0.622559
0.0177002,-0.636292
0.0175781,-0.645447
0.0175781,-0.648499
0.017395,-0.645447
0.0170288,-0.639343
0.0169067,-0.634766
0.0169067,-0.631714
0.0169678,-0.639343
0.0167847,-0.642395
0.0164795,-0.639343
0.0162354,-0.636292
0.0162354,-0.624084
0.0162964,-0.619507
0.0162354,-0.619507
0.0159302,-0.613403
0.0158081,-0.608826
0.0157471,-0.6073
0.0158081,-0.6073
0.0157471,-0.621033
0.0153809,-0.63324
0.0152588,-0.640869
0.0151978,-0.648499
0.0151978,-0.645447
0.0150757,-0.637817
0.0147705,-0.630188
0.0147095,-0.624084
0.0147095,-0.621033
0.0147705,-0.627136
0.0146484,-0.62561
0.0142822,-0.62561
0.0140381,-0.621033
0.0139771,-0.622559
0.0140381,-0.631714
0.013916,-0.642395
0.0136719,-0.65155
0.0135498,-0.65155
0.0136108,-0.645447
0.0137329,-0.639343
0.0136719,-0.63324
0.0133057,-0.628662
0.0131226,-0.62561
0.0130615,-0.627136
0.0130005,-0.62561
0.0129395,-0.631714
0.0126343,-0.634766
0.0123901,-0.630188
0.0123901,-0.627136
0.0123291,-0.624084
0.012146,-0.619507
0.0118408,-0.622559
0.0115967,-0.630188
0.0114136,-0.634766
0.0112915,-0.634766
0.0109863,-0.634766
0.0106201,-0.631714
0.0106201,-0.628662
0.0106812,-0.630188
0.0108032,-0.631714
0.0106812,-0.634766
0.010437,-0.63324
0.0102539,-0.634766
0.0101929,-0.634766
0.0101929,-0.628662
0.00994873,-0.621033
0.00964355,-0.614929
0.00939941,-0.611877
0.00939941,-0.617981
0.00946045,-0.622559
0.00939941,-0.627136
0.00915527,-0.62561
0.00897217,-0.621033
0.00897217,-0.622559
0.00897217,-0.63324
0.0088501,-0.640869
0.00860596,-0.648499
0.00842285,-0.654602
0.00842285,-0.653076
0.00854492,-0.65918
0.00836182,-0.657654
0.00805664,-0.657654
0.00793457,-0.656128
0.00799561,-0.653076
0.00805664,-0.654602
0.00799561,-0.656128
0.00762939,-0.650024
0.00738525,-0.643921
0.00732422,-0.634766
0.00732422,-0.630188
0.00720215,-0.630188
0.00683594,-0.63324
0.00671387,-0.637817
0.00671387,-0.640869
0.0067749,-0.645447
0.00671387,-0.648499
0.00634766,-0.646973
0.00610352,-0.643921
0.00598145,-0.637817
0.00585938,-0.634766
0.00567627,-0.63324
0.00537109,-0.622559
0.00524902,-0.616455
0.00524902,-0.614929
0.00524902,-0.617981
0.00512695,-0.62561
0.00469971,-0.628662
0.00445557,-0.628662
0.0045166,-0.630188
0.0045166,-0.63324
0.00445557,-0.640869
0.00421143,-0.643921
0.00402832,-0.648499
0.00384521,-0.646973
0.00372314,-0.646973
0.003479,-0.643921
0.00311279,-0.643921
0.00305176,-0.646973
0.00317383,-0.646973
0.00317383,-0.646973
0.00292969,-0.648499
0.00256348,-0.642395
0.00238037,-0.639343
0.00244141,-0.63324
0.00250244,-0.627136
0.00244141,-0.624084
0.00213623,-0.62561
0.00195313,-0.627136
0.00189209,-0.637817
0.00183105,-0.643921
0.00164795,-0.645447
0.00134277,-0.645447
0.00115967,-0.645447
0.00109863,-0.650024
0.000976563,-0.656128
0.000732422,-0.656128
0.000244141,-0.646973
-6.10352,-0.63324
-6.10352,-0.621033
-0.00012207,-0.621033
-0.000244141,-0.631714
-0.000671387,-0.646973
-0.000915527,-0.657654
-0.000915527,-0.660706
-0.000976563,-0.657654
-0.00109863,-0.642395
-0.00146484,-0.63324
-0.00170898,-0.624084
-0.00189209,-0.627136
-0.00213623,-0.630188
-0.00238037,-0.63324
-0.00286865,-0.63324
-0.00299072,-0.630188
-0.00299072,-0.628662
-0.00299072,-0.628662
-0.00317383,-0.631714
-0.00354004,-0.627136
-0.00372314,-0.627136
-0.00378418,-0.631714
-0.00378418,-0.639343
-0.00402832,-0.65155
-0.00439453,-0.654602
-0.00457764,-0.648499
-0.00457764,-0.63324
-0.00463867,-0.616455
-0.00482178,-0.6073
-0.00518799,-0.6073
-0.00537109,-0.616455
-0.00531006,-0.62561
-0.00531006,-0.634766
-0.0055542,-0.634766
-0.00598145,-0.622559
-0.00616455,-0.611877
-0.00616455,-0.608826
-0.00616455,-0.614929
-0.00622559,-0.628662
-0.0065918,-0.639343
-0.00683594,-0.650024
-0.00689697,-0.648499
-0.00701904,-0.642395
-0.00720215,-0.631714
-0.00793457,-0.619507
-0.00811768,-0.613403
-0.00817871,-0.614929
-0.00817871,-0.62561
-0.00805664,-0.639343
-0.00842285,-0.648499
-0.00872803,-0.646973
-0.0088501,-0.637817
-0.00897217,-0.627136
-0.00909424,-0.621033
-0.00946045,-0.621033
-0.00958252,-0.630188
-0.00958252,-0.637817
-0.00958252,-0.640869
-0.00964355,-0.637817
-0.0100098,-0.631714
-0.0101929,-0.62561
-0.0103149,-0.62561
-0.010437,-0.627136
-0.0106812,-0.631714
-0.0109863,-0.631714
-0.0112305,-0.637817
-0.0112305,-0.636292
-0.0112305,-0.639343
-0.0114746,-0.637817
-0.0118408,-0.637817
-0.0120239,-0.639343
-0.0120239,-0.637817
-0.0120239,-0.634766
-0.012085,-0.62561
-0.0128174,-0.619507
-0.0130615,-0.622559
-0.0131836,-0.636292
-0.0131226,-0.650024
-0.0129395,-0.657654
-0.0131226,-0.657654
-0.0133667,-0.653076
-0.0135498,-0.648499
-0.0137329,-0.640869
-0.013916,-0.631714
-0.0142822,-0.622559
-0.0144653,-0.610352
-0.0143433,-0.610352
-0.0143433,-0.617981
-0.0144043,-0.634766
-0.0147705,-0.646973
-0.0148926,-0.654602
-0.0150146,-0.65155
-0.0150757,-0.648499
-0.0152588,-0.642395
-0.015625,-0.636292
-0.0157471,-0.639343
-0.015686,-0.634766
-0.015625,-0.634766
-0.015686,-0.637817
-0.0160522,-0.637817
-0.0162964,-0.639343
-0.0163574,-0.637817
-0.0164795,-0.628662
-0.0166626,-0.621033
-0.0170898,-0.619507
-0.0172119,-0.617981
-0.0171509,-0.619507
-0.0170288,-0.617981
-0.0170288,-0.614929
-0.017395,-0.617981
-0.0177002,-0.622559
-0.0178833,-0.631714
-0.0179443,-0.643921
-0.0180054,-0.646973
-0.0183105,-0.645447
-0.0183716,-0.642395
-0.0183716,-0.630188
-0.0183716,-0.621033
-0.0184326,-0.614929
-0.0186157,-0.616455
-0.0187378,-0.624084
-0.0186157,-0.634766
-0.0186157,-0.642395
-0.0186768,-0.65155
-0.0195313,-0.653076
-0.0196533,-0.650024
-0.0196533,-0.643921
-0.0195313,-0.631714
-0.019104,-0.624084
-0.019165,-0.616455
-0.0192871,-0.621033
-0.0192261,-0.63324
-0.0192871,-0.646973
-0.0194092,-0.657654
-0.0196533,-0.653076
-0.0197144,-0.634766
-0.0196533,-0.621033
-0.0195923,-0.614929
-0.0196533,-0.617981
-0.0198975,-0.621033
-0.0199585,-0.628662
-0.0198364,-0.636292
-0.0197754,-0.640869
-0.0198364,-0.648499
-0.0200806,-0.646973
-0.0202026,-0.645447
-0.0202026,-0.648499
-0.0201416,-0.65918
-0.0200806,-0.666809
-0.0203247,-0.669861
-0.0202637,-0.657654
-0.0202026,-0.646973
-0.0202026,-0.642395
-0.0203247,-0.642395
-0.0205688,-0.645447
-0.0206299,-0.645447
-0.0205688,-0.639343
-0.0205688,-0.634766
-0.0206299,-0.63324
-0.020813,-0.634766
-0.020752,-0.636292
-0.0206299,-0.630188
-0.0205078,-0.616455
-0.0206909,-0.605774
-0.0209351,-0.604248
-0.0209961,-0.613403
-0.0209351,-0.631714
-0.020874,-0.639343
-0.0209351,-0.640869
-0.0212402,-0.637817
-0.0212402,-0.636292
-0.0212402,-0.631714
-0.0212402,-0.628662
-0.0213013,-0.621033
-0.0220337,-0.619507
-0.0223999,-0.619507
-0.0222168,-0.624084
-0.0219116,-0.622559
-0.0213013,-0.616455
-0.0211182,-0.617981
-0.0211792,-0.627136
-0.0212402,-0.642395
-0.0213623,-0.65155
-0.0214844,-0.650024
-0.0216064,-0.642395
-0.0216675,-0.634766
-0.0215454,-0.637817
-0.0215454,-0.637817
-0.0215454,-0.636292
-0.0217285,-0.628662
-0.0218506,-0.616455
-0.0217285,-0.610352
-0.0216675,-0.6073
-0.0218506,-0.6073
-0.0220337,-0.614929
-0.0220947,-0.631714
-0.0219727,-0.645447
-0.0218506,-0.650024
-0.0219116,-0.643921
-0.0221558,-0.622559
-0.0222168,-0.608826
-0.0222168,-0.596619
-0.0221558,-0.595093
-0.0221558,-0.595093
-0.0222168,-0.595093
-0.0221558,-0.6073
-0.0219727,-0.62561
-0.0219116,-0.645447
-0.0220947,-0.65155
-0.0222778,-0.642395
-0.0222778,-0.62561
-0.0220947,-0.613403
-0.0220337,-0.619507
-0.0220337,-0.628662
-0.0222168,-0.636292
-0.0220947,-0.634766
-0.0218506,-0.631714
-0.0216675,-0.62561
-0.0216675,-0.622559
-0.0219727,-0.621033
-0.0220337,-0.613403
-0.0219116,-0.613403
-0.0217896,-0.6073
-0.0218506,-0.604248
-0.0223999,-0.6073
-0.0223999,-0.613403
-0.0222168,-0.628662
-0.0218506,-0.640869
-0.0215454,-0.643921
-0.0215454,-0.643921
-0.0216675,-0.639343
-0.0215454,-0.639343
-0.0215454,-0.636292
-0.0216064,-0.628662
-0.0217896,-0.624084
-0.0216675,-0.628662
-0.0213623,-0.639343
-0.0210571,-0.65155
-0.0209961,-0.65155
-0.0211792,-0.637817
-0.0213013,-0.62561
-0.0211792,-0.622559
-0.0211182,-0.627136
-0.0211182,-0.634766
-0.0213013,-0.637817
-0.0213623,-0.639343
-0.0211182,-0.642395
-0.0209961,-0.648499
-0.0209961,-0.650024
-0.0211792,-0.645447
-0.0212402,-0.639343
-0.0210571,-0.636292
-0.0209961,-0.639343
-0.0209961,-0.637817
-0.0211792,-0.63324
-0.0211792,-0.622559
-0.0209961,-0.616455
-0.020874,-0.619507
-0.0209351,-0.628662
-0.0211182,-0.637817
-0.0210571,-0.637817
-0.020874,-0.636292
-0.020752,-0.636292
-0.0206909,-0.63324
-0.0211182,-0.631714
-0.0211182,-0.631714
-0.0209961,-0.628662
-0.020813,-0.634766
-0.0206299,-0.636292
-0.0206909,-0.640869
-0.0206299,-0.645447
-0.0204468,-0.650024
-0.0202637,-0.653076
-0.0202026,-0.65155
-0.020813,-0.650024
-0.020752,-0.645447
-0.0205688,-0.645447
-0.0203247,-0.642395
-0.0200195,-0.648499
-0.0200806,-0.660706
-0.0201416,-0.672913
-0.0201416,-0.686646
-0.0200195,-0.68512
-0.0200806,-0.672913
-0.0202026,-0.656128
-0.0201416,-0.634766
-0.0199585,-0.627136
-0.0198975,-0.624084
-0.0199585,-0.631714
-0.0201416,-0.640869
-0.0200195,-0.646973
-0.0197754,-0.650024
-0.0195923,-0.646973
-0.0197144,-0.648499
-0.0199585,-0.645447
-0.0201416,-0.643921
-0.0198364,-0.643921
-0.0195923,-0.642395
-0.0194092,-0.645447
-0.0194702,-0.640869
-0.0194092,-0.631714
-0.0192871,-0.624084
-0.019165,-0.621033
-0.0192261,-0.619507
-0.0193481,-0.621033
-0.0193481,-0.62561
-0.019104,-0.630188
-0.0189819,-0.639343
-0.019043,-0.643921
-0.0192871,-0.645447
-0.0193481,-0.642395
-0.019104,-0.63324
-0.019043,-0.630188
-0.0189819,-0.628662
-0.019104,-0.634766
-0.019165,-0.639343
-0.0189819,-0.645447
-0.0187988,-0.642395
-0.0187378,-0.634766
-0.0187378,-0.628662
-0.0185547,-0.630188
-0.0183716,-0.640869
-0.0183105,-0.654602
-0.0184937,-0.65918
-0.0192261,-0.654602
-0.0192261,-0.648499
-0.019043,-0.639343
-0.0185547,-0.634766
-0.0180664,-0.628662
-0.0180054,-0.624084
-0.0178833,-0.617981
-0.0178223,-0.621033
-0.0177612,-0.630188
-0.0178223,-0.634766
-0.0179443,-0.631714
-0.0179443,-0.622559
-0.0177002,-0.613403
-0.0175171,-0.610352
-0.017395,-0.616455
-0.0175171,-0.621033
-0.0174561,-0.628662
-0.017334,-0.631714
-0.017334,-0.631714
-0.017334,-0.630188
-0.017395,-0.617981
-0.0174561,-0.611877
-0.017334,-0.608826
-0.0172119,-0.614929
-0.017395,-0.62561
-0.0175171,-0.627136
-0.0174561,-0.627136
-0.0172729,-0.624084
-0.0171509,-0.624084
-0.0171509,-0.63324
-0.0175171,-0.640869
-0.0174561,-0.646973
-0.0172119,-0.642395
-0.0169678,-0.639343
-0.0167847,-0.636292
-0.0169067,-0.631714
-0.0169678,-0.63324
-0.0169067,-0.636292
-0.0167847,-0.637817
-0.0167236,-0.646973
-0.0167847,-0.65155
-0.0166626,-0.656128
-0.0164795,-0.654602
-0.0163574,-0.648499
-0.0163574,-0.650024
-0.0165405,-0.650024
-0.0164795,-0.646973
-0.0164185,-0.645447
-0.0161743,-0.637817
-0.0161743,-0.631714
-0.0168457,-0.636292
-0.0167847,-0.636292
-0.0167236,-0.637817
-0.0163574,-0.636292
-0.0159302,-0.631714
-0.0159302,-0.627136
-0.0159302,-0.624084
-0.0158081,-0.62561
-0.0158081,-0.63324
-0.0158081,-0.642395
-0.0159302,-0.65155
-0.0158691,-0.654602
-0.015686,-0.65155
-0.0155029,-0.645447
-0.0154419,-0.639343
-0.0155029,-0.634766
-0.015564,-0.63324
-0.0154419,-0.640869
-0.0154419,-0.643921
-0.0155029,-0.656128
-0.015564,-0.660706
-0.0153809,-0.662231
-0.0150757,-0.656128
-0.0148926,-0.653076
-0.0148926,-0.643921
-0.0150757,-0.639343
-0.0151367,-0.63324
-0.0149536,-0.630188
-0.0147705,-0.631714
-0.0146484,-0.639343
-0.0147095,-0.640869
-0.0147095,-0.640869
-0.0145874,-0.640869
-0.0145264,-0.639343
-0.0145874,-0.643921
-0.0147705,-0.640869
-0.0147095,-0.636292
-0.0145264,-0.639343
-0.0144043,-0.648499
-0.0143433,-0.657654
-0.0144043,-0.662231
-0.0143433,-0.657654
-0.0141602,-0.639343
-0.0141602,-0.622559
-0.0142212,-0.614929
-0.0144043,-0.614929
-0.0144653,-0.628662
-0.0141602,-0.640869
-0.0139771,-0.650024
-0.013916,-0.65155
-0.0145874,-0.657654
-0.0145874,-0.65918
-0.0145874,-0.657654
-0.0143433,-0.646973
-0.013855,-0.631714
-0.0137329,-0.610352
-0.0136108,-0.602722
-0.0134888,-0.59967
-0.0135498,-0.604248
-0.0136108,-0.614929
-0.0137939,-0.621033
-0.0137329,-0.631714
-0.0134888,-0.643921
-0.0133667,-0.656128
-0.0133667,-0.669861
-0.0134888,-0.679016
-0.0134277,-0.67749
-0.0131836,-0.666809
-0.0131226,-0.653076
-0.0131836,-0.636292
-0.0135498,-0.628662
-0.0135498,-0.62561
-0.0132446,-0.62561
-0.0130005,-0.627136
-0.0128784,-0.63324
-0.0128784,-0.63324
-0.0129395,-0.639343
-0.0126953,-0.642395
-0.0126343,-0.636292
-0.0126953,-0.631714
-0.0128784,-0.621033
-0.0130005,-0.616455
-0.0127563,-0.619507
-0.0125122,-0.624084
-0.0124512,-0.631714
-0.0125732,-0.636292
-0.0126343,-0.640869
-0.0124512,-0.645447
-0.0123291,-0.65155
-0.0123291,-0.654602
-0.0123901,-0.653076
-0.0123291,-0.646973
-0.0120239,-0.645447
-0.0118408,-0.646973
-0.0119019,-0.65155
-0.0120239,-0.65155
-0.0119629,-0.653076
-0.0117188,-0.650024
-0.0116577,-0.648499
-0.0118408,-0.653076
-0.0125122,-0.65155
-0.0125732,-0.646973
-0.0123901,-0.650024
-0.0119629,-0.65155
-0.0115967,-0.656128
-0.0115356,-0.657654
-0.0115356,-0.654602
-0.0114136,-0.653076
-0.0113525,-0.65155
-0.0114746,-0.646973
-0.0117188,-0.642395
-0.0117798,-0.637817
-0.0115967,-0.637817
-0.0114746,-0.636292
-0.0113525,-0.639343
-0.0114136,-0.634766
-0.0114136,-0.631714
-0.0111694,-0.637817
-0.0111084,-0.640869
-0.0112305,-0.648499
-0.0114136,-0.646973
-0.0114136,-0.640869
-0.0111694,-0.643921
-0.0110474,-0.642395
-0.0110474,-0.640869
-0.0111694,-0.639343
-0.0111694,-0.634766
-0.0109863,-0.639343
-0.0109253,-0.648499
-0.0109863,-0.657654
-0.0111084,-0.663757
-0.0111084,-0.660706
-0.0107422,-0.654602
-0.010498,-0.650024
-0.010437,-0.645447
-0.0105591,-0.63324
-0.0106201,-0.630188
-0.010498,-0.630188
-0.010498,-0.63324
-0.0105591,-0.640869
-0.0106201,-0.643921
-0.010498,-0.645447
-0.010437,-0.650024
-0.010437,-0.648499
-0.010498,-0.645447
-0.0105591,-0.639343
-0.010376,-0.631714
-0.0100098,-0.630188
-0.00994873,-0.63324
-0.0101318,-0.637817
-0.0109863,-0.648499
-0.0110474,-0.654602
-0.0109253,-0.65918
-0.0105591,-0.653076
-0.0102539,-0.643921
-0.0101318,-0.636292
-0.0102539,-0.634766
-0.0101929,-0.637817
-0.0101318,-0.639343
-0.0102539,-0.640869
-0.0107422,-0.643921
-0.0107422,-0.650024
-0.010498,-0.660706
-0.0102539,-0.663757
-0.0100708,-0.663757
-0.0101318,-0.65155
-0.0101929,-0.642395
-0.0100708,-0.637817
-0.0100098,-0.634766
-0.0100708,-0.639343
-0.0102539,-0.637817
-0.0101318,-0.630188
-0.00982666,-0.621033
-0.00964355,-0.616455
-0.00958252,-0.619507
-0.00970459,-0.62561
-0.00964355,-0.636292
-0.00939941,-0.640869
-0.00927734,-0.643921
-0.00933838,-0.642395
-0.00952148,-0.643921
-0.00952148,-0.636292
-0.00927734,-0.628662
-0.00921631,-0.616455
-0.00927734,-0.6073
-0.00946045,-0.598145
-0.00964355,-0.602722
-0.00952148,-0.614929
-0.00946045,-0.628662
-0.00939941,-0.63324
-0.00939941,-0.631714
-0.00927734,-0.62561
-0.00897217,-0.621033
-0.00891113,-0.619507
-0.0090332,-0.627136
-0.00909424,-0.628662
-0.0090332,-0.636292
-0.00878906,-0.640869
-0.00866699,-0.642395
-0.00878906,-0.643921
-0.00952148,-0.646973
-0.00952148,-0.646973
-0.00927734,-0.653076
-0.00897217,-0.656128
-0.00860596,-0.654602
-0.00854492,-0.65155
-0.00860596,-0.645447
-0.00842285,-0.636292
-0.00836182,-0.627136
-0.00836182,-0.619507
-0.00842285,-0.617981
-0.00836182,-0.62561
-0.00805664,-0.643921
-0.00799561,-0.660706
-0.00805664,-0.669861
-0.00830078,-0.671387
-0.00830078,-0.669861
-0.00805664,-0.666809
-0.00799561,-0.671387
-0.00799561,-0.671387
-0.00817871,-0.663757
-0.00823975,-0.656128
-0.00805664,-0.643921
-0.00793457,-0.642395
-0.00793457,-0.646973
-0.00811768,-0.65155
-0.00811768,-0.654602
-0.00793457,-0.653076
-0.00787354,-0.643921
-0.00793457,-0.636292
-0.00805664,-0.630188
-0.00805664,-0.630188
-0.00787354,-0.637817
-0.0078125,-0.648499
-0.00787354,-0.648499
-0.00793457,-0.636292
-0.00775146,-0.630188
-0.00750732,-0.631714
-0.00732422,-0.639343
-0.00750732,-0.657654
-0.00769043,-0.668335
-0.00787354,-0.669861
-0.00769043,-0.662231
-0.00756836,-0.654602
-0.00756836,-0.646973
-0.00769043,-0.642395
-0.00769043,-0.648499
-0.00756836,-0.663757
-0.00762939,-0.672913
-0.00775146,-0.672913
-0.00848389,-0.669861
-0.00860596,-0.654602
-0.00854492,-0.646973
-0.00836182,-0.643921
-0.00787354,-0.640869
-0.00762939,-0.642395
-0.00750732,-0.645447
-0.00744629,-0.650024
-0.00750732,-0.653076
-0.00769043,-0.642395
-0.0078125,-0.634766
-0.00775146,-0.63324
-0.00738525,-0.642395
-0.00720215,-0.654602
-0.00726318,-0.65918
-0.00738525,-0.653076
-0.00738525,-0.643921
-0.00720215,-0.637817
-0.00720215,-0.634766
-0.00726318,-0.628662
-0.00738525,-0.617981
-0.00732422,-0.614929
-0.00701904,-0.621033
-0.00695801,-0.627136
-0.00689697,-0.642395
-0.00695801,-0.650024
-0.00683594,-0.65155
-0.00653076,-0.653076
-0.00640869,-0.653076
-0.00653076,-0.650024
-0.00671387,-0.648499
-0.0067749,-0.639343
-0.0065918,-0.63324
-0.00653076,-0.63324
-0.00653076,-0.636292
-0.0065918,-0.640869
-0.00653076,-0.640869
-0.00622559,-0.637817
-0.00616455,-0.637817
-0.00616455,-0.643921
-0.00622559,-0.643921
-0.00610352,-0.642395
-0.00579834,-0.636292
-0.00561523,-0.630188
-0.00561523,-0.631714
-0.0057373,-0.637817
-0.0057373,-0.640869
-0.0055542,-0.637817
-0.00543213,-0.636292
-0.00543213,-0.63324
-0.00592041,-0.636292
-0.00585938,-0.634766
-0.00567627,-0.631714
-0.00537109,-0.62561
-0.00506592,-0.624084
-0.00488281,-0.62561
-0.00476074,-0.63324
-0.0045166,-0.634766
-0.0045166,-0.634766
-0.00457764,-0.631714
-0.00469971,-0.630188
-0.00463867,-0.627136
-0.00427246,-0.628662
-0.00408936,-0.627136
-0.00408936,-0.62561
-0.00402832,-0.624084
-0.00384521,-0.627136
-0.00360107,-0.631714
-0.003479,-0.631714
-0.00354004,-0.634766
-0.00360107,-0.631714
-0.003479,-0.628662
-0.00305176,-0.630188
-0.00286865,-0.63324
-0.00286865,-0.63324
-0.00292969,-0.627136
-0.00280762,-0.617981
-0.00244141,-0.613403
-0.0022583,-0.619507
-0.00219727,-0.628662
-0.0020752,-0.631714
-0.00195313,-0.630188
-0.00152588,-0.622559
-0.0012207,-0.621033
-0.00115967,-0.630188
-0.00115967,-0.643921
-0.000976563,-0.653076
-0.000549316,-0.65918
-0.000366211,-0.660706
-0.000366211,-0.656128
-0.000610352,-0.657654
-0.000549316,-0.656128
-0.000244141,-0.65155
0.00012207,-0.650024
0.000488281,-0.650024
0.000671387,-0.650024
0.000976563,-0.656128
0.00128174,-0.65918
0.00152588,-0.65155
0.00158691,-0.645447
0.0012207,-0.639343
0.00140381,-0.631714
0.00183105,-0.63324
0.00244141,-0.63324
0.00286865,-0.63324
0.00311279,-0.636292
0.0032959,-0.637817
0.00360107,-0.636292
0.00384521,-0.628662
0.00408936,-0.621033
0.00427246,-0.616455
0.00457764,-0.62561
0.00506592,-0.645447
0.00537109,-0.666809
0.00561523,-0.672913
0.0057373,-0.668335
0.00610352,-0.650024
0.00653076,-0.63324
0.00689697,-0.630188
0.00708008,-0.624084
0.00726318,-0.624084
0.00762939,-0.627136
0.00817871,-0.634766
0.00842285,-0.640869
0.00866699,-0.643921
0.0088501,-0.640869
0.00927734,-0.639343
0.00982666,-0.634766
0.0102539,-0.636292
0.010498,-0.631714
0.0106812,-0.622559
0.0110474,-0.617981
0.0116577,-0.622559
0.0120239,-0.636292
0.0123291,-0.65155
0.0125122,-0.656128
0.0129395,-0.646973
0.0135498,-0.630188
0.0139771,-0.614929
0.0142212,-0.611877
0.0144043,-0.617981
0.0148315,-0.62561
0.0155029,-0.636292
0.0160522,-0.643921
0.0163574,-0.646973
0.0166626,-0.648499
0.0170898,-0.646973
0.0177002,-0.643921
0.0181274,-0.636292
0.0183105,-0.630188
0.0179443,-0.622559
0.0183105,-0.614929
0.0187378,-0.611877
0.0194092,-0.611877
0.0200806,-0.6073
0.0205078,-0.611877
0.020813,-0.624084
0.0212402,-0.642395
0.0216064,-0.660706
0.0219116,-0.65918
0.0222168,-0.65155
0.022583,-0.637817
0.0232544,-0.627136
0.0236206,-0.636292
0.0238647,-0.65155
0.0240479,-0.657654
0.024353,-0.656128
0.0249023,-0.645447
0.0252686,-0.63324
0.0254517,-0.62561
0.0256348,-0.627136
0.026001,-0.630188
0.0265503,-0.63324
0.0269775,-0.636292
0.0270996,-0.637817
0.0270996,-0.645447
0.0273438,-0.648499
0.027771,-0.648499
0.0280762,-0.642395
0.0282593,-0.637817
0.0281982,-0.645447
0.0284424,-0.657654
0.0288696,-0.672913
0.0292969,-0.672913
0.029541,-0.65918
0.0297241,-0.642395
0.0299683,-0.63324
0.0303955,-0.631714
0.0307007,-0.634766
0.0308838,-0.637817
0.0309448,-0.634766
0.0311279,-0.630188
0.0314941,-0.630188
0.0317993,-0.634766
0.0319214,-0.63324
0.0320435,-0.631714
0.0322266,-0.63324
0.0326538,-0.631714
0.0327759,-0.636292
0.0327148,-0.646973
0.0321655,-0.656128
0.0321655,-0.666809
0.0325317,-0.672913
0.032959,-0.668335
0.0334473,-0.662231
0.0336304,-0.657654
0.0337524,-0.65155
0.0339355,-0.645447
0.0341187,-0.636292
0.0339966,-0.63324
0.0339355,-0.63324
0.0339966,-0.639343
0.0342407,-0.650024
0.0343628,-0.650024
0.0344238,-0.653076
0.0343628,-0.656128
0.0344849,-0.654602
0.034729,-0.662231
0.0348511,-0.656128
0.03479,-0.645447
0.034729,-0.63324
0.0348511,-0.627136
0.0352173,-0.631714
0.0352783,-0.640869
0.0351563,-0.648499
0.0349731,-0.650024
0.0349121,-0.646973
0.0350952,-0.648499
0.0351563,-0.648499
0.0350342,-0.650024
0.0348511,-0.645447
0.0348511,-0.637817
0.0350342,-0.630188
0.0349731,-0.624084
0.03479,-0.628662
0.0345459,-0.634766
0.0344849,-0.639343
0.034668,-0.639343
0.034668,-0.631714
0.0344849,-0.617981
0.0343628,-0.610352
0.0343018,-0.613403
0.0345459,-0.621033
0.034668,-0.63324
0.0346069,-0.640869
0.0344238,-0.63324
0.0344238,-0.62561
0.0344849,-0.624084
0.0344238,-0.630188
0.0343018,-0.642395
0.0335693,-0.646973
0.0333862,-0.643921
0.0333252,-0.640869
0.0334473,-0.640869
0.0335083,-0.643921
0.0333862,-0.648499
0.0333252,-0.645447
0.0333252,-0.640869
0.0332642,-0.634766
0.032959,-0.627136
0.0327148,-0.624084
0.0325928,-0.628662
0.0325317,-0.634766
0.0323486,-0.640869
0.0321045,-0.637817
0.0318604,-0.63324
0.0318604,-0.630188
0.0319824,-0.63324
0.0319214,-0.640869
0.0316162,-0.648499
0.0310059,-0.648499
0.0305176,-0.646973
0.0305176,-0.643921
0.0303955,-0.640869
0.0304565,-0.642395
0.0303955,-0.636292
0.0302734,-0.631714
0.0303345,-0.630188
0.0300903,-0.63324
0.0297852,-0.636292
0.029541,-0.642395
0.0294189,-0.643921
0.02948,-0.643921
0.0292969,-0.645447
0.0289307,-0.648499
0.0285034,-0.646973
0.0283203,-0.650024
0.0283203,-0.65155
0.0283203,-0.65155
0.0280151,-0.65918
0.0276489,-0.662231
0.0274658,-0.666809
0.0274658,-0.668335
0.0274048,-0.668335
0.0270996,-0.662231
0.0267944,-0.657654
0.0265503,-0.657654
0.0265503,-0.65918
0.0263672,-0.660706
0.026062,-0.656128
0.0256348,-0.646973
0.0253906,-0.640869
0.0254517,-0.640869
0.0252686,-0.645447
0.0249634,-0.646973
0.0245972,-0.639343
0.024292,-0.63324
0.024292,-0.627136
0.0241089,-0.634766
0.0237427,-0.648499
0.0233765,-0.65918
0.0231934,-0.663757
0.0231323,-0.663757
0.0229492,-0.65155
0.022583,-0.646973
0.0223389,-0.642395
0.0221558,-0.637817
0.0221558,-0.640869
0.0219727,-0.643921
0.0215454,-0.650024
0.0209961,-0.657654
0.0206299,-0.65918
0.0206299,-0.654602
0.0205688,-0.643921
0.0204468,-0.634766
0.0203247,-0.631714
0.0202026,-0.637817
0.0201416,-0.645447
0.0198364,-0.646973
0.0194702,-0.642395
0.019104,-0.627136
0.0189819,-0.616455
0.0189819,-0.610352
0.0188599,-0.614929
0.0185547,-0.619507
0.0181885,-0.617981
0.0180054,-0.616455
0.0179443,-0.613403
0.0177612,-0.617981
0.017334,-0.628662
0.0169678,-0.636292
0.0167847,-0.643921
0.0167847,-0.640869
0.0166016,-0.63324
0.0162964,-0.627136
0.0159912,-0.617981
0.0157471,-0.621033
0.0157471,-0.63324
0.015564,-0.642395
0.0151978,-0.648499
0.0148926,-0.643921
0.0147705,-0.636292
0.0147095,-0.634766
0.0145264,-0.628662
0.0142212,-0.624084
0.0137939,-0.616455
0.0135498,-0.613403
0.0134277,-0.619507
0.0132446,-0.628662
0.0128174,-0.634766
0.0122681,-0.631714
0.0120239,-0.624084
0.0120239,-0.619507
0.0118408,-0.617981
0.0116577,-0.619507
0.0113525,-0.616455
0.0112305,-0.613403
0.0112915,-0.617981
0.0112305,-0.627136
0.0109253,-0.639343
0.0106201,-0.645447
0.0102539,-0.642395
0.0101929,-0.631714
0.0100098,-0.631714
0.00970459,-0.634766
0.00958252,-0.637817
0.00952148,-0.639343
0.00958252,-0.631714
0.00939941,-0.619507
0.00897217,-0.610352
0.00860596,-0.610352
0.00848389,-0.611877
0.00854492,-0.619507
0.00842285,-0.630188
0.00817871,-0.634766
0.00787354,-0.63324
0.00775146,-0.639343
0.00769043,-0.643921
0.00756836,-0.648499
0.00720215,-0.657654
0.00683594,-0.660706
0.00665283,-0.662231
0.00671387,-0.662231
0.0065918,-0.65918
0.00622559,-0.654602
0.00592041,-0.646973
0.00579834,-0.645447
0.00585938,-0.642395
0.00585938,-0.634766
0.0055542,-0.636292
0.00524902,-0.634766
0.00500488,-0.642395
0.00500488,-0.645447
0.00488281,-0.643921
0.00457764,-0.63324
0.00421143,-0.627136
0.00408936,-0.628662
0.00415039,-0.631714
0.00415039,-0.640869
0.00390625,-0.65155
0.0032959,-0.660706
0.00305176,-0.65918
0.00305176,-0.650024
0.00305176,-0.627136
0.00299072,-0.605774
0.00280762,-0.596619
0.00262451,-0.604248
0.00256348,-0.619507
0.00231934,-0.627136
0.00201416,-0.622559
0.00177002,-0.611877
0.00164795,-0.602722
0.00170898,-0.608826
0.00158691,-0.622559
0.0012207,-0.636292
0.000854492,-0.642395
0.000671387,-0.639343
0.000671387,-0.63324
0.000610352,-0.630188
0.000305176,-0.63324
0.0,-0.639343
-0.000183105,-0.648499
-0.00012207,-0.656128
-0.00012207,-0.656128
-0.000427246,-0.646973
-0.000671387,-0.634766
-0.000793457,-0.624084
-0.000671387,-0.621033
-0.000854492,-0.621033
-0.00115967,-0.622559
-0.00146484,-0.622559
-0.00152588,-0.624084
-0.00134277,-0.627136
-0.00140381,-0.628662
-0.00164795,-0.62561
-0.00195313,-0.624084
-0.00219727,-0.628662
-0.00219727,-0.636292
-0.0022583,-0.646973
-0.00256348,-0.657654
-0.00280762,-0.65918
-0.00299072,-0.660706
-0.00299072,-0.660706
-0.00305176,-0.650024
-0.0032959,-0.634766
-0.00354004,-0.619507
-0.00366211,-0.610352
-0.00366211,-0.611877
-0.00384521,-0.622559
-0.00415039,-0.63324
-0.00476074,-0.634766
-0.00500488,-0.639343
-0.00500488,-0.639343
-0.00500488,-0.642395
-0.00500488,-0.645447
-0.00506592,-0.642395
-0.00518799,-0.637817
-0.00524902,-0.634766
-0.00567627,-0.636292
-0.00622559,-0.637817
-0.0065918,-0.636292
-0.00732422,-0.634766
-0.00732422,-0.630188
-0.00732422,-0.630188
-0.00726318,-0.630188
-0.00744629,-0.634766
-0.00720215,-0.634766
-0.00762939,-0.634766
-0.00817871,-0.636292
-0.00854492,-0.636292
-0.00891113,-0.639343
-0.00872803,-0.645447
-0.00823975,-0.65155
-0.0078125,-0.646973
-0.00762939,-0.640869
-0.00750732,-0.63324
-0.00744629,-0.63324
-0.00738525,-0.642395
-0.00762939,-0.65155
-0.00793457,-0.645447
-0.00811768,-0.630188
-0.00817871,-0.616455
-0.00805664,-0.6073
-0.00805664,-0.608826
-0.00830078,-0.614929
-0.00848389,-0.622559
-0.00866699,-0.622559
-0.00860596,-0.631714
-0.00866699,-0.639343
-0.00897217,-0.642395
-0.00915527,-0.640869
-0.00921631,-0.636292
-0.00915527,-0.63324
-0.00921631,-0.628662
-0.00952148,-0.634766
-0.00994873,-0.643921
-0.0101318,-0.650024
-0.0100708,-0.65155
-0.0101929,-0.65155
-0.0101929,-0.645447
-0.0101929,-0.636292
-0.0101318,-0.627136
-0.0100708,-0.617981
-0.0101929,-0.613403
-0.0105591,-0.616455
-0.0106812,-0.624084
-0.0108643,-0.631714
-0.0107422,-0.636292
-0.0108032,-0.634766
-0.0110474,-0.636292
-0.0111694,-0.640869
-0.0112305,-0.643921
-0.0111694,-0.646973
-0.0112915,-0.646973
-0.0115356,-0.646973
-0.0117188,-0.643921
-0.0117798,-0.640869
-0.0116577,-0.639343
-0.0117188,-0.631714
-0.0119019,-0.628662
-0.012146,-0.630188
-0.012146,-0.636292
-0.0120239,-0.645447
-0.0120239,-0.648499
-0.012146,-0.650024
-0.012207,-0.648499
-0.0122681,-0.646973
-0.012146,-0.65155
-0.012207,-0.650024
-0.0124512,-0.643921
-0.0126343,-0.636292
-0.0126343,-0.634766
-0.0124512,-0.637817
-0.0123901,-0.642395
-0.0125732,-0.643921
-0.0126953,-0.640869
-0.0128174,-0.631714
-0.0126953,-0.622559
-0.0127563,-0.619507
-0.0129395,-0.614929
-0.0133057,-0.616455
-0.0133057,-0.617981
-0.0131226,-0.622559
-0.0130005,-0.62561
-0.0131226,-0.630188
-0.0132446,-0.634766
-0.0133667,-0.637817
-0.0132446,-0.634766
-0.0131226,-0.63324
-0.0132446,-0.628662
-0.0133667,-0.624084
-0.0133667,-0.621033
-0.0131226,-0.621033
-0.0131226,-0.624084
-0.0134277,-0.63324
-0.0136719,-0.645447
-0.0137329,-0.656128
-0.0134888,-0.657654
-0.0133667,-0.653076
-0.0135498,-0.646973
-0.0137939,-0.636292
-0.0139771,-0.630188
-0.013855,-0.627136
-0.013855,-0.63324
-0.013916,-0.645447
-0.0139771,-0.653076
-0.013855,-0.656128
-0.0136719,-0.654602
-0.0136108,-0.648499
-0.013916,-0.643921
-0.0140991,-0.645447
-0.0141602,-0.646973
-0.0139771,-0.643921
-0.013855,-0.637817
-0.013916,-0.628662
-0.0140381,-0.611877
-0.0139771,-0.605774
-0.013855,-0.608826
-0.013855,-0.621033
-0.0139771,-0.636292
-0.0142212,-0.648499
-0.0141602,-0.654602
-0.0139771,-0.65155
-0.0137939,-0.650024
-0.013916,-0.640869
-0.0140381,-0.631714
-0.0139771,-0.636292
-0.013855,-0.642395
-0.013855,-0.65155
-0.0139771,-0.656128
-0.0142822,-0.650024
-0.0141602,-0.642395
-0.0139771,-0.640869
-0.013855,-0.648499
-0.0137939,-0.656128
-0.0137939,-0.656128
-0.0137329,-0.653076
-0.0135498,-0.645447
-0.0135498,-0.637817
-0.0137939,-0.634766
-0.013916,-0.636292
-0.0136719,-0.640869
-0.0134277,-0.634766
-0.0132446,-0.628662
-0.0134277,-0.616455
-0.0136108,-0.616455
-0.0136108,-0.630188
-0.0133667,-0.648499
-0.0132446,-0.666809
-0.0133057,-0.671387
-0.0134277,-0.660706
-0.0133667,-0.650024
-0.0131226,-0.640869
-0.0129395,-0.63324
-0.0128784,-0.640869
-0.0128174,-0.645447
-0.0126953,-0.654602
-0.0123901,-0.663757
-0.0122681,-0.668335
-0.0123291,-0.663757
-0.0122681,-0.65155
-0.0120239,-0.637817
-0.0116577,-0.631714
-0.0114746,-0.628662
-0.0115967,-0.62561
-0.0115967,-0.62561
-0.0115356,-0.621033
-0.0112915,-0.622559
-0.0111084,-0.62561
-0.0111694,-0.628662
-0.0110474,-0.627136
-0.0108643,-0.628662
-0.0105591,-0.634766
-0.010498,-0.636292
-0.0105591,-0.639343
-0.0106812,-0.636292
-0.010498,-0.637817
-0.0100098,-0.643921
-0.00970459,-0.656128
-0.00952148,-0.660706
-0.00921631,-0.653076
-0.0090332,-0.637817
-0.00872803,-0.62561
-0.00854492,-0.621033
-0.00842285,-0.62561
-0.00817871,-0.627136
-0.0078125,-0.627136
-0.00732422,-0.628662
-0.00708008,-0.630188
-0.00714111,-0.628662
-0.00762939,-0.622559
-0.00738525,-0.617981
-0.00695801,-0.616455
-0.00628662,-0.616455
-0.00567627,-0.622559
-0.00512695,-0.624084
-0.00476074,-0.619507
-0.0043335,-0.619507
-0.00402832,-0.617981
-0.00390625,-0.617981
-0.00372314,-0.617981
-0.0032959,-0.617981
-0.00280762,-0.621033
-0.00231934,-0.624084
-0.00213623,-0.624084
-0.00195313,-0.621033
-0.00152588,-0.624084
-0.000915527,-0.630188
-0.000366211,-0.637817
-0.00012207,-0.645447
0.000183105,-0.645447
0.00012207,-0.643921
0.000671387,-0.637817
0.0010376,-0.63324
0.00146484,-0.63324
0.00201416,-0.624084
0.00256348,-0.619507
0.00268555,-0.619507
0.00299072,-0.619507
0.0032959,-0.62561
0.00384521,-0.631714
0.00469971,-0.637817
0.00549316,-0.639343
0.00598145,-0.631714
0.00622559,-0.62561
0.00640869,-0.621033
0.00689697,-0.627136
0.00750732,-0.637817
0.00799561,-0.642395
0.00830078,-0.640869
0.00866699,-0.624084
0.00921631,-0.610352
0.0098877,-0.601196
0.0103149,-0.596619
0.0105591,-0.601196
0.0108643,-0.6073
0.0112305,-0.617981
0.0117798,-0.624084
0.012146,-0.627136
0.0123901,-0.627136
0.0126953,-0.630188
0.0131836,-0.639343
0.0137939,-0.648499
0.0143433,-0.653076
0.0145874,-0.640869
0.0148926,-0.628662
0.0153198,-0.617981
0.0159302,-0.616455
0.0163574,-0.628662
0.0165405,-0.642395
0.0168457,-0.646973
0.0172119,-0.640869
0.0177612,-0.628662
0.0181885,-0.621033
0.0184937,-0.617981
0.0186768,-0.62561
0.019043,-0.637817
0.0194702,-0.648499
0.0198364,-0.653076
0.0200806,-0.657654
0.0201416,-0.653076
0.0205078,-0.639343
0.0209351,-0.630188
0.0213623,-0.624084
0.0216675,-0.621033
0.0220337,-0.62561
0.0223999,-0.630188
0.0227661,-0.628662
0.0229492,-0.619507
0.0228271,-0.613403
0.0230713,-0.610352
0.0233765,-0.616455
0.0239258,-0.628662
0.024353,-0.637817
0.024353,-0.636292
0.0245361,-0.628662
0.0247803,-0.627136
0.0252075,-0.631714
0.0255127,-0.634766
0.0254517,-0.628662
0.0254517,-0.617981
0.0256348,-0.605774
0.026062,-0.602722
0.0263062,-0.608826
0.0264282,-0.621033
0.0265503,-0.63324
0.0267334,-0.643921
0.0269775,-0.656128
0.0270996,-0.656128
0.0269165,-0.650024
0.0269165,-0.640869
0.0270996,-0.636292
0.0274658,-0.636292
0.0276489,-0.634766
0.0276489,-0.637817
0.0276489,-0.634766
0.027832,-0.637817
0.0280762,-0.646973
0.0281372,-0.654602
0.0279541,-0.65155
0.0278931,-0.645447
0.0273438,-0.639343
0.0275879,-0.630188
0.0275269,-0.621033
0.0275879,-0.611877
0.027832,-0.608826
0.0280151,-0.619507
0.0282593,-0.63324
0.0282593,-0.642395
0.0280762,-0.636292
0.0281372,-0.616455
0.0281982,-0.605774
0.0282593,-0.611877
0.0283203,-0.631714
0.0281982,-0.650024
0.0280762,-0.657654
0.0280151,-0.650024
0.0281982,-0.636292
0.0281372,-0.624084
0.0279541,-0.619507
0.0278931,-0.622559
0.0279541,-0.62561
0.0280762,-0.63324
0.0281372,-0.636292
0.0280151,-0.639343
0.0279541,-0.640869
0.0278931,-0.639343
0.0279541,-0.646973
0.027771,-0.650024
0.0274658,-0.65155
0.0273438,-0.648499
0.0273438,-0.639343
0.0274658,-0.630188
0.0273438,-0.624084
0.0270996,-0.622559
0.0269165,-0.622559
0.0269775,-0.622559
0.0270386,-0.624084
0.0270386,-0.631714
0.0267944,-0.645447
0.0267334,-0.653076
0.0267334,-0.657654
0.0268555,-0.654602
0.0267334,-0.643921
0.0263062,-0.637817
0.0259399,-0.63324
0.0258179,-0.63324
0.0258789,-0.634766
0.0258179,-0.63324
0.0255737,-0.63324
0.0251465,-0.630188
0.0250244,-0.627136
0.0249634,-0.621033
0.0249023,-0.614929
0.0247803,-0.611877
0.0245972,-0.610352
0.0245361,-0.616455
0.0244751,-0.62561
0.024292,-0.628662
0.0238037,-0.631714
0.0235596,-0.63324
0.0234375,-0.631714
0.0234375,-0.639343
0.0233154,-0.640869
0.0229492,-0.640869
0.022644,-0.637817
0.022522,-0.63324
0.022522,-0.63324
0.0223999,-0.631714
0.0219727,-0.628662
0.0215454,-0.624084
0.0213623,-0.621033
0.0213013,-0.619507
0.0213013,-0.619507
0.0209961,-0.619507
0.020813,-0.617981
0.0206299,-0.617981
0.0205078,-0.628662
0.0203857,-0.640869
0.0200195,-0.645447
0.0197754,-0.643921
0.0195923,-0.639343
0.0195313,-0.630188
0.0194092,-0.624084
0.019104,-0.619507
0.0188599,-0.616455
0.0187378,-0.622559
0.0186157,-0.631714
0.0184326,-0.639343
0.0180664,-0.646973
0.0177612,-0.645447
0.0175781,-0.65155
0.0174561,-0.65918
0.0172729,-0.662231
0.0169067,-0.653076
0.0166016,-0.639343
0.0165405,-0.631714
0.0164795,-0.636292
0.0162354,-0.643921
0.0157471,-0.648499
0.0153809,-0.646973
0.0148315,-0.650024
0.0146484,-0.662231
0.0144653,-0.671387
0.0141602,-0.668335
0.0142822,-0.650024
0.0144653,-0.627136
0.0144653,-0.613403
0.0142822,-0.616455
0.0137939,-0.62561
0.0134277,-0.639343
0.0133667,-0.648499
0.0133057,-0.656128
0.0131836,-0.65918
0.0128174,-0.657654
0.0125732,-0.646973
0.0123901,-0.643921
0.0123291,-0.636292
0.012146,-0.630188
0.0117798,-0.628662
0.0115356,-0.630188
0.0113525,-0.636292
0.0113525,-0.646973
0.0112305,-0.656128
0.0108643,-0.660706
0.0105591,-0.656128
0.010437,-0.648499
0.0103149,-0.643921
0.0101318,-0.636292
0.00970459,-0.63324
0.00933838,-0.628662
0.00927734,-0.628662
0.00927734,-0.627136
0.00915527,-0.628662
0.00878906,-0.631714
0.00848389,-0.634766
0.00836182,-0.634766
0.00823975,-0.636292
0.00805664,-0.637817
0.00762939,-0.639343
0.00726318,-0.636292
0.00701904,-0.63324
0.00695801,-0.628662
0.0067749,-0.631714
0.0065918,-0.63324
0.00640869,-0.636292
0.00634766,-0.636292
0.00628662,-0.630188
0.00616455,-0.631714
0.0057373,-0.637817
0.00543213,-0.645447
0.00531006,-0.653076
0.00524902,-0.657654
0.00506592,-0.653076
0.00476074,-0.640869
0.00457764,-0.637817
0.00457764,-0.636292
0.0045166,-0.636292
0.00439453,-0.639343
0.00390625,-0.63324
0.00360107,-0.619507
0.00341797,-0.616455
0.00335693,-0.621033
0.00323486,-0.628662
0.00292969,-0.639343
0.00268555,-0.643921
0.00262451,-0.650024
0.00268555,-0.656128
0.00256348,-0.656128
0.00219727,-0.653076
0.00189209,-0.645447
0.00177002,-0.630188
0.00170898,-0.627136
0.00152588,-0.627136
0.00115967,-0.627136
0.000854492,-0.63324
0.000732422,-0.640869
0.000671387,-0.65155
0.000549316,-0.660706
0.000183105,-0.666809
-0.00012207,-0.665283
-0.000183105,-0.65918
-0.000183105,-0.654602
-0.00012207,-0.646973
-0.000366211,-0.643921
-0.000549316,-0.65155
-0.000732422,-0.657654
-0.000976563,-0.665283
-0.00115967,-0.666809
-0.00152588,-0.656128
-0.00170898,-0.646973
-0.00164795,-0.636292
-0.00158691,-0.63324
-0.00177002,-0.639343
-0.00213623,-0.643921
-0.00244141,-0.646973
-0.00256348,-0.645447
-0.00256348,-0.640869
-0.00250244,-0.636292
-0.00274658,-0.630188
-0.00286865,-0.631714
-0.00299072,-0.634766
-0.00299072,-0.636292
-0.00311279,-0.637817
-0.003479,-0.643921
-0.00372314,-0.653076
-0.00378418,-0.663757
-0.00372314,-0.672913
-0.00384521,-0.669861
-0.00421143,-0.660706
-0.00445557,-0.653076
-0.00457764,-0.640869
-0.00457764,-0.642395
-0.00457764,-0.640869
-0.00482178,-0.639343
-0.00512695,-0.643921
-0.0055542,-0.646973
-0.00579834,-0.653076
-0.00616455,-0.654602
-0.00695801,-0.662231
-0.00689697,-0.666809
-0.00708008,-0.666809
-0.00695801,-0.656128
-0.00665283,-0.642395
-0.00653076,-0.630188
-0.00640869,-0.628662
-0.00671387,-0.636292
-0.0067749,-0.640869
-0.00744629,-0.645447
-0.00799561,-0.642395
-0.00793457,-0.640869
-0.00787354,-0.650024
-0.00762939,-0.656128
-0.00762939,-0.65918
-0.00769043,-0.657654
-0.0078125,-0.650024
-0.00811768,-0.645447
-0.00830078,-0.650024
-0.00909424,-0.654602
-0.00976563,-0.656128
-0.0098877,-0.660706
-0.00946045,-0.65918
-0.00878906,-0.65918
-0.00811768,-0.662231
-0.00799561,-0.654602
-0.00817871,-0.654602
-0.00830078,-0.65918
-0.00854492,-0.665283
-0.00878906,-0.665283
-0.00933838,-0.660706
-0.00958252,-0.650024
-0.0101318,-0.646973
-0.00994873,-0.654602
-0.00994873,-0.669861
-0.00976563,-0.680542
-0.0100708,-0.682068
-0.0101929,-0.672913
-0.0103149,-0.65918
-0.0106812,-0.654602
-0.0106812,-0.654602
-0.0110474,-0.666809
-0.0111694,-0.675964
-0.0111694,-0.675964
-0.0110474,-0.662231
-0.0110474,-0.643921
-0.0106201,-0.63324
-0.010376,-0.630188
-0.0102539,-0.637817
-0.0101318,-0.650024
-0.010437,-0.653076
-0.0106812,-0.65918
-0.0106812,-0.657654
-0.0105591,-0.653076
-0.0105591,-0.648499
-0.0109253,-0.637817
-0.0111694,-0.628662
-0.0112915,-0.622559
-0.0112305,-0.619507
-0.0111694,-0.621033
-0.0114136,-0.62561
-0.0116577,-0.628662
-0.0117188,-0.631714
-0.0117188,-0.631714
-0.0116577,-0.630188
-0.0119019,-0.63324
-0.0119629,-0.637817
-0.0119629,-0.642395
-0.0119019,-0.643921
-0.012085,-0.642395
-0.0124512,-0.642395
-0.0126953,-0.643921
-0.0126953,-0.646973
-0.0125122,-0.648499
-0.0124512,-0.643921
-0.0126343,-0.634766
-0.0128784,-0.627136
-0.0130005,-0.624084
-0.0129395,-0.627136
-0.0129395,-0.634766
-0.0131836,-0.640869
-0.0133057,-0.636292
-0.0133057,-0.628662
-0.0133667,-0.630188
-0.0133667,-0.636292
-0.0136719,-0.646973
-0.013855,-0.656128
-0.013916,-0.656128
-0.013855,-0.656128
-0.013916,-0.660706
-0.0142212,-0.663757
-0.0144043,-0.663757
-0.0144043,-0.65918
-0.0143433,-0.650024
-0.0143433,-0.643921
-0.0145874,-0.643921
-0.0147705,-0.645447
-0.0148315,-0.640869
-0.0148315,-0.636292
-0.0148926,-0.627136
-0.0151978,-0.627136
-0.015564,-0.637817
-0.015625,-0.648499
-0.015625,-0.648499
-0.015625,-0.643921
-0.0157471,-0.634766
-0.015686,-0.631714
-0.015564,-0.645447
-0.015564,-0.663757
-0.015625,-0.67749
-0.0159912,-0.67749
-0.0162354,-0.668335
-0.0163574,-0.657654
-0.0164185,-0.654602
-0.0164795,-0.657654
-0.0167236,-0.663757
-0.0168457,-0.65918
-0.0167847,-0.653076
-0.0167236,-0.646973
-0.0168457,-0.645447
-0.0171509,-0.646973
-0.017334,-0.650024
-0.017334,-0.650024
-0.0172119,-0.650024
-0.0170898,-0.648499
-0.017334,-0.643921
-0.0175171,-0.636292
-0.0175781,-0.636292
-0.0176392,-0.640869
-0.0176392,-0.640869
-0.0179443,-0.640869
-0.0180664,-0.636292
-0.0180054,-0.639343
-0.0179443,-0.646973
-0.0178833,-0.660706
-0.0181274,-0.668335
-0.0181885,-0.665283
-0.0181274,-0.650024
-0.0179443,-0.634766
-0.0180664,-0.624084
-0.0183105,-0.616455
-0.0184326,-0.617981
-0.0188599,-0.630188
-0.0187988,-0.643921
-0.0192871,-0.657654
-0.0195313,-0.665283
-0.0198975,-0.674438
-0.0194702,-0.67749
-0.019165,-0.675964
-0.0187378,-0.669861
-0.0186157,-0.657654
-0.0185547,-0.642395
-0.0185547,-0.637817
-0.0185547,-0.640869
-0.0185547,-0.643921
-0.0188599,-0.646973
-0.0189209,-0.646973
-0.0189209,-0.646973
-0.0187988,-0.643921
-0.0187988,-0.639343
-0.0189819,-0.630188
-0.019043,-0.63324
-0.019043,-0.639343
-0.019043,-0.648499
-0.019043,-0.650024
-0.0193481,-0.643921
-0.0193481,-0.634766
-0.0192871,-0.63324
-0.019165,-0.637817
-0.019165,-0.637817
-0.0194702,-0.634766
-0.0195313,-0.63324
-0.0194702,-0.631714
-0.0193481,-0.637817
-0.0193481,-0.643921
-0.0195313,-0.646973
-0.0196533,-0.646973
-0.0196533,-0.648499
-0.0195313,-0.65155
-0.0194092,-0.656128
-0.0195313,-0.660706
-0.0195313,-0.663757
-0.0195313,-0.665283
-0.0195313,-0.665283
-0.0196533,-0.65918
-0.0199585,-0.648499
-0.0199585,-0.643921
-0.0198975,-0.634766
-0.0197144,-0.631714
-0.0195923,-0.634766
-0.0198975,-0.636292
-0.0202026,-0.642395
-0.0202637,-0.643921
-0.0202026,-0.643921
-0.0200806,-0.642395
-0.0201416,-0.639343
-0.0200806,-0.634766
-0.0200806,-0.628662
-0.0200806,-0.624084
-0.0200806,-0.62561
-0.0203857,-0.631714
-0.0203857,-0.63324
-0.0203247,-0.631714
-0.0200806,-0.627136
-0.0200806,-0.621033
-0.0202637,-0.624084
-0.0202637,-0.634766
-0.0202026,-0.643921
-0.0199585,-0.654602
-0.0198364,-0.660706
-0.0200195,-0.662231
-0.0200195,-0.657654
-0.0199585,-0.650024
-0.0198364,-0.636292
-0.0197144,-0.628662
-0.0198364,-0.628662
-0.0198975,-0.63324
-0.0198975,-0.648499
-0.0197754,-0.660706
-0.0198364,-0.662231
-0.0200806,-0.653076
-0.0200195,-0.640869
-0.0198975,-0.630188
-0.0196533,-0.630188
-0.0196533,-0.637817
-0.0198364,-0.646973
-0.0199585,-0.65155
-0.0199585,-0.656128
-0.0198364,-0.653076
-0.0198975,-0.648499
-0.0201416,-0.645447
-0.0202026,-0.642395
-0.0201416,-0.640869
-0.0201416,-0.648499
-0.0202026,-0.654602
-0.0204468,-0.657654
-0.0204468,-0.654602
-0.0202026,-0.650024
-0.0199585,-0.640869
-0.0199585,-0.637817
-0.0201416,-0.637817
-0.0204468,-0.645447
-0.0210571,-0.660706
-0.020874,-0.660706
-0.0215454,-0.660706
-0.0214233,-0.648499
-0.0210571,-0.634766
-0.0205078,-0.631714
-0.0199585,-0.634766
-0.0197754,-0.637817
-0.0199585,-0.643921
-0.0201416,-0.645447
-0.0201416,-0.648499
-0.0200195,-0.650024
-0.0198975,-0.643921
-0.0200195,-0.640869
-0.0199585,-0.63324
-0.0198364,-0.636292
-0.0197144,-0.646973
-0.0196533,-0.65918
-0.0198975,-0.668335
-0.0198975,-0.671387
-0.0198364,-0.669861
-0.0197754,-0.662231
-0.0197144,-0.65155
-0.0198975,-0.640869
-0.0198364,-0.637817
-0.0197144,-0.639343
-0.0195313,-0.648499
-0.0194702,-0.654602
-0.0198364,-0.656128
-0.0199585,-0.653076
-0.0198975,-0.65155
-0.0197144,-0.656128
-0.0194702,-0.657654
-0.0195313,-0.656128
-0.0196533,-0.657654
-0.0195313,-0.654602
-0.0194092,-0.654602
-0.0193481,-0.660706
-0.0194092,-0.660706
-0.0194092,-0.656128
-0.0192871,-0.654602
-0.019104,-0.65155
-0.019104,-0.65155
-0.0192261,-0.648499
-0.0192871,-0.650024
-0.0192261,-0.648499
-0.019104,-0.650024
-0.019104,-0.65155
-0.0192871,-0.650024
-0.0194702,-0.653076
-0.0192871,-0.656128
-0.019165,-0.656128
-0.019043,-0.656128
-0.019165,-0.650024
-0.019165,-0.640869
-0.019104,-0.634766
-0.0189819,-0.634766
-0.0189819,-0.639343
-0.0192261,-0.640869
-0.019104,-0.637817
-0.0189209,-0.630188
-0.0187378,-0.622559
-0.0187378,-0.617981
-0.019043,-0.631714
-0.019104,-0.645447
-0.0189209,-0.656128
-0.0186768,-0.654602
-0.0185547,-0.646973
-0.0187378,-0.642395
-0.0188599,-0.645447
-0.0186768,-0.646973
-0.0186157,-0.643921
-0.0184937,-0.634766
-0.0186768,-0.62561
-0.0186768,-0.627136
-0.0185547,-0.636292
-0.0184326,-0.65155
-0.0184326,-0.662231
-0.0186768,-0.653076
-0.0186768,-0.639343
-0.0186157,-0.619507
-0.0183716,-0.605774
-0.0183105,-0.608826
-0.0184326,-0.619507
-0.0184326,-0.630188
-0.0183105,-0.639343
-0.0180664,-0.643921
-0.0180054,-0.653076
-0.0181274,-0.665283
-0.0181274,-0.669861
-0.0179443,-0.668335
-0.0178223,-0.660706
-0.0178223,-0.648499
-0.0179443,-0.640869
-0.0178833,-0.637817
-0.0176392,-0.640869
-0.017395,-0.646973
-0.017395,-0.656128
-0.0177002,-0.657654
-0.0180664,-0.665283
-0.0187378,-0.674438
-0.0186768,-0.674438
-0.0184937,-0.67749
-0.0181274,-0.665283
-0.017395,-0.648499
-0.0169067,-0.640869
-0.0167236,-0.63324
-0.0169067,-0.634766
-0.0172729,-0.637817
-0.0172729,-0.643921
-0.0172119,-0.648499
-0.0170288,-0.650024
-0.0168457,-0.650024
-0.0169067,-0.637817
-0.0168457,-0.636292
-0.0167236,-0.637817
-0.0165405,-0.642395
-0.0165405,-0.648499
-0.0166626,-0.650024
-0.0165405,-0.65155
-0.0163574,-0.65155
-0.0161743,-0.656128
-0.0161133,-0.657654
-0.0162354,-0.656128
-0.0162964,-0.650024
-0.0161743,-0.643921
-0.0160522,-0.63324
-0.0159912,-0.62561
-0.0160522,-0.619507
-0.0159912,-0.619507
-0.0158081,-0.622559
-0.015564,-0.630188
-0.0155029,-0.639343
-0.015686,-0.640869
-0.015686,-0.637817
-0.015686,-0.630188
-0.015625,-0.627136
-0.015564,-0.62561
-0.015686,-0.634766
-0.015564,-0.640869
-0.0152588,-0.646973
-0.0150146,-0.653076
-0.0148926,-0.646973
-0.0149536,-0.642395
-0.0149536,-0.636292
-0.0147705,-0.634766
-0.0145874,-0.637817
-0.0144653,-0.642395
-0.0144653,-0.642395
-0.0145874,-0.636292
-0.0142212,-0.624084
-0.0139771,-0.616455
-0.0137329,-0.616455
-0.0136108,-0.628662
-0.0134888,-0.642395
-0.0132446,-0.653076
-0.0130005,-0.657654
-0.0127563,-0.648499
-0.0128174,-0.637817
-0.0126343,-0.628662
-0.0123291,-0.622559
-0.0119629,-0.624084
-0.0117798,-0.624084
-0.0117798,-0.614929
-0.0115967,-0.59967
-0.0112915,-0.585938
-0.0108643,-0.584412
-0.0106201,-0.593567
-0.010498,-0.616455
-0.0101929,-0.637817
-0.00976563,-0.65155
-0.00939941,-0.65918
-0.00915527,-0.654602
-0.00915527,-0.646973
-0.00897217,-0.639343
-0.00866699,-0.634766
-0.00830078,-0.634766
-0.00805664,-0.637817
-0.00793457,-0.640869
-0.00769043,-0.642395
-0.00732422,-0.637817
-0.00683594,-0.631714
-0.00640869,-0.62561
-0.00622559,-0.624084
-0.00592041,-0.62561
-0.00543213,-0.624084
-0.00506592,-0.621033
-0.00469971,-0.621033
-0.00469971,-0.619507
-0.00463867,-0.62561
-0.00421143,-0.630188
-0.00378418,-0.628662
-0.0032959,-0.627136
-0.00299072,-0.621033
-0.00256348,-0.617981
-0.00201416,-0.621033
-0.00158691,-0.624084
-0.0012207,-0.63324
-0.000976563,-0.640869
-0.000610352,-0.642395
-0.000976563,-0.640869
-0.000488281,-0.630188
-0.0010376,-0.631714
-0.000549316,-0.627136
-0.000305176,-0.637817
0.000915527,-0.643921
0.00201416,-0.653076
0.00292969,-0.646973
0.00280762,-0.643921
0.00341797,-0.634766
0.00384521,-0.624084
0.00476074,-0.617981
0.00585938,-0.617981
0.00653076,-0.613403
0.00695801,-0.611877
0.00744629,-0.614929
0.00787354,-0.617981
0.00830078,-0.62561
0.00860596,-0.627136
0.0090332,-0.627136
0.00970459,-0.622559
0.0103149,-0.613403
0.0108032,-0.604248
0.0111084,-0.601196
0.0115356,-0.604248
0.012146,-0.614929
0.0128174,-0.62561
0.0133057,-0.634766
0.0136719,-0.63324
0.0141602,-0.631714
0.0147095,-0.639343
0.0153198,-0.643921
0.0157471,-0.645447
0.0159912,-0.639343
0.0164795,-0.628662
0.0170898,-0.624084
0.0177612,-0.62561
0.0183105,-0.631714
0.0186157,-0.634766
0.0188599,-0.636292
0.0193481,-0.640869
0.0198364,-0.646973
0.0203857,-0.65155
0.020813,-0.653076
0.0213623,-0.646973
0.0219116,-0.634766
0.022522,-0.628662
0.0229492,-0.62561
0.0233765,-0.622559
0.0238037,-0.621033
0.0244141,-0.614929
0.0249023,-0.611877
0.0252686,-0.608826
0.0253906,-0.6073
0.0257568,-0.611877
0.0262451,-0.617981
0.0268555,-0.628662
0.0271606,-0.640869
0.0273438,-0.650024
0.0276489,-0.650024
0.0282593,-0.643921
0.0287476,-0.642395
0.0292358,-0.642395
0.0293579,-0.648499
0.029541,-0.65155
0.0299072,-0.648499
0.0303345,-0.642395
0.0306396,-0.639343
0.0307007,-0.643921
0.0309448,-0.650024
0.0313721,-0.653076
0.0317993,-0.642395
0.0320435,-0.62561
0.0320435,-0.604248
0.0322266,-0.593567
0.0325928,-0.596619
0.032959,-0.608826
0.0332642,-0.628662
0.0332642,-0.640869
0.0333862,-0.646973
0.0336304,-0.645447
0.0338745,-0.634766
0.0340576,-0.621033
0.0340576,-0.605774
0.0342407,-0.59967
0.0345459,-0.602722
0.0348511,-0.617981
0.0349731,-0.63324
0.03479,-0.636292
0.0346069,-0.636292
0.03479,-0.631714
0.0350342,-0.631714
0.0352783,-0.630188
0.0354004,-0.630188
0.0355225,-0.624084
0.0357056,-0.621033
0.0358276,-0.621033
0.0360107,-0.622559
0.0359497,-0.622559
0.0360107,-0.616455
0.0350952,-0.622559
0.0352173,-0.62561
0.0349121,-0.628662
0.0350952,-0.630188
0.0357666,-0.630188
0.036377,-0.628662
0.036499,-0.640869
0.036438,-0.646973
0.0360718,-0.646973
0.0359497,-0.636292
0.0361328,-0.622559
0.0361328,-0.610352
0.0360718,-0.605774
0.0358276,-0.605774
0.0357056,-0.6073
0.0357666,-0.6073
0.0359497,-0.611877
0.0358887,-0.619507
0.0357056,-0.631714
0.0356445,-0.645447
0.0356445,-0.648499
0.0355835,-0.642395
0.0354614,-0.630188
0.0351563,-0.610352
0.0350952,-0.602722
0.0351563,-0.598145
0.0351563,-0.608826
0.0350342,-0.614929
0.034668,-0.622559
0.034668,-0.622559
0.034668,-0.619507
0.034729,-0.619507
0.0346069,-0.621033
0.0343018,-0.622559
0.0342407,-0.62561
0.0342407,-0.621033
0.0342407,-0.622559
0.0340576,-0.630188
0.0337524,-0.63324
0.0332642,-0.640869
0.0332031,-0.643921
0.0331421,-0.639343
0.0330811,-0.637817
0.032959,-0.631714
0.03302,-0.627136
0.0331421,-0.630188
0.03302,-0.63324
0.0328369,-0.639343
0.0324097,-0.637817
0.0322266,-0.63324
0.0321655,-0.628662
0.0321045,-0.624084
0.0319824,-0.627136
0.0316772,-0.628662
0.0314331,-0.63324
0.0313721,-0.637817
0.031311,-0.640869
0.0310669,-0.639343
0.0307007,-0.631714
0.0304565,-0.630188
0.0303955,-0.636292
0.0303345,-0.640869
0.0300903,-0.646973
0.0297241,-0.643921
0.029541,-0.637817
0.02948,-0.637817
0.0294189,-0.637817
0.0292969,-0.643921
0.0289307,-0.642395
0.0286255,-0.642395
0.0285645,-0.642395
0.0283813,-0.643921
0.0281982,-0.640869
0.027771,-0.636292
0.0275269,-0.628662
0.0275269,-0.619507
0.0274048,-0.617981
0.0272217,-0.619507
0.0267944,-0.627136
0.0265503,-0.631714
0.0264893,-0.63324
0.0263672,-0.63324
0.026123,-0.631714
0.0256958,-0.627136
0.0254517,-0.627136
0.0253906,-0.622559
0.0253296,-0.617981
0.0250854,-0.616455
0.0246582,-0.617981
0.0241699,-0.628662
0.0240479,-0.642395
0.0239258,-0.656128
0.0237427,-0.656128
0.0235596,-0.65155
0.0233765,-0.646973
0.0233154,-0.640869
0.0231934,-0.636292
0.0229492,-0.636292
0.022522,-0.628662
0.0222778,-0.621033
0.0221558,-0.616455
0.0220947,-0.619507
0.0219727,-0.624084
0.0216675,-0.631714
0.0215454,-0.640869
0.0215454,-0.640869
0.0214844,-0.639343
0.0212402,-0.63324
0.020874,-0.63324
0.0205688,-0.637817
0.0204468,-0.645447
0.0203857,-0.65155
0.0202026,-0.656128
0.0198364,-0.660706
0.0195923,-0.65918
0.0194702,-0.653076
0.0192871,-0.648499
0.0189819,-0.642395
0.0186157,-0.640869
0.0184326,-0.636292
0.0184326,-0.631714
0.0183105,-0.62561
0.0180664,-0.627136
0.0176392,-0.631714
0.017395,-0.637817
0.017395,-0.642395
0.017334,-0.646973
0.0171509,-0.65155
0.0168457,-0.656128
0.0165405,-0.666809
0.0166016,-0.671387
0.0164795,-0.674438
0.0162354,-0.674438
0.0157471,-0.663757
0.0155029,-0.643921
0.0155029,-0.628662
0.0154419,-0.622559
0.0149536,-0.624084
0.0142212,-0.640869
0.013916,-0.654602
0.0133057,-0.665283
0.0133057,-0.663757
0.0132446,-0.650024
0.0119629,-0.642395
0.0110474,-0.634766
0.0111694,-0.630188
0.0108643,-0.642395
0.0119019,-0.650024
0.0125732,-0.663757
0.0129395,-0.672913
0.0132446,-0.67749
0.0131836,-0.674438
0.0128784,-0.672913
0.0123291,-0.671387
0.0120239,-0.663757
0.0119629,-0.657654
0.0120239,-0.65155
0.0120239,-0.639343
0.0117188,-0.628662
0.0115356,-0.627136
0.0115356,-0.628662
0.0114746,-0.642395
0.0112915,-0.654602
0.0109863,-0.663757
0.0108032,-0.660706
0.0108032,-0.654602
0.0107422,-0.65918
0.0106201,-0.657654
0.0102539,-0.65918
0.00994873,-0.65155
0.00994873,-0.636292
0.00982666,-0.622559
0.00964355,-0.622559
0.00933838,-0.630188
0.00915527,-0.639343
0.00909424,-0.643921
0.0090332,-0.646973
0.0088501,-0.645447
0.00842285,-0.642395
0.00823975,-0.634766
0.00823975,-0.62561
0.00823975,-0.614929
0.00799561,-0.617981
0.00744629,-0.627136
0.00714111,-0.645447
0.00708008,-0.65918
0.00708008,-0.666809
0.00701904,-0.663757
0.00671387,-0.660706
0.0065918,-0.65155
0.0065918,-0.642395
0.00646973,-0.636292
0.00628662,-0.62561
0.00592041,-0.614929
0.00561523,-0.602722
0.00561523,-0.598145
0.0055542,-0.602722
0.00543213,-0.614929
0.00518799,-0.627136
0.00500488,-0.637817
0.00506592,-0.643921
0.00500488,-0.642395
0.00488281,-0.637817
0.0045166,-0.637817
0.0043335,-0.640869
0.00427246,-0.645447
0.00415039,-0.646973
0.00390625,-0.648499
0.00360107,-0.640869
0.00341797,-0.637817
0.00354004,-0.645447
0.00354004,-0.656128
0.00335693,-0.660706
0.00305176,-0.657654
0.00286865,-0.645447
0.00286865,-0.63324
0.00286865,-0.631714
0.00262451,-0.630188
0.0022583,-0.628662
0.00213623,-0.631714
0.00219727,-0.636292
0.0022583,-0.645447
0.0022583,-0.65155
0.00189209,-0.65155
0.00164795,-0.645447
0.00158691,-0.640869
0.00146484,-0.643921
0.00134277,-0.645447
0.0010376,-0.640869
0.000915527,-0.63324
0.0010376,-0.631714
0.00109863,-0.628662
0.0010376,-0.636292
0.000610352,-0.640869
0.000427246,-0.637817
0.000488281,-0.634766
0.000488281,-0.630188
0.000427246,-0.621033
0.00012207,-0.616455
-6.10352,-0.621033
0.0,-0.631714
6.10352,-0.65155
6.10352,-0.662231
-0.000244141,-0.663757
-0.000366211,-0.648499
-0.000366211,-0.631714
-0.000427246,-0.628662
-0.000488281,-0.636292
-0.000793457,-0.650024
-0.000854492,-0.657654
-0.000793457,-0.65155
-0.000732422,-0.639343
-0.000793457,-0.639343
-0.0010376,-0.648499
-0.00115967,-0.65918
-0.0010376,-0.663757
-0.000976563,-0.660706
-0.0010376,-0.648499
-0.0012207,-0.639343
-0.00134277,-0.636292
-0.0012207,-0.637817
-0.0012207,-0.640869
-0.00128174,-0.646973
-0.00140381,-0.648499
-0.00152588,-0.645447
-0.00146484,-0.645447
-0.00140381,-0.642395
-0.00146484,-0.645447
-0.00158691,-0.646973
-0.00146484,-0.650024
-0.0012207,-0.650024
-0.0010376,-0.654602
-0.00109863,-0.663757
-0.00146484,-0.669861
-0.00164795,-0.666809
-0.00152588,-0.65918
-0.00134277,-0.645447
-0.00134277,-0.639343
-0.00146484,-0.642395
-0.00152588,-0.646973
-0.00134277,-0.656128
-0.0012207,-0.656128
-0.00115967,-0.657654
-0.00140381,-0.65155
-0.00146484,-0.650024
-0.00134277,-0.643921
-0.0012207,-0.636292
-0.0012207,-0.637817
-0.00140381,-0.637817
-0.00146484,-0.636292
-0.00128174,-0.639343
-0.00115967,-0.631714
-0.0010376,-0.630188
-0.0012207,-0.63324
-0.0012207,-0.643921
-0.0010376,-0.648499
-0.000793457,-0.648499
-0.000793457,-0.643921
-0.000976563,-0.636292
-0.00109863,-0.630188
-0.000976563,-0.631714
-0.000793457,-0.642395
-0.000671387,-0.645447
-0.000793457,-0.650024
-0.000732422,-0.648499
-0.000488281,-0.648499
-0.000488281,-0.656128
-0.000488281,-0.660706
-0.000671387,-0.668335
-0.000671387,-0.666809
-0.000427246,-0.660706
-0.000244141,-0.654602
-0.000183105,-0.653076
-0.000305176,-0.646973
-0.000305176,-0.646973
-0.000244141,-0.642395
-0.00012207,-0.639343
-0.000183105,-0.636292
-0.000366211,-0.63324
-0.000305176,-0.631714
-6.10352,-0.63324
0.000183105,-0.640869
0.000244141,-0.65155
0.00012207,-0.657654
6.10352,-0.656128
0.000305176,-0.646973
0.000488281,-0.63324
0.000488281,-0.617981
0.000305176,-0.613403
0.000305176,-0.616455
0.000427246,-0.62561
0.000671387,-0.639343
0.000793457,-0.640869
0.000732422,-0.63324
0.000732422,-0.62561
0.000976563,-0.627136
0.00115967,-0.643921
0.00115967,-0.657654
0.00115967,-0.660706
0.00128174,-0.650024
0.00164795,-0.634766
0.00183105,-0.62561
0.00183105,-0.627136
0.00164795,-0.63324
0.00152588,-0.639343
0.00177002,-0.648499
0.00195313,-0.646973
0.00201416,-0.645447
0.00195313,-0.648499
0.00195313,-0.65155
0.00213623,-0.654602
0.0022583,-0.654602
0.00219727,-0.646973
0.00201416,-0.637817
0.00201416,-0.630188
0.00231934,-0.630188
0.00250244,-0.631714
0.00262451,-0.642395
0.00244141,-0.650024
0.00238037,-0.656128
0.00250244,-0.663757
0.00268555,-0.663757
0.00280762,-0.657654
0.00280762,-0.653076
0.00286865,-0.650024
0.00311279,-0.640869
0.00317383,-0.640869
0.00317383,-0.640869
0.00299072,-0.642395
0.00292969,-0.648499
0.00323486,-0.653076
0.003479,-0.654602
0.00354004,-0.654602
0.00341797,-0.646973
0.00335693,-0.639343
0.00354004,-0.636292
0.00366211,-0.636292
0.00366211,-0.643921
0.003479,-0.656128
0.00354004,-0.660706
0.00378418,-0.662231
0.00390625,-0.65155
0.00396729,-0.63324
0.00384521,-0.613403
0.00384521,-0.611877
0.00402832,-0.613403
0.00415039,-0.628662
0.00408936,-0.646973
0.00396729,-0.662231
0.00402832,-0.666809
0.00427246,-0.668335
0.00445557,-0.657654
0.0045166,-0.646973
0.00427246,-0.640869
0.00427246,-0.636292
0.0045166,-0.639343
0.00469971,-0.643921
0.00476074,-0.648499
0.00463867,-0.654602
0.00476074,-0.65918
0.00500488,-0.65918
0.00518799,-0.654602
0.00524902,-0.646973
0.00494385,-0.639343
0.00476074,-0.634766
0.00488281,-0.630188
0.00500488,-0.630188
0.00518799,-0.630188
0.00524902,-0.63324
0.00543213,-0.634766
0.00561523,-0.636292
0.0057373,-0.639343
0.00567627,-0.642395
0.00549316,-0.643921
0.00549316,-0.65155
0.0057373,-0.65155
0.00579834,-0.657654
0.0057373,-0.662231
0.00549316,-0.662231
0.00537109,-0.663757
0.00561523,-0.660706
0.00585938,-0.656128
0.00592041,-0.648499
0.00585938,-0.643921
0.0057373,-0.634766
0.00585938,-0.627136
0.00598145,-0.627136
0.00585938,-0.631714
0.00567627,-0.640869
0.00567627,-0.656128
0.00592041,-0.663757
0.00616455,-0.665283
0.00616455,-0.660706
0.00604248,-0.646973
0.00604248,-0.636292
0.00622559,-0.631714
0.00634766,-0.628662
0.00634766,-0.628662
0.00622559,-0.628662
0.00628662,-0.628662
0.00646973,-0.624084
0.0065918,-0.62561
0.00646973,-0.627136
0.00628662,-0.631714
0.00634766,-0.637817
0.00634766,-0.646973
0.00622559,-0.654602
0.00585938,-0.65918
0.00518799,-0.656128
0.00531006,-0.643921
0.0057373,-0.637817
0.00634766,-0.636292
0.00646973,-0.648499
0.00604248,-0.665283
0.00585938,-0.672913
0.00592041,-0.672913
0.00640869,-0.662231
0.00689697,-0.653076
0.00695801,-0.648499
0.00689697,-0.643921
0.00616455,-0.643921
0.00616455,-0.645447
0.00598145,-0.650024
0.00531006,-0.657654
0.00585938,-0.654602
0.00628662,-0.65155
0.00689697,-0.646973
0.00732422,-0.642395
0.00744629,-0.643921
0.00732422,-0.642395
0.00732422,-0.639343
0.00732422,-0.639343
0.00695801,-0.645447
0.00634766,-0.650024
0.00628662,-0.653076
0.00653076,-0.65155
0.00720215,-0.645447
0.00769043,-0.642395
0.00762939,-0.637817
0.00744629,-0.643921
0.00738525,-0.65918
0.00726318,-0.662231
0.00714111,-0.660706
0.00695801,-0.648499
0.00708008,-0.630188
0.00732422,-0.631714
0.00750732,-0.646973
0.00750732,-0.660706
0.00738525,-0.662231
0.00732422,-0.653076
0.00750732,-0.637817
0.00762939,-0.622559
0.00769043,-0.619507
0.00756836,-0.616455
0.00769043,-0.613403
0.00793457,-0.621033
0.00811768,-0.630188
0.00811768,-0.642395
0.00793457,-0.646973
0.00793457,-0.645447
0.00811768,-0.639343
0.00836182,-0.639343
0.00842285,-0.642395
0.00830078,-0.65155
0.00823975,-0.654602
0.00830078,-0.65155
0.00836182,-0.643921
0.00836182,-0.631714
0.00830078,-0.616455
0.00842285,-0.610352
0.00878906,-0.616455
0.00891113,-0.624084
0.00891113,-0.63324
0.00872803,-0.642395
0.00872803,-0.642395
0.00891113,-0.640869
0.00897217,-0.637817
0.00897217,-0.636292
0.0088501,-0.63324
0.00897217,-0.63324
0.00921631,-0.634766
0.00946045,-0.634766
0.00946045,-0.631714
0.00927734,-0.624084
0.00921631,-0.614929
0.00939941,-0.610352
0.00952148,-0.611877
0.00958252,-0.622559
0.00952148,-0.63324
0.00958252,-0.642395
0.00982666,-0.646973
0.0098877,-0.646973
0.00994873,-0.645447
0.0098877,-0.642395
0.0098877,-0.646973
0.0100708,-0.646973
0.0101929,-0.645447
0.0101929,-0.642395
0.0101318,-0.634766
0.0101929,-0.628662
0.010437,-0.634766
0.010437,-0.642395
0.010437,-0.65155
0.0102539,-0.657654
0.0103149,-0.657654
0.0105591,-0.656128
0.0105591,-0.656128
0.0105591,-0.660706
0.010437,-0.65918
0.010498,-0.656128
0.0107422,-0.648499
0.0108643,-0.645447
0.0108032,-0.645447
0.0106812,-0.648499
0.0106812,-0.648499
0.0109863,-0.645447
0.0111084,-0.636292
0.0111694,-0.624084
0.0111694,-0.613403
0.0111694,-0.610352
0.0114136,-0.614929
0.0115356,-0.628662
0.0114746,-0.642395
0.0113525,-0.645447
0.0113525,-0.648499
0.0116577,-0.646973
0.0118408,-0.637817
0.0119019,-0.62561
0.0117188,-0.614929
0.0117188,-0.614929
0.0119019,-0.624084
0.0120239,-0.636292
0.012207,-0.650024
0.0122681,-0.656128
0.0124512,-0.656128
0.0127563,-0.653076
0.0130005,-0.648499
0.0131226,-0.646973
0.0130615,-0.646973
0.0130615,-0.653076
0.0132446,-0.662231
0.0131836,-0.660706
0.0131226,-0.65155
0.0129395,-0.631714
0.0129395,-0.617981
0.0131226,-0.611877
0.0132446,-0.619507
0.0132446,-0.634766
0.0131226,-0.645447
0.0131226,-0.653076
0.0133667,-0.657654
0.0134888,-0.660706
0.0134277,-0.657654
0.0133057,-0.656128
0.0132446,-0.650024
0.0134277,-0.639343
0.0134888,-0.624084
0.0135498,-0.611877
0.0134277,-0.6073
0.0131836,-0.619507
0.0130615,-0.634766
0.0130615,-0.643921
0.0130005,-0.645447
0.0132446,-0.639343
0.0137329,-0.637817
0.0141602,-0.645447
0.0142212,-0.653076
0.0140381,-0.654602
0.013855,-0.643921
0.0137939,-0.628662
0.0140381,-0.621033
0.0142822,-0.619507
0.0142212,-0.627136
0.0140381,-0.639343
0.0139771,-0.643921
0.0141602,-0.646973
0.0143433,-0.642395
0.0144653,-0.639343
0.0143433,-0.639343
0.0143433,-0.636292
0.0144653,-0.637817
0.0144043,-0.63324
0.0142822,-0.624084
0.0141602,-0.613403
0.0140991,-0.613403
0.0143433,-0.619507
0.0144653,-0.631714
0.0144653,-0.636292
0.0143433,-0.636292
0.0144653,-0.631714
0.0146484,-0.631714
0.0147705,-0.63324
0.0146484,-0.634766
0.0144653,-0.628662
0.0142822,-0.621033
0.0144043,-0.617981
0.0144653,-0.616455
0.0144043,-0.621033
0.0143433,-0.624084
0.0142822,-0.624084
0.0144653,-0.631714
0.0144653,-0.634766
0.0143433,-0.642395
0.0140991,-0.645447
0.0139771,-0.636292
0.0140991,-0.630188
0.0140991,-0.624084
0.0140991,-0.627136
0.0139771,-0.627136
0.013916,-0.628662
0.0134277,-0.624084
0.0134277,-0.610352
0.0131836,-0.598145
0.0132446,-0.598145
0.0136719,-0.601196
0.0142212,-0.621033
0.0144043,-0.637817
0.0141602,-0.643921
0.0139771,-0.643921
0.013855,-0.631714
0.0139771,-0.621033
0.0140381,-0.610352
0.0139771,-0.610352
0.0137939,-0.610352
0.0137329,-0.621033
0.0139771,-0.627136
0.0141602,-0.628662
0.0142822,-0.628662
0.0142822,-0.631714
0.0144043,-0.640869
0.0145874,-0.648499
0.0145264,-0.65155
0.0143433,-0.645447
0.0140381,-0.634766
0.013916,-0.628662
0.0140991,-0.624084
0.0140991,-0.621033
0.0140991,-0.616455
0.013916,-0.617981
0.013855,-0.62561
0.013916,-0.639343
0.013916,-0.648499
0.0137939,-0.648499
0.0136108,-0.643921
0.0136719,-0.636292
0.013916,-0.63324
0.013916,-0.63324
0.0136719,-0.630188
0.0134277,-0.624084
0.0130005,-0.62561
0.0131226,-0.622559
0.0131836,-0.62561
0.0131836,-0.628662
0.0133057,-0.628662
0.0134888,-0.63324
0.013855,-0.636292
0.0139771,-0.640869
0.0137939,-0.642395
0.0134888,-0.640869
0.0126343,-0.643921
0.0127563,-0.639343
0.0126953,-0.639343
0.0130005,-0.636292
0.0133667,-0.62561
0.0137939,-0.614929
0.0139771,-0.614929
0.013855,-0.613403
0.0136108,-0.621033
0.0134277,-0.630188
0.0133667,-0.636292
0.0136108,-0.643921
0.0136719,-0.650024
0.0137329,-0.646973
0.0135498,-0.639343
0.0135498,-0.63324
0.0136719,-0.628662
0.0137329,-0.62561
0.0136108,-0.62561
0.0134888,-0.621033
0.0134888,-0.616455
0.0137329,-0.619507
0.013855,-0.631714
0.0137939,-0.643921
0.0135498,-0.65155
0.0134888,-0.654602
0.0136719,-0.645447
0.0137329,-0.627136
0.0137939,-0.617981
0.0136719,-0.611877
0.0136108,-0.617981
0.0137939,-0.63324
0.0137939,-0.650024
0.0137329,-0.656128
0.0137329,-0.65155
0.0137939,-0.639343
0.0141602,-0.62561
0.0142822,-0.624084
0.0142212,-0.636292
0.0139771,-0.645447
0.013916,-0.646973
0.0140381,-0.636292
0.0140381,-0.621033
0.0139771,-0.608826
0.0137939,-0.604248
0.0137329,-0.605774
0.0137939,-0.617981
0.0137939,-0.628662
0.0136108,-0.637817
0.0134888,-0.645447
0.0128174,-0.645447
0.0130005,-0.640869
0.0129395,-0.645447
0.0131226,-0.648499
0.0135498,-0.65155
0.013916,-0.643921
0.0140991,-0.636292
0.0139771,-0.630188
0.0136719,-0.630188
0.0134277,-0.639343
0.0133057,-0.650024
0.0135498,-0.656128
0.0136719,-0.648499
0.0135498,-0.630188
0.0134888,-0.610352
0.0135498,-0.598145
0.0136719,-0.59967
0.0136719,-0.611877
0.0134888,-0.621033
0.0131836,-0.630188
0.0131836,-0.634766
0.0133667,-0.637817
0.0134277,-0.642395
0.0133667,-0.639343
0.0131836,-0.630188
0.0132446,-0.621033
0.0134888,-0.617981
0.0136108,-0.627136
0.0135498,-0.643921
0.0133057,-0.657654
0.0132446,-0.656128
0.0125732,-0.65155
0.0125122,-0.631714
0.0117188,-0.627136
0.0118408,-0.616455
0.0114746,-0.616455
0.0122681,-0.614929
0.0125732,-0.608826
0.0126343,-0.605774
0.0125122,-0.611877
0.0126953,-0.624084
0.0127563,-0.640869
0.0130615,-0.65155
0.0130615,-0.656128
0.0124512,-0.653076
0.0122681,-0.646973
0.0123291,-0.642395
0.0128174,-0.628662
0.0133057,-0.622559
0.0133667,-0.622559
0.0132446,-0.624084
0.0132446,-0.631714
0.0131226,-0.631714
0.0129395,-0.624084
0.0128784,-0.619507
0.0128784,-0.619507
0.0131226,-0.622559
0.0132446,-0.62561
0.0131226,-0.630188
0.0128784,-0.630188
0.0128784,-0.631714
0.0131226,-0.63324
0.0131836,-0.636292
0.0131836,-0.63324
0.0129395,-0.62561
0.0129395,-0.614929
0.0130615,-0.610352
0.0131226,-0.605774
0.0130005,-0.613403
0.0128784,-0.622559
0.0129395,-0.630188
0.0131836,-0.637817
0.0133667,-0.645447
0.0133057,-0.650024
0.0130615,-0.650024
0.0128784,-0.646973
0.0130005,-0.643921
0.0131836,-0.640869
0.0131226,-0.639343
0.0128784,-0.636292
0.0128174,-0.636292
0.0128784,-0.63324
0.0127563,-0.639343
0.0126953,-0.648499
0.0125122,-0.65155
0.0124512,-0.648499
0.0125732,-0.650024
0.0125122,-0.646973
0.0122681,-0.645447
0.012085,-0.646973
0.0120239,-0.646973
0.0123291,-0.654602
0.0123901,-0.656128
0.0123291,-0.657654
0.012085,-0.643921
0.0120239,-0.622559
0.012207,-0.6073
0.012207,-0.604248
0.0120239,-0.608826
0.0118408,-0.611877
0.0118408,-0.610352
0.012146,-0.6073
0.0122681,-0.602722
0.012207,-0.6073
0.0119629,-0.614929
0.0119019,-0.621033
0.012146,-0.636292
0.0122681,-0.640869
0.0122681,-0.643921
0.012207,-0.642395
0.012207,-0.63324
0.0123291,-0.631714
0.0124512,-0.624084
0.0123291,-0.627136
0.012146,-0.630188
0.012085,-0.636292
0.012207,-0.640869
0.012207,-0.642395
0.012085,-0.636292
0.0120239,-0.63324
0.0120239,-0.639343
0.0122681,-0.643921
0.0122681,-0.646973
0.012085,-0.639343
0.0118408,-0.627136
0.0117798,-0.616455
0.0119629,-0.611877
0.0120239,-0.616455
0.0118408,-0.622559
0.0115356,-0.634766
0.0112915,-0.640869
0.0114136,-0.646973
0.0113525,-0.646973
0.0111694,-0.640869
0.0109863,-0.631714
0.0108032,-0.631714
0.0108643,-0.639343
0.0108032,-0.646973
0.0106812,-0.653076
0.010498,-0.650024
0.010437,-0.640869
0.0106201,-0.637817
0.0106812,-0.636292
0.010498,-0.636292
0.0102539,-0.637817
0.0101929,-0.636292
0.0103149,-0.631714
0.010376,-0.63324
0.010376,-0.628662
0.0101929,-0.627136
0.0100708,-0.628662
0.0101929,-0.639343
0.0100708,-0.650024
0.00982666,-0.656128
0.00964355,-0.656128
0.00952148,-0.648499
0.00970459,-0.642395
0.00964355,-0.640869
0.00946045,-0.639343
0.00921631,-0.634766
0.00909424,-0.631714
0.00927734,-0.630188
0.00927734,-0.627136
0.00909424,-0.62561
0.00878906,-0.622559
0.00872803,-0.619507
0.0088501,-0.621033
0.0088501,-0.630188
0.00866699,-0.636292
0.00836182,-0.636292
0.00823975,-0.637817
0.00830078,-0.637817
0.00830078,-0.636292
0.00811768,-0.636292
0.00787354,-0.63324
0.00775146,-0.630188
0.0078125,-0.630188
0.00775146,-0.637817
0.00750732,-0.645447
0.00720215,-0.645447
0.00714111,-0.639343
0.00726318,-0.630188
0.00726318,-0.62561
0.00720215,-0.63324
0.00701904,-0.639343
0.00701904,-0.653076
0.00720215,-0.662231
0.00720215,-0.666809
0.00689697,-0.662231
0.0065918,-0.657654
0.00646973,-0.648499
0.00653076,-0.639343
0.0065918,-0.636292
0.00653076,-0.637817
0.00634766,-0.648499
0.00640869,-0.662231
0.0065918,-0.668335
0.0065918,-0.669861
0.00634766,-0.65918
0.00610352,-0.650024
0.00604248,-0.653076
0.00622559,-0.663757
0.00628662,-0.674438
0.00610352,-0.67749
0.00579834,-0.662231
0.00567627,-0.639343
0.0057373,-0.619507
0.00579834,-0.613403
0.00561523,-0.619507
0.00543213,-0.631714
0.00531006,-0.645447
0.00537109,-0.65155
0.00537109,-0.660706
0.00518799,-0.656128
0.00494385,-0.654602
0.00488281,-0.645447
0.00500488,-0.643921
0.00500488,-0.642395
0.00488281,-0.65155
0.00469971,-0.653076
0.00463867,-0.653076
0.00482178,-0.654602
0.00476074,-0.656128
0.00463867,-0.656128
0.0045166,-0.65155
0.00445557,-0.642395
0.00457764,-0.637817
0.00457764,-0.63324
0.00439453,-0.634766
0.00421143,-0.643921
0.00427246,-0.648499
0.0045166,-0.654602
0.00457764,-0.65155
0.00445557,-0.642395
0.00427246,-0.634766
0.00427246,-0.63324
0.00445557,-0.634766
0.0045166,-0.639343
0.0043335,-0.636292
0.00421143,-0.634766
0.00421143,-0.630188
0.00445557,-0.62561
0.0045166,-0.621033
0.00439453,-0.610352
0.00421143,-0.601196
0.00421143,-0.605774
0.00445557,-0.617981
0.00457764,-0.631714
0.00457764,-0.639343
0.00439453,-0.634766
0.0043335,-0.630188
0.00439453,-0.63324
0.00439453,-0.637817
0.00427246,-0.642395
0.00415039,-0.637817
0.00415039,-0.628662
0.0043335,-0.619507
0.00445557,-0.616455
0.0043335,-0.621033
0.00427246,-0.627136
0.0043335,-0.628662
0.00457764,-0.627136
0.00463867,-0.617981
0.0045166,-0.614929
0.0045166,-0.617981
0.00457764,-0.624084
0.00488281,-0.63324
0.00506592,-0.640869
0.00415039,-0.645447
0.00372314,-0.639343
0.00305176,-0.634766
0.00317383,-0.631714
0.00341797,-0.631714
0.00408936,-0.634766
0.00372314,-0.645447
0.00402832,-0.65155
0.00396729,-0.65918
0.0043335,-0.668335
0.00390625,-0.67749
0.00445557,-0.669861
0.00482178,-0.663757
0.00537109,-0.654602
0.00585938,-0.645447
0.00592041,-0.643921
0.00592041,-0.643921
0.00585938,-0.645447
0.00616455,-0.654602
0.00628662,-0.65155
0.00616455,-0.643921
0.00598145,-0.634766
0.00598145,-0.624084
0.00622559,-0.617981
0.00622559,-0.628662
0.0057373,-0.636292
0.00549316,-0.642395
0.00549316,-0.642395
0.00598145,-0.639343
0.00646973,-0.630188
0.0065918,-0.616455
0.00646973,-0.604248
0.00653076,-0.602722
0.00689697,-0.6073
0.00714111,-0.608826
0.00714111,-0.616455
0.00701904,-0.613403
0.00701904,-0.621033
0.00726318,-0.631714
0.00744629,-0.642395
0.00762939,-0.646973
0.00756836,-0.636292
0.00769043,-0.624084
0.00799561,-0.622559
0.00817871,-0.630188
0.00817871,-0.643921
0.00811768,-0.65155
0.00811768,-0.650024
0.00842285,-0.645447
0.00854492,-0.639343
0.00848389,-0.640869
0.00842285,-0.648499
0.00842285,-0.656128
0.00860596,-0.654602
0.00872803,-0.65155
0.00854492,-0.640869
0.00842285,-0.630188
0.00854492,-0.62561
0.00872803,-0.630188
0.0088501,-0.637817
0.00878906,-0.656128
0.00872803,-0.665283
0.00872803,-0.668335
0.00891113,-0.666809
0.00897217,-0.656128
0.0088501,-0.648499
0.00878906,-0.631714
0.0088501,-0.628662
0.00915527,-0.622559
0.00921631,-0.624084
0.00891113,-0.628662
0.00872803,-0.624084
0.00842285,-0.616455
0.00842285,-0.616455
0.00854492,-0.613403
0.00854492,-0.616455
0.00878906,-0.627136
0.00915527,-0.637817
0.00952148,-0.640869
0.00946045,-0.640869
0.00927734,-0.63324
0.00915527,-0.622559
0.00909424,-0.624084
0.00927734,-0.627136
0.00933838,-0.630188
0.00921631,-0.62561
0.00909424,-0.617981
0.0090332,-0.617981
0.00927734,-0.62561
0.00933838,-0.631714
0.00927734,-0.634766
0.00915527,-0.636292
0.0090332,-0.630188
0.00909424,-0.631714
0.00897217,-0.639343
0.00872803,-0.643921
0.00860596,-0.640869
0.00860596,-0.637817
0.0088501,-0.630188
0.00891113,-0.624084
0.00878906,-0.624084
0.00860596,-0.627136
0.00848389,-0.62561
0.00787354,-0.630188
0.0078125,-0.627136
0.00744629,-0.62561
0.00756836,-0.621033
0.00799561,-0.614929
0.00854492,-0.611877
0.00854492,-0.624084
0.00817871,-0.636292
0.00793457,-0.65155
0.0078125,-0.660706
0.00805664,-0.663757
0.00817871,-0.654602
0.00775146,-0.643921
0.00701904,-0.634766
0.00683594,-0.630188
0.00689697,-0.634766
0.00744629,-0.642395
0.00787354,-0.646973
0.00793457,-0.650024
0.00787354,-0.645447
0.00787354,-0.634766
0.00775146,-0.630188
0.00750732,-0.627136
0.00732422,-0.634766
0.00726318,-0.643921
0.00750732,-0.656128
0.00750732,-0.654602
0.00732422,-0.642395
0.00714111,-0.630188
0.00695801,-0.616455
0.00708008,-0.611877
0.00701904,-0.614929
0.00683594,-0.624084
0.0065918,-0.631714
0.00653076,-0.640869
0.00665283,-0.654602
0.00665283,-0.657654
0.0065918,-0.653076
0.00646973,-0.645447
0.00640869,-0.628662
0.00646973,-0.621033
0.00634766,-0.622559
0.00616455,-0.627136
0.00592041,-0.636292
0.00585938,-0.648499
0.00598145,-0.654602
0.00592041,-0.653076
0.00567627,-0.650024
0.00549316,-0.653076
0.00537109,-0.648499
0.0055542,-0.65155
0.00561523,-0.645447
0.00549316,-0.63324
0.00537109,-0.619507
0.00537109,-0.611877
0.00543213,-0.613403
0.00537109,-0.616455
0.00506592,-0.610352
0.00482178,-0.602722
0.00402832,-0.601196
0.00415039,-0.604248
0.00402832,-0.617981
0.00402832,-0.628662
0.0043335,-0.62561
0.00457764,-0.614929
0.00476074,-0.608826
0.00457764,-0.614929
0.00427246,-0.628662
0.00396729,-0.645447
0.00384521,-0.653076
0.00390625,-0.656128
0.00390625,-0.648499
0.00372314,-0.642395
0.00354004,-0.631714
0.00341797,-0.628662
0.00341797,-0.628662
0.0032959,-0.63324
0.00299072,-0.631714
0.00274658,-0.628662
0.00274658,-0.619507
0.00292969,-0.624084
0.00292969,-0.62561
0.00280762,-0.63324
0.00262451,-0.637817
0.00244141,-0.634766
0.00256348,-0.636292
0.00250244,-0.643921
0.00219727,-0.65155
0.00195313,-0.656128
0.00183105,-0.65155
0.00189209,-0.640869
0.00183105,-0.627136
0.00170898,-0.622559
0.00146484,-0.624084
0.00140381,-0.631714
0.00146484,-0.639343
0.00146484,-0.648499
0.0012207,-0.656128
0.0010376,-0.656128
0.000915527,-0.648499
0.000854492,-0.646973
0.000549316,-0.642395
0.000366211,-0.637817
0.000305176,-0.636292
0.000610352,-0.631714
0.00109863,-0.628662
0.00115967,-0.636292
0.000793457,-0.643921
0.000427246,-0.65155
0.00012207,-0.65155
-0.000244141,-0.648499
-0.000244141,-0.640869
-0.000427246,-0.63324
-0.00012207,-0.62561
0.000244141,-0.622559
0.000610352,-0.621033
0.000488281,-0.619507
0.00012207,-0.617981
-0.000183105,-0.617981
-0.000244141,-0.619507
-0.00012207,-0.621033
-6.10352,-0.621033
-0.000183105,-0.622559
-0.000305176,-0.619507
-0.000366211,-0.627136
-0.000244141,-0.631714
-0.000244141,-0.628662
-0.000488281,-0.624084
-0.000671387,-0.619507
-0.000671387,-0.621033
-0.000488281,-0.62561
-0.000427246,-0.63324
-0.000488281,-0.630188
-0.000549316,-0.624084
-0.000488281,-0.616455
-0.000366211,-0.610352
-0.000305176,-0.608826
-0.000488281,-0.608826
-0.000610352,-0.614929
-0.000549316,-0.621033
-0.000366211,-0.630188
-0.000305176,-0.63324
-0.000427246,-0.630188
-0.000610352,-0.624084
-0.000549316,-0.621033
-0.000427246,-0.624084
-0.000366211,-0.634766
-0.000488281,-0.642395
-0.000671387,-0.639343
-0.000671387,-0.634766
-0.000427246,-0.62561
-0.000366211,-0.630188
-0.000366211,-0.628662
-0.000366211,-0.63324
-0.000427246,-0.631714
-0.000183105,-0.63324
-0.000183105,-0.642395
-0.000305176,-0.645447
-0.000427246,-0.645447
-0.000610352,-0.639343
-0.000976563,-0.639343
-0.000976563,-0.636292
-0.0010376,-0.636292
-0.000488281,-0.630188
0.000244141,-0.624084
0.000732422,-0.619507
0.000793457,-0.617981
0.000427246,-0.613403
0.000183105,-0.608826
0.000244141,-0.604248
0.000427246,-0.610352
0.000610352,-0.619507
0.000549316,-0.622559
0.000610352,-0.617981
0.000732422,-0.608826
0.000976563,-0.59967
0.00115967,-0.602722
0.00109863,-0.611877
0.00115967,-0.622559
0.00134277,-0.627136
0.00164795,-0.631714
0.00183105,-0.628662
0.00177002,-0.624084
0.00177002,-0.627136
0.00183105,-0.62561
0.00213623,-0.634766
0.00219727,-0.639343
0.00219727,-0.63324
0.00231934,-0.62561
0.0022583,-0.616455
0.00262451,-0.610352
0.00274658,-0.613403
0.00280762,-0.616455
0.00299072,-0.619507
0.00335693,-0.616455
0.00378418,-0.621033
0.00396729,-0.631714
0.00402832,-0.642395
0.00408936,-0.645447
0.00421143,-0.645447
0.00457764,-0.639343
0.00469971,-0.630188
0.00463867,-0.628662
0.00463867,-0.630188
0.00476074,-0.634766
0.00506592,-0.637817
0.00524902,-0.636292
0.00518799,-0.634766
0.00524902,-0.631714
0.00469971,-0.636292
0.00506592,-0.640869
0.00506592,-0.646973
0.00531006,-0.643921
0.00579834,-0.639343
0.00616455,-0.634766
0.00646973,-0.62561
0.00646973,-0.617981
0.00640869,-0.614929
0.00646973,-0.614929
0.0067749,-0.62561
0.00714111,-0.640869
0.00732422,-0.646973
0.00726318,-0.645447
0.00732422,-0.637817
0.00750732,-0.630188
0.0078125,-0.628662
0.00799561,-0.630188
0.00793457,-0.627136
0.00799561,-0.622559
0.00823975,-0.616455
0.00860596,-0.617981
0.0088501,-0.62561
0.00878906,-0.628662
0.00878906,-0.627136
0.00897217,-0.630188
0.00921631,-0.628662
0.00946045,-0.631714
0.00939941,-0.636292
0.00939941,-0.634766
0.00952148,-0.637817
0.00982666,-0.642395
0.00994873,-0.65155
0.00994873,-0.654602
0.00994873,-0.648499
0.00994873,-0.636292
0.0101318,-0.627136
0.0101929,-0.621033
0.0100708,-0.62561
0.0101318,-0.636292
0.0103149,-0.642395
0.0105591,-0.642395
0.0106201,-0.639343
0.010498,-0.634766
0.010437,-0.630188
0.0106201,-0.63324
0.0109253,-0.63324
0.0109253,-0.63324
0.0107422,-0.628662
0.0106201,-0.622559
0.00994873,-0.621033
0.0100708,-0.619507
0.0101318,-0.621033
0.0103149,-0.617981
0.0109253,-0.610352
0.0115967,-0.613403
0.0119019,-0.621033
0.0119019,-0.636292
0.0115967,-0.645447
0.0113525,-0.642395
0.0114136,-0.630188
0.0115356,-0.621033
0.0115967,-0.614929
0.0115356,-0.617981
0.0115356,-0.627136
0.0117798,-0.63324
0.012085,-0.639343
0.012207,-0.637817
0.0120239,-0.630188
0.0119629,-0.617981
0.0116577,-0.613403
0.0118408,-0.613403
0.0118408,-0.621033
0.0117798,-0.628662
0.0120239,-0.631714
0.0123901,-0.634766
0.0127563,-0.636292
0.0126953,-0.636292
0.0123901,-0.637817
0.012146,-0.639343
0.012146,-0.640869
0.0123901,-0.645447
0.0125122,-0.645447
0.0123901,-0.645447
0.0122681,-0.643921
0.012085,-0.637817
0.0122681,-0.631714
0.0122681,-0.617981
0.012146,-0.6073
0.012085,-0.6073
0.012085,-0.616455
0.0123291,-0.627136
0.0124512,-0.634766
0.0117188,-0.637817
0.0115356,-0.631714
0.0113525,-0.628662
0.0115356,-0.630188
0.0119019,-0.631714
0.0120239,-0.637817
0.0119019,-0.639343
0.0117798,-0.634766
0.0117798,-0.628662
0.0116577,-0.616455
0.0114136,-0.6073
0.0112305,-0.611877
0.0112305,-0.624084
0.0113525,-0.637817
0.0113525,-0.642395
0.0111694,-0.639343
0.0109863,-0.631714
0.0108643,-0.624084
0.0108643,-0.621033
0.0108032,-0.619507
0.010437,-0.613403
0.0103149,-0.608826
0.0102539,-0.611877
0.010437,-0.628662
0.010498,-0.650024
0.0102539,-0.662231
0.0100708,-0.65918
0.0100708,-0.645447
0.0101318,-0.628662
0.0101929,-0.621033
0.0098877,-0.622559
0.00964355,-0.627136
0.00946045,-0.63324
0.00946045,-0.630188
0.00939941,-0.62561
0.00921631,-0.616455
0.00909424,-0.608826
0.00915527,-0.610352
0.00921631,-0.621033
0.00909424,-0.628662
0.00872803,-0.63324
0.00848389,-0.634766
0.00836182,-0.640869
0.00836182,-0.643921
0.00830078,-0.650024
0.00799561,-0.639343
0.0078125,-0.627136
0.00769043,-0.617981
0.00738525,-0.621033
0.00744629,-0.628662
0.00732422,-0.636292
0.00756836,-0.639343
0.00805664,-0.643921
0.00848389,-0.642395
0.00842285,-0.639343
0.00805664,-0.634766
0.00762939,-0.624084
0.00744629,-0.621033
0.00756836,-0.62561
0.00762939,-0.630188
0.00756836,-0.630188
0.00750732,-0.627136
0.00738525,-0.622559
0.00726318,-0.616455
0.00720215,-0.613403
0.00665283,-0.613403
0.00646973,-0.613403
0.00628662,-0.616455
0.00634766,-0.622559
0.00640869,-0.634766
0.00616455,-0.642395
0.00610352,-0.643921
0.00610352,-0.63324
0.00616455,-0.624084
0.00610352,-0.616455
0.00592041,-0.614929
0.0055542,-0.62561
0.0055542,-0.634766
0.00561523,-0.634766
0.00543213,-0.628662
0.00518799,-0.619507
0.00500488,-0.610352
0.00518799,-0.6073
0.00549316,-0.611877
0.00567627,-0.619507
0.00537109,-0.621033
0.00506592,-0.62561
0.00494385,-0.628662
0.00494385,-0.634766
0.00482178,-0.643921
0.00463867,-0.643921
0.00463867,-0.63324
0.00469971,-0.616455
0.00488281,-0.602722
0.00482178,-0.598145
0.00445557,-0.610352
0.00421143,-0.627136
0.00402832,-0.642395
0.00415039,-0.65155
0.00408936,-0.648499
0.00390625,-0.636292
0.00372314,-0.617981
0.00372314,-0.6073
0.00384521,-0.604248
0.00378418,-0.610352
0.00360107,-0.622559
0.00335693,-0.636292
0.00335693,-0.646973
0.00354004,-0.650024
0.00360107,-0.650024
0.00335693,-0.640869
0.00317383,-0.631714
0.00305176,-0.627136
0.00317383,-0.631714
0.00323486,-0.640869
0.00305176,-0.639343
0.00299072,-0.639343
0.00305176,-0.634766
0.00317383,-0.636292
0.00317383,-0.642395
0.00292969,-0.648499
0.00280762,-0.646973
0.00280762,-0.643921
0.00299072,-0.637817
0.00299072,-0.63324
0.00274658,-0.627136
0.00262451,-0.621033
0.00262451,-0.611877
0.00274658,-0.611877
0.00268555,-0.610352
0.00244141,-0.616455
0.0022583,-0.624084
0.00231934,-0.628662
0.00262451,-0.634766
0.00274658,-0.63324
0.00256348,-0.627136
0.00244141,-0.617981
0.00183105,-0.619507
0.00189209,-0.621033
0.00201416,-0.62561
0.00201416,-0.637817
0.00238037,-0.637817
0.00274658,-0.634766
0.00292969,-0.63324
0.00292969,-0.627136
0.00274658,-0.614929
0.00280762,-0.602722
0.00280762,-0.602722
0.00292969,-0.605774
0.00299072,-0.616455
0.00280762,-0.628662
0.00274658,-0.637817
0.00286865,-0.642395
0.00311279,-0.654602
0.00317383,-0.65155
0.00305176,-0.645447
0.00292969,-0.630188
0.00299072,-0.621033
0.00323486,-0.619507
0.0032959,-0.627136
0.00311279,-0.634766
0.00299072,-0.637817
0.00311279,-0.630188
0.0032959,-0.621033
0.00341797,-0.614929
0.0032959,-0.616455
0.00323486,-0.62561
0.0032959,-0.639343
0.003479,-0.65155
0.00360107,-0.648499
0.00341797,-0.639343
0.003479,-0.630188
0.00360107,-0.62561
0.00390625,-0.637817
0.00402832,-0.648499
0.00390625,-0.657654
0.00390625,-0.654602
0.00402832,-0.642395
0.00384521,-0.634766
0.00390625,-0.630188
0.00360107,-0.631714
0.00372314,-0.634766
0.00408936,-0.634766
0.00457764,-0.634766
0.00469971,-0.631714
0.0045166,-0.62561
0.00439453,-0.614929
0.00384521,-0.613403
0.00390625,-0.613403
0.00384521,-0.62561
0.00384521,-0.637817
0.00427246,-0.645447
0.00469971,-0.643921
0.00488281,-0.639343
0.00488281,-0.630188
0.00463867,-0.630188
0.00463867,-0.63324
0.00488281,-0.637817
0.00512695,-0.640869
0.00524902,-0.631714
0.00506592,-0.619507
0.00506592,-0.611877
0.00518799,-0.6073
0.00537109,-0.614929
0.00543213,-0.621033
0.00531006,-0.621033
0.00524902,-0.616455
0.00537109,-0.611877
0.0055542,-0.611877
0.00567627,-0.624084
0.00543213,-0.634766
0.00537109,-0.646973
0.00549316,-0.648499
0.00579834,-0.650024
0.00598145,-0.642395
0.00592041,-0.636292
0.00592041,-0.631714
0.00604248,-0.630188
0.00628662,-0.627136
0.00640869,-0.622559
0.00622559,-0.617981
0.00628662,-0.611877
0.00634766,-0.610352
0.00653076,-0.617981
0.0065918,-0.628662
0.00640869,-0.636292
0.00628662,-0.645447
0.00628662,-0.645447
0.00640869,-0.640869
0.00646973,-0.631714
0.0055542,-0.627136
0.0055542,-0.622559
0.00549316,-0.627136
0.00585938,-0.628662
0.00653076,-0.630188
0.0067749,-0.62561
0.00689697,-0.624084
0.00683594,-0.621033
0.00689697,-0.624084
0.00695801,-0.627136
0.00671387,-0.627136
0.00665283,-0.62561
0.0067749,-0.622559
0.00695801,-0.614929
0.00701904,-0.608826
0.00683594,-0.605774
0.00689697,-0.6073
0.00714111,-0.616455
0.00738525,-0.622559
0.00738525,-0.627136
0.00708008,-0.63324
0.00689697,-0.639343
0.00695801,-0.646973
0.00720215,-0.646973
0.00726318,-0.639343
0.00714111,-0.628662
0.00695801,-0.621033
0.00701904,-0.627136
0.00708008,-0.63324
0.00708008,-0.636292
0.00689697,-0.639343
0.0067749,-0.631714
0.00689697,-0.62561
0.00708008,-0.621033
0.00714111,-0.622559
0.00695801,-0.627136
0.00683594,-0.631714
0.00689697,-0.628662
0.00708008,-0.62561
0.00708008,-0.621033
0.00689697,-0.610352
0.00689697,-0.604248
0.00701904,-0.608826
0.00720215,-0.619507
0.00714111,-0.63324
0.00683594,-0.642395
0.0065918,-0.642395
0.0065918,-0.631714
0.00683594,-0.630188
0.00695801,-0.63324
0.00683594,-0.63324
0.00671387,-0.634766
0.0067749,-0.631714
0.00689697,-0.630188
0.00695801,-0.62561
0.0067749,-0.627136
0.00671387,-0.627136
0.00671387,-0.628662
0.00683594,-0.631714
0.00689697,-0.634766
0.00671387,-0.637817
0.00665283,-0.639343
0.0065918,-0.637817
0.00671387,-0.636292
0.0067749,-0.631714
0.0065918,-0.628662
0.00653076,-0.631714
0.00665283,-0.636292
0.00683594,-0.634766
0.00683594,-0.636292
0.00653076,-0.63324
0.00646973,-0.627136
0.00640869,-0.62561
0.0065918,-0.622559
0.00671387,-0.619507
0.00665283,-0.622559
0.0065918,-0.63324
0.00665283,-0.640869
0.0067749,-0.653076
0.00665283,-0.654602
0.00640869,-0.645447
0.00628662,-0.63324
0.00634766,-0.622559
0.0065918,-0.622559
0.0065918,-0.63324
0.00628662,-0.643921
0.00610352,-0.654602
0.00616455,-0.650024
0.00634766,-0.640869
0.00640869,-0.628662
0.00628662,-0.621033
0.00622559,-0.621033
0.00634766,-0.631714
0.00653076,-0.642395
0.0065918,-0.653076
0.00634766,-0.653076
0.00628662,-0.643921
0.00628662,-0.63324
0.00640869,-0.631714
0.00640869,-0.630188
0.00616455,-0.63324
0.00610352,-0.636292
0.00616455,-0.63324
0.00646973,-0.63324
0.0065918,-0.639343
0.00653076,-0.642395
0.00653076,-0.639343
0.00653076,-0.628662
0.00598145,-0.624084
0.00592041,-0.628662
0.0055542,-0.63324
0.00567627,-0.637817
0.00628662,-0.637817
0.0067749,-0.631714
0.00683594,-0.62561
0.00646973,-0.62561
0.00628662,-0.621033
0.00628662,-0.619507
0.0065918,-0.622559
0.00665283,-0.62561
0.00646973,-0.628662
0.00640869,-0.624084
0.00646973,-0.614929
0.0065918,-0.613403
0.00665283,-0.621033
0.00653076,-0.627136
0.00653076,-0.630188
0.00671387,-0.628662
0.00683594,-0.624084
0.00683594,-0.616455
0.0065918,-0.611877
0.00646973,-0.605774
0.00653076,-0.602722
0.0067749,-0.602722
0.0067749,-0.614929
0.0065918,-0.62561
0.00646973,-0.63324
0.0065918,-0.637817
0.00665283,-0.631714
0.00665283,-0.630188
0.00640869,-0.627136
0.00628662,-0.627136
0.00640869,-0.62561
0.00653076,-0.622559
0.00653076,-0.621033
0.00628662,-0.622559
0.00616455,-0.622559
0.00598145,-0.621033
0.00610352,-0.614929
0.00598145,-0.613403
0.00585938,-0.613403
0.00598145,-0.617981
0.00622559,-0.62561
0.00640869,-0.628662
0.00634766,-0.628662
0.00604248,-0.621033
0.00592041,-0.617981
0.00537109,-0.616455
0.00549316,-0.611877
0.00537109,-0.610352
0.00531006,-0.608826
0.00567627,-0.610352
0.00610352,-0.616455
0.00622559,-0.62561
0.00622559,-0.631714
0.00592041,-0.62561
0.0057373,-0.619507
0.00585938,-0.614929
0.00598145,-0.611877
0.00592041,-0.614929
0.0057373,-0.617981
0.0057373,-0.619507
0.00585938,-0.624084
0.00604248,-0.63324
0.00604248,-0.640869
0.0057373,-0.643921
0.00549316,-0.640869
0.00549316,-0.628662
0.00567627,-0.617981
0.0057373,-0.617981
0.0055542,-0.622559
0.0055542,-0.627136
0.0055542,-0.63324
0.00561523,-0.631714
0.00549316,-0.631714
0.00512695,-0.637817
0.00500488,-0.642395
0.00506592,-0.643921
0.00524902,-0.643921
0.00524902,-0.634766
0.00500488,-0.630188
0.00488281,-0.631714
0.00482178,-0.63324
0.00506592,-0.642395
0.00506592,-0.646973
0.00476074,-0.65155
0.00457764,-0.653076
0.0045166,-0.654602
0.00457764,-0.656128
0.0045166,-0.648499
0.0043335,-0.642395
0.00421143,-0.636292
0.00427246,-0.630188
0.00439453,-0.627136
0.00427246,-0.624084
0.00396729,-0.617981
0.00366211,-0.611877
0.00299072,-0.614929
0.00311279,-0.616455
0.00292969,-0.62561
0.00292969,-0.630188
0.00335693,-0.627136
0.00378418,-0.621033
0.00390625,-0.616455
0.00378418,-0.616455
0.00341797,-0.617981
0.00323486,-0.619507
0.0032959,-0.62561
0.00341797,-0.631714
0.0032959,-0.634766
0.00299072,-0.63324
0.00286865,-0.634766
0.00286865,-0.630188
0.00292969,-0.636292
0.00286865,-0.643921
0.00256348,-0.643921
0.00238037,-0.643921
0.00231934,-0.639343
0.00238037,-0.639343
0.0022583,-0.639343
0.00201416,-0.639343
0.00189209,-0.636292
0.00189209,-0.630188
0.00183105,-0.630188
0.00170898,-0.640869
0.00140381,-0.653076
0.00128174,-0.65918
0.00109863,-0.660706
0.0012207,-0.660706
0.0010376,-0.654602
0.000671387,-0.640869
0.000671387,-0.630188
0.000854492,-0.611877
0.0010376,-0.602722
0.0010376,-0.6073
0.000732422,-0.617981
0.000427246,-0.631714
0.000366211,-0.637817
0.000366211,-0.639343
0.000305176,-0.631714
0.0,-0.62561
-0.00012207,-0.616455
-6.10352,-0.610352
0.0,-0.616455
-6.10352,-0.627136
-0.000427246,-0.634766
-0.000671387,-0.643921
-0.00140381,-0.646973
-0.00146484,-0.645447
-0.00164795,-0.639343
-0.00183105,-0.637817
-0.00152588,-0.637817
-0.00115967,-0.637817
-0.00115967,-0.637817
-0.00146484,-0.634766
-0.00183105,-0.631714
-0.00213623,-0.628662
-0.00213623,-0.636292
-0.0020752,-0.642395
-0.00219727,-0.645447
-0.00256348,-0.636292
-0.00274658,-0.622559
-0.00274658,-0.611877
-0.00274658,-0.613403
-0.00274658,-0.619507
-0.00305176,-0.628662
-0.0032959,-0.631714
-0.00335693,-0.627136
-0.00335693,-0.624084
-0.00354004,-0.62561
-0.00384521,-0.624084
-0.00396729,-0.62561
-0.00402832,-0.621033
-0.00402832,-0.613403
-0.00421143,-0.611877
-0.00469971,-0.613403
-0.00494385,-0.622559
-0.00488281,-0.636292
-0.00482178,-0.645447
-0.00488281,-0.643921
-0.00524902,-0.634766
-0.0055542,-0.628662
-0.00567627,-0.630188
-0.0057373,-0.636292
-0.00592041,-0.645447
-0.00622559,-0.648499
-0.00640869,-0.643921
-0.00708008,-0.65155
-0.00714111,-0.653076
-0.00738525,-0.648499
-0.00744629,-0.639343
-0.00701904,-0.627136
-0.00653076,-0.619507
-0.00646973,-0.624084
-0.0067749,-0.634766
-0.00732422,-0.631714
-0.00762939,-0.628662
-0.00756836,-0.627136
-0.00750732,-0.622559
-0.00756836,-0.624084
-0.00787354,-0.62561
-0.00805664,-0.628662
-0.00805664,-0.62561
-0.00799561,-0.622559
-0.00805664,-0.621033
-0.00830078,-0.619507
-0.00842285,-0.630188
-0.00836182,-0.640869
-0.00830078,-0.650024
-0.00836182,-0.653076
-0.00872803,-0.642395
-0.00891113,-0.630188
-0.00897217,-0.624084
-0.0090332,-0.619507
-0.0090332,-0.619507
-0.00933838,-0.622559
-0.00946045,-0.628662
-0.00976563,-0.640869
-0.00976563,-0.646973
-0.00994873,-0.65155
-0.0101929,-0.642395
-0.0101318,-0.634766
-0.0098877,-0.624084
-0.00970459,-0.617981
-0.00982666,-0.617981
-0.0101929,-0.614929
-0.010498,-0.611877
-0.010437,-0.616455
-0.010437,-0.617981
-0.010498,-0.624084
-0.0108032,-0.628662
-0.0109863,-0.628662
-0.0109253,-0.63324
-0.0108643,-0.639343
-0.0109253,-0.645447
-0.0112305,-0.65155
-0.0114746,-0.653076
-0.012085,-0.648499
-0.012146,-0.639343
-0.0123901,-0.627136
-0.0125732,-0.614929
-0.0122681,-0.611877
-0.0119629,-0.616455
-0.0118408,-0.627136
-0.0119629,-0.634766
-0.012207,-0.628662
-0.0123901,-0.613403
-0.0124512,-0.598145
-0.0124512,-0.598145
-0.0124512,-0.604248
-0.0127563,-0.611877
-0.0127563,-0.619507
-0.0127563,-0.616455
-0.0127563,-0.617981
-0.0128174,-0.624084
-0.0131226,-0.630188
-0.0132446,-0.634766
-0.0132446,-0.636292
-0.0133057,-0.634766
-0.0134277,-0.634766
-0.0137329,-0.628662
-0.0137329,-0.628662
-0.0136719,-0.622559
-0.0136108,-0.621033
-0.013855,-0.622559
-0.0141602,-0.628662
-0.0143433,-0.631714
-0.0142822,-0.62561
-0.0142212,-0.622559
-0.0143433,-0.616455
-0.0146484,-0.616455
-0.0148926,-0.624084
-0.0148926,-0.63324
-0.0147705,-0.637817
-0.0149536,-0.639343
-0.0152588,-0.630188
-0.0153809,-0.622559
-0.0153809,-0.611877
-0.0152588,-0.6073
-0.0153198,-0.6073
-0.015625,-0.610352
-0.0157471,-0.617981
-0.015625,-0.630188
-0.0155029,-0.639343
-0.0155029,-0.642395
-0.0157471,-0.643921
-0.0159302,-0.642395
-0.0159912,-0.639343
-0.0164185,-0.642395
-0.0165405,-0.631714
-0.0169067,-0.621033
-0.0167847,-0.6073
-0.0162964,-0.59967
-0.0161133,-0.6073
-0.0161743,-0.616455
-0.0165405,-0.621033
-0.0167236,-0.624084
-0.0166016,-0.624084
-0.0165405,-0.624084
-0.0166016,-0.631714
-0.0169678,-0.640869
-0.0170898,-0.646973
-0.0169067,-0.653076
-0.0167847,-0.654602
-0.0167847,-0.65155
-0.0171509,-0.640869
-0.0174561,-0.637817
-0.0177002,-0.634766
-0.0176392,-0.634766
-0.0177002,-0.636292
-0.0177002,-0.634766
-0.0175781,-0.631714
-0.017395,-0.63324
-0.017334,-0.637817
-0.0174561,-0.643921
-0.0178223,-0.654602
-0.0180054,-0.653076
-0.0180054,-0.650024
-0.0178833,-0.645447
-0.0178833,-0.634766
-0.0180664,-0.624084
-0.0181274,-0.621033
-0.0180054,-0.62561
-0.0180054,-0.628662
-0.0181274,-0.63324
-0.0183716,-0.634766
-0.0184937,-0.634766
-0.0183716,-0.636292
-0.0182495,-0.642395
-0.0182495,-0.643921
-0.0184937,-0.631714
-0.0186157,-0.619507
-0.0184937,-0.610352
-0.0183105,-0.610352
-0.0183105,-0.619507
-0.0184937,-0.622559
-0.0186768,-0.622559
-0.0192261,-0.619507
-0.0192261,-0.624084
-0.0194702,-0.634766
-0.0195923,-0.645447
-0.0192261,-0.642395
-0.0187988,-0.637817
-0.0185547,-0.631714
-0.0187378,-0.634766
-0.019104,-0.637817
-0.0193481,-0.637817
-0.0192871,-0.63324
-0.0192261,-0.627136
-0.0192871,-0.622559
-0.0195923,-0.617981
-0.0196533,-0.614929
-0.0195923,-0.610352
-0.0194702,-0.608826
-0.0194702,-0.605774
-0.0196533,-0.608826
-0.0196533,-0.616455
-0.0195313,-0.619507
-0.0193481,-0.627136
-0.0193481,-0.631714
-0.0195923,-0.63324
-0.0196533,-0.630188
-0.0195923,-0.63324
-0.0201416,-0.639343
-0.0202026,-0.63324
-0.0205688,-0.624084
-0.0204468,-0.608826
-0.0197754,-0.592041
-0.0193481,-0.582886
-0.0193481,-0.58136
-0.0197144,-0.590515
-0.0199585,-0.6073
-0.0199585,-0.616455
-0.0197754,-0.62561
-0.0198364,-0.630188
-0.0200806,-0.631714
-0.0201416,-0.636292
-0.0200806,-0.639343
-0.0200195,-0.634766
-0.0200195,-0.624084
-0.0209961,-0.617981
-0.0211182,-0.614929
-0.0212402,-0.616455
-0.0209961,-0.622559
-0.0203857,-0.634766
-0.0202637,-0.643921
-0.0203247,-0.648499
-0.0203857,-0.646973
-0.0204468,-0.634766
-0.0205078,-0.621033
-0.020752,-0.613403
-0.020752,-0.613403
-0.0206299,-0.621033
-0.0205078,-0.630188
-0.0205688,-0.634766
-0.020874,-0.63324
-0.0210571,-0.63324
-0.020874,-0.630188
-0.020752,-0.634766
-0.020752,-0.637817
-0.0209961,-0.628662
-0.0211792,-0.622559
-0.0210571,-0.617981
-0.020874,-0.616455
-0.020752,-0.627136
-0.020874,-0.63324
-0.020874,-0.63324
-0.020813,-0.631714
-0.0206299,-0.631714
-0.0206909,-0.63324
-0.0209351,-0.630188
-0.0215454,-0.630188
-0.0215454,-0.624084
-0.0221558,-0.628662
-0.0219116,-0.627136
-0.0224609,-0.640869
-0.0220947,-0.643921
-0.0222778,-0.650024
-0.0217285,-0.648499
-0.0213623,-0.646973
-0.0209351,-0.642395
-0.0205688,-0.634766
-0.0200806,-0.628662
-0.0200195,-0.627136
-0.0201416,-0.627136
-0.0204468,-0.627136
-0.0205078,-0.627136
-0.0202637,-0.622559
-0.0200195,-0.617981
-0.0198975,-0.611877
-0.0200195,-0.610352
-0.0198975,-0.613403
-0.0195923,-0.619507
-0.0192871,-0.62561
-0.019165,-0.62561
-0.0194092,-0.627136
-0.0195313,-0.624084
-0.0194702,-0.624084
-0.0194092,-0.624084
-0.0194092,-0.62561
-0.0195923,-0.624084
-0.0195313,-0.621033
-0.019165,-0.622559
-0.0188599,-0.621033
-0.0187378,-0.617981
-0.0188599,-0.621033
-0.0189209,-0.622559
-0.0187378,-0.63324
-0.0186768,-0.646973
-0.0185547,-0.650024
-0.0186768,-0.643921
-0.0186157,-0.636292
-0.0183105,-0.63324
-0.0181274,-0.642395
-0.0180664,-0.657654
-0.0181885,-0.665283
-0.0181274,-0.663757
-0.0178223,-0.653076
-0.0175171,-0.636292
-0.017395,-0.619507
-0.0174561,-0.608826
-0.017395,-0.605774
-0.0170898,-0.6073
-0.0168457,-0.617981
-0.0166626,-0.62561
-0.0166626,-0.627136
-0.0165405,-0.62561
-0.0161743,-0.624084
-0.0159302,-0.628662
-0.0158081,-0.636292
-0.0158691,-0.643921
-0.0158081,-0.642395
-0.015564,-0.637817
-0.0153198,-0.630188
-0.0151978,-0.627136
-0.0151978,-0.630188
-0.0150146,-0.63324
-0.0147095,-0.634766
-0.0144043,-0.634766
-0.0142822,-0.630188
-0.0143433,-0.627136
-0.0142212,-0.62561
-0.0139771,-0.627136
-0.0137329,-0.634766
-0.0136108,-0.645447
-0.0135498,-0.643921
-0.0133667,-0.636292
-0.0129395,-0.622559
-0.0125732,-0.619507
-0.0123901,-0.617981
-0.0123291,-0.628662
-0.012207,-0.642395
-0.0119019,-0.648499
-0.0115967,-0.648499
-0.0113525,-0.643921
-0.0112915,-0.630188
-0.0109863,-0.617981
-0.010498,-0.616455
-0.0101929,-0.619507
-0.00994873,-0.630188
-0.00994873,-0.637817
-0.00976563,-0.636292
-0.00927734,-0.634766
-0.00891113,-0.624084
-0.00866699,-0.614929
-0.00860596,-0.6073
-0.00842285,-0.605774
-0.00799561,-0.608826
-0.00756836,-0.619507
-0.00720215,-0.62561
-0.00714111,-0.622559
-0.00689697,-0.619507
-0.00653076,-0.616455
-0.00622559,-0.621033
-0.00585938,-0.617981
-0.00567627,-0.619507
-0.00531006,-0.614929
-0.00482178,-0.608826
-0.00445557,-0.610352
-0.00421143,-0.613403
-0.00415039,-0.616455
-0.00390625,-0.621033
-0.00341797,-0.62561
-0.00286865,-0.628662
-0.00262451,-0.630188
-0.00250244,-0.624084
-0.00238037,-0.614929
-0.00201416,-0.605774
-0.00170898,-0.602722
-0.00140381,-0.611877
-0.00128174,-0.619507
-0.000976563,-0.62561
-0.000366211,-0.622559
0.00012207,-0.614929
0.000366211,-0.608826
0.000366211,-0.613403
0.000488281,-0.62561
0.000915527,-0.634766
0.00140381,-0.642395
0.00177002,-0.642395
0.00189209,-0.636292
0.00213623,-0.630188
0.00262451,-0.628662
0.00305176,-0.631714
0.00335693,-0.63324
0.003479,-0.634766
0.00372314,-0.63324
0.00415039,-0.628662
0.00457764,-0.630188
0.00488281,-0.631714
0.00500488,-0.634766
0.00524902,-0.640869
0.00561523,-0.640869
0.00598145,-0.640869
0.00610352,-0.636292
0.00616455,-0.634766
0.00640869,-0.631714
0.0067749,-0.631714
0.00720215,-0.634766
0.00744629,-0.636292
0.00756836,-0.637817
0.0078125,-0.639343
0.00817871,-0.640869
0.00854492,-0.634766
0.00878906,-0.62561
0.0088501,-0.616455
0.00897217,-0.608826
0.00939941,-0.6073
0.00964355,-0.6073
0.0098877,-0.610352
0.0100098,-0.611877
0.0101929,-0.611877
0.0105591,-0.621033
0.0108032,-0.628662
0.0109253,-0.630188
0.0109253,-0.628662
0.0110474,-0.624084
0.0114746,-0.62561
0.0117798,-0.631714
0.0120239,-0.640869
0.0120239,-0.642395
0.012146,-0.642395
0.0124512,-0.640869
0.0127563,-0.640869
0.0128784,-0.639343
0.0127563,-0.630188
0.0128174,-0.622559
0.0130615,-0.617981
0.0133057,-0.617981
0.0134277,-0.621033
0.0134277,-0.621033
0.0134888,-0.617981
0.0137329,-0.614929
0.013855,-0.613403
0.013916,-0.619507
0.013855,-0.616455
0.0139771,-0.611877
0.0143433,-0.614929
0.0146484,-0.622559
0.0147705,-0.634766
0.0146484,-0.640869
0.0145264,-0.642395
0.0147095,-0.640869
0.0148315,-0.639343
0.0148315,-0.640869
0.0147095,-0.643921
0.0147705,-0.640869
0.0149536,-0.634766
0.0151978,-0.63324
0.0152588,-0.636292
0.0151367,-0.637817
0.0151367,-0.645447
0.0154419,-0.650024
0.015625,-0.650024
0.015625,-0.643921
0.0154419,-0.640869
0.0153809,-0.637817
0.0155029,-0.643921
0.0157471,-0.650024
0.0157471,-0.653076
0.015686,-0.642395
0.015625,-0.634766
0.0158081,-0.627136
0.0158691,-0.628662
0.0158691,-0.637817
0.015564,-0.637817
0.0155029,-0.631714
0.0157471,-0.624084
0.0158691,-0.614929
0.0159302,-0.614929
0.0157471,-0.62561
0.0155029,-0.639343
0.015564,-0.643921
0.0155029,-0.642395
0.0153809,-0.630188
0.0152588,-0.613403
0.0151978,-0.601196
0.0154419,-0.598145
0.0155029,-0.602722
0.0153809,-0.605774
0.0150757,-0.613403
0.0149536,-0.616455
0.0151978,-0.614929
0.0153809,-0.611877
0.0153198,-0.611877
0.0150757,-0.613403
0.0148315,-0.621033
0.0148926,-0.631714
0.0148926,-0.634766
0.0148926,-0.631714
0.0146484,-0.621033
0.0145264,-0.613403
0.0146484,-0.608826
0.0146484,-0.6073
0.0145264,-0.6073
0.0142822,-0.610352
0.0141602,-0.622559
0.0143433,-0.63324
0.0143433,-0.636292
0.0142822,-0.634766
0.0140381,-0.621033
0.0139771,-0.613403
0.0141602,-0.616455
0.0140991,-0.617981
0.013855,-0.62561
0.0134888,-0.62561
0.0132446,-0.62561
0.0134277,-0.627136
0.0134888,-0.630188
0.0134277,-0.627136
0.0131836,-0.616455
0.0130005,-0.605774
0.0130615,-0.59967
0.0130615,-0.601196
0.0129395,-0.6073
0.0126953,-0.613403
0.0125122,-0.614929
0.0124512,-0.619507
0.0123901,-0.62561
0.012146,-0.63324
0.0119019,-0.628662
0.0117798,-0.619507
0.0118408,-0.611877
0.0117188,-0.601196
0.0116577,-0.595093
0.0114136,-0.598145
0.0113525,-0.59967
0.0113525,-0.614929
0.0112915,-0.63324
0.0111084,-0.643921
0.0108032,-0.640869
0.0107422,-0.631714
0.0109253,-0.627136
0.0109863,-0.628662
0.0108643,-0.637817
0.0105591,-0.646973
0.0103149,-0.648499
0.0103149,-0.646973
0.0102539,-0.639343
0.0101318,-0.628662
0.00976563,-0.624084
0.00958252,-0.621033
0.00964355,-0.627136
0.00970459,-0.637817
0.00964355,-0.645447
0.00927734,-0.645447
0.00909424,-0.642395
0.00915527,-0.637817
0.0090332,-0.628662
0.00897217,-0.62561
0.00872803,-0.622559
0.00860596,-0.628662
0.00860596,-0.637817
0.00848389,-0.645447
0.00830078,-0.642395
0.00787354,-0.634766
0.00775146,-0.624084
0.00787354,-0.619507
0.00799561,-0.621033
0.00787354,-0.624084
0.00756836,-0.619507
0.00732422,-0.611877
0.00726318,-0.608826
0.00726318,-0.619507
0.00708008,-0.639343
0.00683594,-0.65918
0.00671387,-0.666809
0.00671387,-0.663757
0.0065918,-0.65155
0.00646973,-0.640869
0.00610352,-0.63324
0.00598145,-0.628662
0.00610352,-0.628662
0.00610352,-0.630188
0.00592041,-0.630188
0.0055542,-0.631714
0.00537109,-0.631714
0.0055542,-0.631714
0.0055542,-0.63324
0.00537109,-0.65155
0.00488281,-0.663757
0.00457764,-0.668335
0.00445557,-0.665283
0.00445557,-0.654602
0.00445557,-0.642395
0.00421143,-0.639343
0.00408936,-0.642395
0.00415039,-0.648499
0.00408936,-0.654602
0.00384521,-0.656128
0.00360107,-0.650024
0.003479,-0.640869
0.00354004,-0.63324
0.00341797,-0.636292
0.00311279,-0.643921
0.00280762,-0.646973
0.00262451,-0.653076
0.00280762,-0.650024
0.00286865,-0.650024
0.00268555,-0.656128
0.00231934,-0.657654
0.0020752,-0.657654
0.00213623,-0.653076
0.00219727,-0.643921
0.00213623,-0.639343
0.00195313,-0.636292
0.00177002,-0.63324
0.00177002,-0.636292
0.00177002,-0.636292
0.00170898,-0.636292
0.00146484,-0.637817
0.00146484,-0.642395
0.00152588,-0.640869
0.00152588,-0.637817
0.00134277,-0.630188
0.0010376,-0.621033
0.000915527,-0.628662
0.00109863,-0.639343
0.0012207,-0.65155
0.0012207,-0.65918
0.0010376,-0.660706
0.000915527,-0.65155
0.000976563,-0.65155
0.000915527,-0.653076
0.000915527,-0.65155
0.000732422,-0.646973
0.000793457,-0.640869
0.0010376,-0.636292
0.0012207,-0.63324
0.00109863,-0.631714
0.000854492,-0.63324
0.000732422,-0.636292
0.000854492,-0.645447
0.000915527,-0.65155
0.000854492,-0.653076
0.000671387,-0.646973
0.000671387,-0.636292
0.000915527,-0.63324
0.00115967,-0.636292
0.00115967,-0.643921
0.00109863,-0.645447
0.0010376,-0.639343
0.00128174,-0.630188
0.00140381,-0.628662
0.00140381,-0.637817
0.00134277,-0.650024
0.00134277,-0.657654
0.00158691,-0.65918
0.00177002,-0.65155
0.00177002,-0.636292
0.00164795,-0.616455
0.00164795,-0.598145
0.00189209,-0.592041
0.00201416,-0.602722
0.00195313,-0.630188
0.00195313,-0.653076
0.00201416,-0.669861
0.00231934,-0.671387
0.00256348,-0.663757
0.00256348,-0.65155
0.00238037,-0.642395
0.00244141,-0.639343
0.00286865,-0.636292
0.00317383,-0.631714
0.00335693,-0.630188
0.0032959,-0.627136
0.0032959,-0.630188
0.00360107,-0.636292
0.00384521,-0.642395
0.00402832,-0.643921
0.00396729,-0.640869
0.00402832,-0.634766
0.00427246,-0.627136
0.00457764,-0.621033
0.00469971,-0.619507
0.00476074,-0.624084
0.00488281,-0.627136
0.00518799,-0.634766
0.00537109,-0.637817
0.00549316,-0.630188
0.00543213,-0.624084
0.0055542,-0.624084
0.00585938,-0.628662
0.00616455,-0.634766
0.00622559,-0.631714
0.00622559,-0.624084
0.00634766,-0.6073
0.00665283,-0.596619
0.00683594,-0.598145
0.00695801,-0.604248
0.00701904,-0.6073
0.00701904,-0.6073
0.00726318,-0.605774
0.00744629,-0.604248
0.00738525,-0.604248
0.00738525,-0.610352
0.00756836,-0.614929
0.00793457,-0.624084
0.00811768,-0.642395
0.00817871,-0.653076
0.00805664,-0.657654
0.00811768,-0.65155
0.00848389,-0.642395
0.00872803,-0.634766
0.00891113,-0.630188
0.00897217,-0.628662
0.0090332,-0.62561
0.00927734,-0.62561
0.00927734,-0.630188
0.00927734,-0.631714
0.00921631,-0.631714
0.00927734,-0.634766
0.00964355,-0.639343
0.00982666,-0.648499
0.00994873,-0.654602
0.0100098,-0.648499
0.0101318,-0.642395
0.010498,-0.63324
0.0106201,-0.631714
0.0105591,-0.640869
0.010437,-0.650024
0.0105591,-0.656128
0.0108643,-0.660706
0.0111694,-0.662231
0.0112305,-0.657654
0.0112305,-0.653076
0.0113525,-0.646973
0.0117188,-0.643921
0.0118408,-0.646973
0.0118408,-0.650024
0.0115967,-0.653076
0.0114746,-0.653076
0.0117188,-0.653076
0.0116577,-0.65155
0.0115967,-0.653076
0.0115967,-0.650024
0.0117798,-0.639343
0.012085,-0.630188
0.0123901,-0.621033
0.012085,-0.619507
0.0116577,-0.624084
0.0116577,-0.628662
0.0119019,-0.631714
0.0123291,-0.63324
0.0123291,-0.634766
0.012146,-0.636292
0.0120239,-0.645447
0.0119629,-0.65918
0.0118408,-0.672913
0.012085,-0.671387
0.0118408,-0.662231
0.0123291,-0.642395
0.0128784,-0.627136
0.0130615,-0.62561
0.0129395,-0.636292
0.0125732,-0.648499
0.0123901,-0.654602
0.0123901,-0.653076
0.0125122,-0.645447
0.0115356,-0.648499
0.0101929,-0.65155
0.00860596,-0.660706
0.00756836,-0.668335
0.00726318,-0.67749
0.00775146,-0.67749
0.00830078,-0.674438
0.00866699,-0.666809
0.00891113,-0.662231
0.00878906,-0.656128
0.00854492,-0.660706
0.00848389,-0.668335
0.00866699,-0.672913
0.00933838,-0.674438
0.00976563,-0.680542
0.0106201,-0.675964
0.0110474,-0.672913
0.0119019,-0.666809
0.0125122,-0.663757
0.0126343,-0.656128
0.0126953,-0.648499
0.0115967,-0.650024
0.010437,-0.657654
0.00939941,-0.672913
0.00872803,-0.689697
0.00805664,-0.698853
0.00817871,-0.694275
0.00823975,-0.683594
0.00836182,-0.682068
0.00823975,-0.679016
0.00799561,-0.683594
0.0078125,-0.68512
0.00787354,-0.680542
0.00799561,-0.674438
0.00805664,-0.668335
0.00848389,-0.657654
0.00939941,-0.643921
0.010437,-0.631714
0.0120239,-0.621033
0.012207,-0.622559
0.0115356,-0.630188
0.0109253,-0.63324
0.0100098,-0.634766
0.00946045,-0.643921
0.00854492,-0.657654
0.00738525,-0.668335
0.00634766,-0.674438
0.00567627,-0.669861
0.0055542,-0.662231
0.0057373,-0.663757
0.0065918,-0.662231
0.00738525,-0.657654
0.00872803,-0.639343
0.0098877,-0.628662
0.00994873,-0.621033
0.0090332,-0.62561
0.00860596,-0.628662
0.00848389,-0.628662
0.00927734,-0.627136
0.00970459,-0.622559
0.00939941,-0.630188
0.00872803,-0.631714
0.00805664,-0.631714
0.00793457,-0.63324
0.00787354,-0.634766
0.00769043,-0.636292
0.00769043,-0.634766
0.00799561,-0.636292
0.00860596,-0.639343
0.00866699,-0.650024
0.00830078,-0.663757
0.00799561,-0.660706
0.00762939,-0.65155
0.00769043,-0.642395
0.00756836,-0.636292
0.00738525,-0.631714
0.00738525,-0.62561
0.00775146,-0.619507
0.00830078,-0.614929
0.00842285,-0.6073
0.00805664,-0.610352
0.00750732,-0.614929
0.00720215,-0.613403
0.00720215,-0.617981
0.00726318,-0.62561
0.00708008,-0.634766
0.00689697,-0.634766
0.00671387,-0.63324
0.0067749,-0.621033
0.00622559,-0.617981
0.00598145,-0.619507
0.00518799,-0.631714
0.00476074,-0.640869
0.00445557,-0.645447
0.00427246,-0.640869
0.00415039,-0.634766
0.00402832,-0.628662
0.0045166,-0.622559
0.00524902,-0.622559
0.00585938,-0.619507
0.00592041,-0.614929
0.00549316,-0.613403
0.00494385,-0.616455
0.00427246,-0.622559
0.00360107,-0.627136
0.00323486,-0.62561
0.00256348,-0.619507
0.00286865,-0.613403
0.00354004,-0.616455
0.00341797,-0.62561
0.00286865,-0.634766
0.00195313,-0.640869
0.00115967,-0.645447
0.00115967,-0.640869
0.00158691,-0.639343
0.00146484,-0.639343
0.00170898,-0.63324
0.00201416,-0.627136
0.00219727,-0.621033
0.00195313,-0.611877
0.0012207,-0.614929
0.000671387,-0.624084
0.000183105,-0.643921
0.000610352,-0.657654
0.0010376,-0.65918
0.00134277,-0.646973
0.00140381,-0.631714
0.00134277,-0.624084
0.00140381,-0.62561
0.00134277,-0.628662
0.00115967,-0.62561
0.000854492,-0.622559
0.000671387,-0.614929
0.000549316,-0.608826
0.000366211,-0.605774
0.0,-0.605774
-0.000305176,-0.611877
-0.000366211,-0.624084
-0.000183105,-0.630188
-0.000183105,-0.631714
-0.000366211,-0.628662
-0.000671387,-0.622559
-0.000732422,-0.617981
-0.000671387,-0.616455
-0.000549316,-0.611877
-0.000732422,-0.604248
-0.0010376,-0.602722
-0.00115967,-0.59967
-0.0010376,-0.598145
-0.00115967,-0.598145
-0.00128174,-0.598145
-0.00152588,-0.598145
-0.00201416,-0.598145
-0.0020752,-0.605774
-0.00262451,-0.614929
-0.00280762,-0.621033
-0.00286865,-0.624084
-0.00268555,-0.619507
-0.00238037,-0.619507
-0.00244141,-0.624084
-0.00280762,-0.62561
-0.00317383,-0.627136
-0.0032959,-0.62561
-0.00323486,-0.624084
-0.0032959,-0.628662
-0.00354004,-0.63324
-0.00384521,-0.636292
-0.00402832,-0.637817
-0.00390625,-0.639343
-0.00402832,-0.637817
-0.00427246,-0.634766
-0.00463867,-0.63324
-0.00488281,-0.63324
-0.00482178,-0.639343
-0.00494385,-0.656128
-0.00524902,-0.663757
-0.00543213,-0.65918
-0.0055542,-0.646973
-0.00543213,-0.636292
-0.00549316,-0.627136
-0.00579834,-0.628662
-0.00610352,-0.634766
-0.00622559,-0.642395
-0.00610352,-0.643921
-0.00616455,-0.639343
-0.00646973,-0.631714
-0.00683594,-0.622559
-0.00701904,-0.608826
-0.00683594,-0.605774
-0.00683594,-0.608826
-0.00708008,-0.602722
-0.00738525,-0.59967
-0.00762939,-0.595093
-0.00762939,-0.598145
-0.00769043,-0.608826
-0.00787354,-0.616455
-0.00811768,-0.624084
-0.00817871,-0.627136
-0.00811768,-0.624084
