-1.41754,0.72937,
-1.4328,0.740051,
-1.44348,0.738525,
-1.45416,0.732422,
-1.46484,0.733948,
-1.46942,0.732422,
-1.48315,0.737,
-1.49078,0.743103,
-1.49841,0.733948,
-1.50757,0.726318,
-1.51825,0.733948,
-1.52893,0.733948,
-1.53809,0.744629,
-1.54419,0.733948,
-1.55487,0.724792,
-1.55792,0.730896,
-1.57013,0.737,
-1.57471,0.743103,
-1.58081,0.732422,
-1.58539,0.730896,
-1.58844,0.730896,
-1.59912,0.733948,
-1.60675,0.743103,
-1.61438,0.72937,
-1.62201,0.727844,
-1.62964,0.730896,
-1.63727,0.740051,
-1.6449,0.740051,
-1.651,0.732422,
-1.66626,0.730896,
-1.67389,0.727844,
-1.67999,0.738525,
-1.69067,0.740051,
-1.69678,0.737,
-1.70135,0.727844,
-1.70593,0.72937,
-1.71509,0.733948,
-1.71661,0.732422,
-1.72577,0.726318,
-1.73035,0.726318,
-1.73492,0.730896,
-1.74408,0.732422,
-1.74713,0.733948,
-1.75018,0.733948,
-1.75781,0.726318,
-1.75934,0.753784,
-1.76697,0.740051,
-1.77307,0.743103,
-1.78375,0.732422,
-1.79138,0.726318,
-1.79901,0.72937,
-1.80969,0.724792,
-1.82037,0.744629,
-1.82343,0.732422,
-1.83411,0.732422,
-1.84021,0.730896,
-1.84479,0.730896,
-1.85394,0.741577,
-1.86615,0.726318,
-1.87531,0.72937,
-1.88141,0.732422,
-1.89514,0.738525,
-1.9043,0.737,
-1.9104,0.72937,
-1.91956,0.727844,
-1.92719,0.726318,
-1.93634,0.732422,
-1.94702,0.740051,
-1.95313,0.737,
-1.95923,0.726318,
-1.96686,0.727844,
-1.97601,0.738525,
-1.97906,0.740051,
-1.98822,0.738525,
-1.98975,0.727844,
-1.99738,0.72937,
-1.9989,0.733948,
-2.00958,0.737,
-2.01263,0.733948,
-2.02332,0.723267,
-2.02942,0.730896,
-2.03857,0.738525,
-2.04773,0.740051,
-2.05383,0.732422,
-2.06299,0.726318,
-2.06909,0.732422,
-2.07672,0.732422,
-2.0874,0.740051,
-2.09503,0.732422,
-2.10419,0.727844,
-2.11334,0.737,
-2.1225,0.733948,
-2.13013,0.741577,
-2.13776,0.732422,
-2.14691,0.726318,
-2.15454,0.727844,
-2.1637,0.727844,
-2.16827,0.741577,
-2.1759,0.732422,
-2.18658,0.724792,
-2.19574,0.732422,
-2.20032,0.733948,
-2.211,0.738525,
-2.22168,0.730896,
-2.23236,0.724792,
-2.24152,0.72937,
-2.25372,0.723267,
-2.26135,0.741577,
-2.27203,0.733948,
-2.28119,0.726318,
-2.28577,0.726318,
-2.29645,0.732422,
-2.3056,0.740051,
-2.31323,0.730896,
-2.32086,0.726318,
-2.33154,0.730896,
-2.33765,0.727844,
-2.34833,0.743103,
-2.35443,0.730896,
-2.35596,0.726318,
-2.36511,0.733948,
-2.37122,0.733948,
-2.37732,0.740051,
-2.38647,0.730896,
-2.3941,0.726318,
-2.40173,0.726318,
-2.40631,0.733948,
-2.41852,0.737,
-2.42767,0.737,
-2.43378,0.726318,
-2.44598,0.732422,
-2.45209,0.733948,
-2.45972,0.738525,
-2.46124,0.727844,
-2.47498,0.726318,
-2.4826,0.726318,
-2.49023,0.733948,
-2.50397,0.738525,
-2.51312,0.730896,
-2.51617,0.727844,
-2.5177,0.733948,
-2.52075,0.740051,
-2.52228,0.743103,
-2.5238,0.72937,
-2.52533,0.724792,
-2.51923,0.72937,
-2.51617,0.72937,
-2.5116,0.741577,
-2.50397,0.733948,
-2.49023,0.726318,
-2.47498,0.72937,
-2.45514,0.732422,
-2.43225,0.740051,
-2.40936,0.72937,
-2.38495,0.723267,
-2.35901,0.72937,
-2.32697,0.72937,
-2.2934,0.733948,
-2.25372,0.732422,
-2.21405,0.726318,
-2.16827,0.730896,
-2.12555,0.733948,
-2.07825,0.740051,
-2.03094,0.72937,
-1.98517,0.724792,
-1.93787,0.741577,
-1.89209,0.730896,
-1.84174,0.741577,
-1.79443,0.732422,
-1.74103,0.724792,
-1.68915,0.72937,
-1.63879,0.732422,
-1.58844,0.740051,
-1.54114,0.72937,
-1.49384,0.724792,
-1.45416,0.726318,
-1.40991,0.724792,
-1.37024,0.740051,
-1.32904,0.733948,
-1.29089,0.723267,
-1.2558,0.72937,
-1.22681,0.732422,
-1.19629,0.726318,
-1.16882,0.72937,
-1.14594,0.723267,
-1.12152,0.72937,
-1.09558,0.727844,
-1.07727,0.737,
-1.05743,0.724792,
-1.04065,0.726318,
-1.02386,0.72937,
-1.01318,0.732422,
-0.999451,0.738525,
-0.98877,0.727844,
-0.979614,0.727844,
-0.976563,0.727844,
-0.965881,0.732422,
-0.964355,0.741577,
-0.961304,0.730896,
-0.961304,0.718689,
-0.9552,0.730896,
-0.950623,0.732422,
-0.9552,0.741577,
-0.952148,0.727844,
-0.953674,0.72937,
-0.956726,0.72937,
-0.961304,0.72937,
-0.964355,0.740051,
-0.971985,0.730896,
-0.979614,0.724792,
-0.98877,0.727844,
-0.997925,0.737,
-1.00708,0.732422,
-1.01318,0.732422,
-1.02386,0.726318,
-1.03149,0.726318,
-1.03912,0.730896,
-1.04828,0.737,
-1.05133,0.730896,
-1.06201,0.723267,
-1.06506,0.727844,
-1.06659,0.733948,
-1.07574,0.738525,
-1.07269,0.72937,
-1.0788,0.724792,
-1.08185,0.727844,
-1.08032,0.727844,
-1.0788,0.738525,
-1.07727,0.72937,
-1.07574,0.720215,
-1.07574,0.727844,
-1.06812,0.732422,
-1.06812,0.737,
-1.06354,0.732422,
-1.05743,0.726318,
-1.0498,0.726318,
-1.04218,0.730896,
-1.03607,0.733948,
-1.02844,0.72937,
-1.02081,0.723267,
-1.01166,0.724792,
-1.00861,0.730896,
-0.999451,0.733948,
-0.996399,0.732422,
-0.990295,0.724792,
-0.979614,0.721741,
-0.971985,0.730896,
-0.967407,0.733948,
-0.959778,0.730896,
-0.953674,0.721741,
-0.946045,0.724792,
-0.941467,0.733948,
-0.935364,0.737,
-0.933838,0.733948,
-0.938416,0.72937,
-0.935364,0.726318,
-0.93689,0.737,
-0.941467,0.733948,
-0.946045,0.730896,
-0.949097,0.723267,
-0.952148,0.724792,
-0.961304,0.730896,
-0.967407,0.733948,
-0.979614,0.732422,
-0.985718,0.726318,
-0.997925,0.726318,
-1.00708,0.733948,
-1.02081,0.737,
-1.02692,0.727844,
-1.03912,0.720215,
-1.05133,0.726318,
-1.06049,0.733948,
-1.06964,0.733948,
-1.08337,0.730896,
-1.091,0.726318,
-1.11084,0.724792,
-1.12152,0.727844,
-1.1322,0.72937,
-1.14746,0.732422,
-1.15814,0.727844,
-1.16577,0.717163,
-1.17493,0.737,
-1.18408,0.72937,
-1.19629,0.727844,
-1.20392,0.727844,
-1.21307,0.723267,
-1.21918,0.740051,
-1.22681,0.738525,
-1.23901,0.72937,
-1.24359,0.724792,
-1.25275,0.723267,
-1.25885,0.730896,
-1.27258,0.732422,
-1.28937,0.72937,
-1.29242,0.724792,
-1.30463,0.721741,
-1.31683,0.733948,
-1.32751,0.738525,
-1.3382,0.72937,
-1.34583,0.724792,
-1.35651,0.726318,
-1.36414,0.732422,
-1.37329,0.733948,
-1.38397,0.727844,
-1.3916,0.724792,
-1.40381,0.723267,
-1.40991,0.732422,
-1.41754,0.738525,
-1.42975,0.730896,
-1.43585,0.726318,
-1.44958,0.724792,
-1.45874,0.730896,
-1.46637,0.733948,
-1.4801,0.724792,
-1.48621,0.724792,
-1.49384,0.724792,
-1.50146,0.730896,
-1.51367,0.732422,
-1.51978,0.738525,
-1.52588,0.72937,
-1.53046,0.723267,
-1.53198,0.733948,
-1.54572,0.740051,
-1.55029,0.72937,
-1.5564,0.724792,
-1.56403,0.726318,
-1.57471,0.730896,
-1.58386,0.733948,
-1.59302,0.72937,
-1.60217,0.724792,
-1.61438,0.724792,
-1.61896,0.72937,
-1.62506,0.733948,
-1.63727,0.72937,
-1.64642,0.723267,
-1.65405,0.724792,
-1.66473,0.730896,
-1.66779,0.732422,
-1.67847,0.724792,
-1.6861,0.726318,
-1.69373,0.726318,
-1.70135,0.727844,
-1.70898,0.737,
-1.72119,0.72937,
-1.72882,0.723267,
-1.73645,0.726318,
-1.74561,0.730896,
-1.75323,0.738525,
-1.76086,0.727844,
-1.76849,0.721741,
-1.77765,0.724792,
-1.7868,0.72937,
-1.79138,0.730896,
-1.79749,0.724792,
-1.80359,0.721741,
-1.80664,0.723267,
-1.81274,0.72937,
-1.82037,0.738525,
-1.82648,0.727844,
-1.83411,0.726318,
-1.83868,0.724792,
-1.84326,0.730896,
-1.85242,0.733948,
-1.85699,0.724792,
-1.86462,0.723267,
-1.87073,0.723267,
-1.87683,0.727844,
-1.88141,0.732422,
-1.89209,0.727844,
-1.89667,0.726318,
-1.90277,0.723267,
-1.9104,0.72937,
-1.92108,0.738525,
-1.93024,0.727844,
-1.94397,0.720215,
-1.9577,0.726318,
-1.96381,0.727844,
-1.96991,0.72937,
-1.97906,0.726318,
-1.98669,0.721741,
-1.9989,0.72937,
-2.00958,0.72937,
-2.02026,0.733948,
-2.02789,0.727844,
-2.03857,0.724792,
-2.04468,0.718689,
-2.05231,0.72937,
-2.05994,0.737,
-2.06604,0.727844,
-2.0752,0.720215,
-2.0813,0.714111,
-2.0874,0.72937,
-2.09961,0.732422,
-2.10571,0.72937,
-2.11487,0.720215,
-2.12708,0.72937,
-2.13623,0.730896,
-2.14691,0.733948,
-2.16064,0.727844,
-2.1698,0.720215,
-2.18353,0.720215,
-2.20032,0.730896,
-2.211,0.733948,
-2.22321,0.724792,
-2.23236,0.723267,
-2.24457,0.724792,
-2.2522,0.727844,
-2.26746,0.732422,
-2.27814,0.727844,
-2.28424,0.724792,
-2.29645,0.718689,
-2.30713,0.727844,
-2.31323,0.733948,
-2.32239,0.727844,
-2.33154,0.721741,
-2.34375,0.724792,
-2.34833,0.732422,
-2.35901,0.737,
-2.36664,0.721741,
-2.37885,0.723267,
-2.388,0.724792,
-2.39563,0.727844,
-2.40326,0.72937,
-2.41394,0.727844,
-2.42004,0.721741,
-2.43073,0.724792,
-2.43683,0.72937,
-2.44751,0.730896,
-2.45361,0.724792,
-2.46429,0.721741,
-2.46429,0.726318,
-2.4704,0.730896,
-2.47345,0.730896,
-2.4765,0.724792,
-2.47345,0.718689,
-2.47192,0.723267,
-2.4704,0.727844,
-2.45667,0.737,
-2.45209,0.72937,
-2.43683,0.720215,
-2.42004,0.723267,
-2.39868,0.726318,
-2.37427,0.732422,
-2.34222,0.726318,
-2.31171,0.723267,
-2.27356,0.724792,
-2.23999,0.727844,
-2.20337,0.730896,
-2.15912,0.727844,
-2.11639,0.723267,
-2.07214,0.723267,
-2.02179,0.72937,
-1.97144,0.733948,
-1.92261,0.727844,
-1.8692,0.721741,
-1.81732,0.724792,
-1.76239,0.72937,
-1.70593,0.730896,
-1.64642,0.724792,
-1.59302,0.720215,
-1.53656,0.724792,
-1.48468,0.723267,
-1.42975,0.732422,
-1.38397,0.726318,
-1.33057,0.721741,
-1.28937,0.723267,
-1.24512,0.723267,
-1.20239,0.733948,
-1.16119,0.723267,
-1.12915,0.721741,
-1.08948,0.724792,
-1.06201,0.727844,
-1.03455,0.732422,
-1.01166,0.726318,
-0.993347,0.721741,
-0.975037,0.721741,
-0.956726,0.724792,
-0.939941,0.732422,
-0.932312,0.726318,
-0.920105,0.718689,
-0.907898,0.721741,
-0.895691,0.727844,
-0.895691,0.732422,
-0.891113,0.724792,
-0.888062,0.720215,
-0.88501,0.723267,
-0.880432,0.726318,
-0.878906,0.730896,
-0.881958,0.727844,
-0.878906,0.717163,
-0.881958,0.721741,
-0.88501,0.727844,
-0.886536,0.732422,
-0.888062,0.726318,
-0.892639,0.727844,
-0.898743,0.724792,
-0.90332,0.730896,
-0.91095,0.730896,
-0.918579,0.726318,
-0.923157,0.718689,
-0.932312,0.721741,
-0.938416,0.726318,
-0.946045,0.730896,
-0.9552,0.727844,
-0.964355,0.723267,
-0.971985,0.724792,
-0.978088,0.730896,
-0.984192,0.730896,
-0.994873,0.72937,
-0.996399,0.721741,
-1.00708,0.723267,
-1.01013,0.727844,
-1.01471,0.727844,
-1.02234,0.723267,
-1.02386,0.723267,
-1.02997,0.715637,
-1.02844,0.72937,
-1.03455,0.737,
-1.03149,0.724792,
-1.03302,0.721741,
-1.03149,0.726318,
-1.02386,0.72937,
-1.02386,0.737,
-1.02081,0.724792,
-1.01776,0.718689,
-1.00861,0.721741,
-1.0025,0.724792,
-1.00098,0.732422,
-0.994873,0.721741,
-0.98877,0.723267,
-0.982666,0.724792,
-0.979614,0.727844,
-0.978088,0.737,
-0.970459,0.724792,
-0.967407,0.720215,
-0.959778,0.721741,
-0.956726,0.72937,
-0.950623,0.730896,
-0.946045,0.724792,
-0.942993,0.721741,
-0.941467,0.720215,
-0.939941,0.726318,
-0.938416,0.72937,
-0.941467,0.715637,
-0.944519,0.721741,
-0.941467,0.723267,
-0.942993,0.727844,
-0.944519,0.730896,
-0.949097,0.726318,
-0.950623,0.724792,
-0.9552,0.720215,
-0.96283,0.724792,
-0.967407,0.733948,
-0.976563,0.727844,
-0.984192,0.720215,
-0.985718,0.721741,
-0.994873,0.726318,
-1.00403,0.730896,
-1.01318,0.723267,
-1.02539,0.718689,
-1.03302,0.718689,
-1.0376,0.724792,
-1.05133,0.737,
-1.06506,0.724792,
-1.07117,0.717163,
-1.08337,0.720215,
-1.09406,0.727844,
-1.11084,0.726318,
-1.1261,0.726318,
-1.13831,0.723267,
-1.14899,0.721741,
-1.16425,0.72937,
-1.17645,0.732422,
-1.18408,0.726318,
-1.19629,0.718689,
-1.21002,0.720215,
-1.22223,0.726318,
-1.23901,0.72937,
-1.25427,0.727844,
-1.26495,0.724792,
-1.27716,0.720215,
-1.29242,0.72937,
-1.30005,0.730896,
-1.31073,0.72937,
-1.31989,0.724792,
-1.32904,0.721741,
-1.3382,0.72937,
-1.34888,0.732422,
-1.35803,0.723267,
-1.37177,0.726318,
-1.38092,0.723267,
-1.3855,0.72937,
-1.39771,0.733948,
-1.40686,0.72937,
-1.41754,0.723267,
-1.42975,0.720215,
-1.44043,0.727844,
-1.44958,0.727844,
-1.46332,0.724792,
-1.46942,0.718689,
-1.48315,0.718689,
-1.49078,0.72937,
-1.49994,0.732422,
-1.51367,0.721741,
-1.52283,0.721741,
-1.53351,0.723267,
-1.54114,0.72937,
-1.55334,0.732422,
-1.5625,0.724792,
-1.56708,0.723267,
-1.57776,0.720215,
-1.58539,0.726318,
-1.59302,0.732422,
-1.60065,0.720215,
-1.60828,0.726318,
-1.61285,0.721741,
-1.62048,0.727844,
-1.62811,0.737,
-1.62964,0.727844,
-1.63422,0.720215,
-1.63879,0.721741,
-1.64642,0.723267,
-1.65253,0.72937,
-1.66016,0.721741,
-1.66321,0.721741,
-1.66779,0.724792,
-1.67542,0.72937,
-1.68915,0.732422,
-1.6983,0.724792,
-1.70898,0.720215,
-1.71509,0.723267,
-1.72424,0.724792,
-1.73035,0.737,
-1.73492,0.721741,
-1.74103,0.720215,
-1.75018,0.721741,
-1.75629,0.724792,
-1.76239,0.732422,
-1.77002,0.724792,
-1.77765,0.721741,
-1.78375,0.724792,
-1.78833,0.72937,
-1.79443,0.737,
-1.80359,0.726318,
-1.80969,0.720215,
-1.81427,0.720215,
-1.82343,0.723267,
-1.83105,0.72937,
-1.83868,0.723267,
-1.84479,0.720215,
-1.85089,0.726318,
-1.86615,0.727844,
-1.87378,0.733948,
-1.88446,0.726318,
-1.89209,0.718689,
-1.9043,0.723267,
-1.91345,0.726318,
-1.92719,0.737,
-1.93787,0.723267,
-1.95007,0.712585,
-1.96075,0.723267,
-1.97144,0.730896,
-1.98517,0.730896,
-2.00195,0.723267,
-2.00958,0.720215,
-2.02179,0.723267,
-2.034,0.727844,
-2.04315,0.730896,
-2.05231,0.723267,
-2.05688,0.718689,
-2.06909,0.721741,
-2.07367,0.72937,
-2.08435,0.730896,
-2.09351,0.726318,
-2.09961,0.723267,
-2.11182,0.717163,
-2.12097,0.72937,
-2.13013,0.737,
-2.14081,0.727844,
-2.14691,0.720215,
-2.15454,0.721741,
-2.1637,0.727844,
-2.16827,0.732422,
-2.18048,0.721741,
-2.18658,0.721741,
-2.19116,0.720215,
-2.19574,0.732422,
-2.19879,0.733948,
-2.211,0.726318,
-2.22015,0.717163,
-2.22778,0.720215,
-2.23389,0.727844,
-2.24915,0.730896,
-2.2583,0.721741,
-2.27051,0.721741,
-2.28119,0.720215,
-2.29034,0.721741,
-2.30255,0.732422,
-2.31476,0.724792,
-2.32239,0.721741,
-2.33307,0.723267,
-2.3407,0.72937,
-2.34833,0.732422,
-2.36053,0.724792,
-2.37122,0.721741,
-2.38037,0.717163,
-2.39258,0.726318,
-2.40326,0.737,
-2.41394,0.723267,
-2.4231,0.724792,
-2.43225,0.721741,
-2.44141,0.727844,
-2.45056,0.738525,
-2.45819,0.724792,
-2.46582,0.724792,
-2.47955,0.718689,
-2.48718,0.726318,
-2.49329,0.733948,
-2.50092,0.720215,
-2.50397,0.726318,
-2.50702,0.723267,
-2.51007,0.727844,
-2.50854,0.737,
-2.50854,0.723267,
-2.50092,0.721741,
-2.48718,0.723267,
-2.47498,0.724792,
-2.45667,0.733948,
-2.43378,0.723267,
-2.41547,0.718689,
-2.388,0.721741,
-2.36053,0.724792,
-2.32849,0.738525,
-2.28577,0.724792,
-2.24152,0.723267,
-2.19879,0.724792,
-2.15302,0.726318,
-2.10876,0.733948,
-2.05994,0.721741,
-2.01111,0.718689,
-1.95618,0.724792,
-1.89667,0.718689,
-1.84326,0.737,
-1.78833,0.723267,
-1.7334,0.721741,
-1.67084,0.724792,
-1.61591,0.726318,
-1.5564,0.733948,
-1.49841,0.723267,
-1.44348,0.718689,
-1.39618,0.721741,
-1.3443,0.724792,
-1.29852,0.733948,
-1.25427,0.727844,
-1.21307,0.718689,
-1.17645,0.724792,
-1.14288,0.72937,
-1.10626,0.733948,
-1.07269,0.723267,
-1.04218,0.718689,
-1.01318,0.723267,
-0.991821,0.726318,
-0.970459,0.730896,
-0.947571,0.727844,
-0.932312,0.718689,
-0.917053,0.724792,
-0.906372,0.72937,
-0.897217,0.740051,
-0.888062,0.724792,
-0.883484,0.721741,
-0.880432,0.723267,
-0.874329,0.72937,
-0.872803,0.733948,
-0.868225,0.723267,
-0.866699,0.717163,
-0.872803,0.723267,
-0.874329,0.730896,
-0.874329,0.733948,
-0.875854,0.726318,
-0.87738,0.721741,
-0.875854,0.723267,
-0.883484,0.727844,
-0.883484,0.732422,
-0.894165,0.720215,
-0.901794,0.717163,
-0.909424,0.721741,
-0.915527,0.727844,
-0.927734,0.730896,
-0.93689,0.724792,
-0.944519,0.721741,
-0.9552,0.723267,
-0.970459,0.727844,
-0.979614,0.732422,
-0.991821,0.727844,
-1.00403,0.718689,
-1.01318,0.721741,
-1.02386,0.726318,
-1.0376,0.732422,
-1.0498,0.723267,
-1.06354,0.723267,
-1.06964,0.715637,
-1.07727,0.733948,
-1.08337,0.733948,
-1.08643,0.723267,
-1.09253,0.717163,
-1.09406,0.720215,
-1.09558,0.726318,
-1.10474,0.730896,
-1.10474,0.721741,
-1.10626,0.720215,
-1.11084,0.718689,
-1.10931,0.727844,
-1.11084,0.738525,
-1.11084,0.726318,
-1.10931,0.718689,
-1.10779,0.723267,
-1.10474,0.72937,
-1.10626,0.738525,
-1.10016,0.723267,
-1.09711,0.717163,
-1.09711,0.718689,
-1.10016,0.726318,
-1.10626,0.737,
-1.10931,0.723267,
-1.10626,0.723267,
-1.11084,0.720215,
-1.11237,0.717163,
-1.11237,0.730896,
-1.11389,0.724792,
-1.12,0.726318,
-1.12305,0.712585,
-1.12762,0.726318,
-1.12915,0.724792,
-1.13983,0.744629,
-1.14746,0.723267,
-1.15051,0.726318,
-1.16119,0.721741,
-1.17188,0.732422,
-1.1795,0.723267,
-1.18866,0.720215,
-1.20239,0.718689,
-1.21002,0.723267,
-1.21918,0.737,
-1.23138,0.718689,
-1.24054,0.724792,
-1.24359,0.723267,
-1.25427,0.721741,
-1.26495,0.738525,
-1.26648,0.724792,
-1.27411,0.720215,
-1.28326,0.720215,
-1.29089,0.726318,
-1.30157,0.732422,
-1.3092,0.720215,
-1.31989,0.721741,
-1.32751,0.721741,
-1.3382,0.715637,
-1.34888,0.737,
-1.36108,0.724792,
-1.37329,0.715637,
-1.38092,0.720215,
-1.39313,0.726318,
-1.40533,0.730896,
-1.41754,0.723267,
-1.42975,0.718689,
-1.44043,0.718689,
-1.44958,0.721741,
-1.46027,0.730896,
-1.46942,0.724792,
-1.47705,0.721741,
-1.48926,0.726318,
-1.48926,0.730896,
-1.49689,0.732422,
-1.50299,0.724792,
-1.51215,0.720215,
-1.51672,0.723267,
-1.51978,0.724792,
-1.52283,0.72937,
-1.52893,0.724792,
-1.53503,0.717163,
-1.53809,0.723267,
-1.54114,0.727844,
-1.54724,0.730896,
-1.54572,0.724792,
-1.54724,0.724792,
-1.54572,0.723267,
-1.54877,0.727844,
-1.54419,0.720215,
-1.54419,0.724792,
-1.54266,0.717163,
-1.54266,0.721741,
-1.54114,0.726318,
-1.53656,0.72937,
-1.53503,0.726318,
-1.53351,0.720215,
-1.53046,0.71106,
-1.52588,0.726318,
-1.52435,0.72937,
-1.5213,0.723267,
-1.51825,0.718689,
-1.51978,0.720215,
-1.51367,0.72937,
-1.50909,0.727844,
-1.50909,0.724792,
-1.50757,0.720215,
-1.51215,0.720215,
-1.51215,0.72937,
-1.5152,0.730896,
-1.5152,0.727844,
-1.51367,0.717163,
-1.51367,0.717163,
-1.51367,0.724792,
-1.51825,0.72937,
-1.51825,0.726318,
-1.5213,0.721741,
-1.5213,0.720215,
-1.52588,0.730896,
-1.52893,0.737,
-1.53656,0.723267,
-1.54114,0.724792,
-1.54724,0.720215,
-1.55334,0.727844,
-1.55945,0.732422,
-1.56403,0.720215,
-1.57776,0.717163,
-1.58081,0.720215,
-1.58997,0.726318,
-1.59607,0.732422,
-1.60828,0.724792,
-1.61743,0.723267,
-1.62201,0.721741,
-1.63574,0.724792,
-1.64642,0.737,
-1.651,0.718689,
-1.66473,0.720215,
-1.67084,0.718689,
-1.68152,0.724792,
-1.6922,0.730896,
-1.69678,0.721741,
-1.70441,0.720215,
-1.70593,0.724792,
-1.71661,0.726318,
-1.71967,0.737,
-1.72882,0.724792,
-1.73645,0.718689,
-1.74713,0.723267,
-1.75629,0.726318,
-1.76239,0.737,
-1.76697,0.720215,
-1.7746,0.721741,
-1.78223,0.718689,
-1.79138,0.721741,
-1.79749,0.733948,
-1.80511,0.723267,
-1.8158,0.721741,
-1.82037,0.720215,
-1.82648,0.724792,
-1.83411,0.737,
-1.84021,0.723267,
-1.85089,0.721741,
-1.85242,0.723267,
-1.86157,0.724792,
-1.87073,0.732422,
-1.87531,0.724792,
-1.87836,0.718689,
-1.88904,0.720215,
-1.89514,0.72937,
-1.89819,0.732422,
-1.9043,0.724792,
-1.90277,0.717163,
-1.91193,0.718689,
-1.91498,0.727844,
-1.92261,0.732422,
-1.92719,0.723267,
-1.93787,0.720215,
-1.94397,0.727844,
-1.94702,0.727844,
-1.95313,0.730896,
-1.96228,0.714111,
-1.96838,0.724792,
-1.97754,0.726318,
-1.98517,0.720215,
-1.98975,0.730896,
-1.99585,0.721741,
-1.99585,0.721741,
-2.00195,0.730896,
-2.00958,0.724792,
-2.01416,0.72937,
-2.01569,0.724792,
-2.02026,0.721741,
-2.02332,0.720215,
-2.02789,0.732422,
-2.03094,0.730896,
-2.02942,0.724792,
-2.034,0.720215,
-2.02484,0.720215,
-2.01569,0.724792,
-2.00958,0.732422,
-1.9928,0.724792,
-1.98059,0.721741,
-1.96228,0.721741,
-1.93939,0.72937,
-1.91345,0.738525,
-1.88141,0.723267,
-1.84937,0.721741,
-1.81427,0.720215,
-1.77307,0.726318,
-1.7334,0.730896,
-1.68915,0.723267,
-1.64032,0.723267,
-1.58844,0.723267,
-1.53656,0.730896,
-1.47552,0.733948,
-1.42212,0.727844,
-1.35956,0.712585,
-1.3031,0.715637,
-1.24054,0.72937,
-1.17645,0.72937,
-1.11542,0.724792,
-1.06354,0.721741,
-1.0025,0.718689,
-0.947571,0.726318,
-0.889587,0.733948,
-0.839233,0.720215,
-0.788879,0.723267,
-0.743103,0.723267,
-0.704956,0.726318,
-0.663757,0.738525,
-0.63324,0.724792,
-0.602722,0.720215,
-0.57373,0.720215,
-0.546265,0.727844,
-0.520325,0.733948,
-0.502014,0.724792,
-0.482178,0.723267,
-0.469971,0.721741,
-0.45166,0.727844,
-0.439453,0.737,
-0.43335,0.726318,
-0.42572,0.723267,
-0.419617,0.721741,
-0.413513,0.727844,
-0.411987,0.737,
-0.404358,0.723267,
-0.404358,0.718689,
-0.402832,0.721741,
-0.405884,0.727844,
-0.408936,0.737,
-0.410461,0.726318,
-0.411987,0.72937,
-0.421143,0.724792,
-0.431824,0.726318,
-0.444031,0.737,
-0.453186,0.727844,
-0.466919,0.723267,
-0.476074,0.720215,
-0.486755,0.726318,
-0.502014,0.733948,
-0.512695,0.724792,
-0.521851,0.724792,
-0.537109,0.724792,
-0.547791,0.72937,
-0.559998,0.733948,
-0.572205,0.726318,
-0.585938,0.723267,
-0.595093,0.721741,
-0.605774,0.744629,
-0.617981,0.732422,
-0.627136,0.726318,
-0.637817,0.721741,
-0.645447,0.721741,
-0.656128,0.730896,
-0.662231,0.737,
-0.665283,0.727844,
-0.669861,0.723267,
-0.669861,0.720215,
-0.671387,0.732422,
-0.675964,0.732422,
-0.674438,0.727844,
-0.680542,0.717163,
-0.682068,0.723267,
-0.680542,0.732422,
-0.674438,0.733948,
-0.669861,0.730896,
-0.660706,0.723267,
-0.65918,0.723267,
-0.653076,0.733948,
-0.645447,0.738525,
-0.645447,0.72937,
-0.637817,0.721741,
-0.634766,0.721741,
-0.630188,0.72937,
-0.62561,0.732422,
-0.621033,0.727844,
-0.617981,0.726318,
-0.614929,0.724792,
-0.605774,0.733948,
-0.604248,0.750732,
-0.598145,0.726318,
-0.595093,0.723267,
-0.593567,0.724792,
-0.595093,0.727844,
-0.590515,0.733948,
-0.593567,0.723267,
-0.596619,0.723267,
-0.596619,0.721741,
-0.59967,0.727844,
-0.6073,0.732422,
-0.611877,0.724792,
-0.622559,0.724792,
-0.627136,0.723267,
-0.636292,0.730896,
-0.650024,0.737,
-0.65918,0.726318,
-0.671387,0.72937,
-0.689697,0.721741,
-0.708008,0.730896,
-0.715637,0.740051,
-0.733948,0.724792,
-0.749207,0.727844,
-0.761414,0.726318,
-0.775146,0.732422,
-0.791931,0.740051,
-0.810242,0.727844,
-0.822449,0.724792,
-0.836182,0.727844,
-0.854492,0.727844,
-0.872803,0.743103,
-0.888062,0.724792,
-0.907898,0.726318,
-0.930786,0.727844,
-0.944519,0.727844,
-0.968933,0.738525,
-0.982666,0.727844,
-1.00098,0.726318,
-1.01776,0.727844,
-1.03149,0.732422,
-1.05438,0.738525,
-1.06659,0.726318,
-1.0788,0.715637,
-1.09406,0.724792,
-1.10168,0.732422,
-1.11694,0.740051,
-1.12915,0.72937,
-1.14288,0.723267,
-1.15662,0.72937,
-1.16882,0.732422,
-1.18408,0.741577,
-1.19934,0.726318,
-1.20697,0.724792,
-1.22223,0.72937,
-1.23901,0.730896,
-1.25122,0.738525,
-1.26648,0.727844,
-1.28021,0.726318,
-1.29395,0.72937,
-1.30157,0.730896,
-1.31531,0.741577,
-1.32751,0.72937,
-1.3382,0.726318,
-1.34735,0.72937,
-1.36108,0.72937,
-1.37329,0.740051,
-1.38092,0.730896,
-1.39008,0.726318,
-1.40076,0.72937,
-1.40686,0.733948,
-1.41144,0.743103,
-1.4267,0.730896,
-1.43433,0.724792,
-1.44348,0.72937,
-1.45416,0.72937,
-1.46332,0.727844,
-1.4679,0.72937,
-1.47552,0.721741,
-1.48621,0.726318,
-1.49384,0.732422,
-1.50604,0.740051,
-1.51978,0.737,
-1.53198,0.727844,
-1.54419,0.72937,
-1.56097,0.732422,
-1.57928,0.737,
-1.58691,0.730896,
-1.59912,0.724792,
-1.6037,0.727844,
-1.61133,0.730896,
-1.61896,0.733948,
-1.62964,0.730896,
-1.63422,0.726318,
-1.64032,0.724792,
-1.65253,0.737,
-1.66168,0.746155,
-1.67236,0.737,
-1.68762,0.730896,
-1.69525,0.726318,
-1.70593,0.737,
-1.70746,0.741577,
-1.72119,0.733948,
-1.73187,0.727844,
-1.7334,0.727844,
-1.73645,0.72937,
-1.75018,0.761414,
-1.75171,0.730896,
-1.75476,0.727844,
-1.75476,0.72937,
-1.75629,0.733948,
-1.75476,0.743103,
-1.75323,0.732422,
-1.75781,0.72937,
-1.75781,0.717163,
-1.76086,0.737,
-1.76392,0.741577,
-1.76544,0.732422,
-1.77307,0.730896,
-1.77002,0.72937,
-1.77612,0.737,
-1.78375,0.740051,
-1.7868,0.732422,
-1.78986,0.732422,
-1.79596,0.727844,
-1.79901,0.732422,
-1.80511,0.746155,
-1.81427,0.727844,
-1.81732,0.732422,
-1.82343,0.72937,
-1.83258,0.737,
-1.83868,0.744629,
-1.84479,0.733948,
-1.85547,0.72937,
-1.86615,0.727844,
-1.87225,0.738525,
-1.87988,0.744629,
-1.89056,0.72937,
-1.89972,0.72937,
-1.90735,0.732422,
-1.91345,0.738525,
-1.92719,0.749207,
-1.93329,0.727844,
-1.94702,0.730896,
-1.95313,0.730896,
-1.96533,0.741577,
-1.97601,0.746155,
-1.98212,0.730896,
-1.9928,0.727844,
-2.00806,0.732422,
-2.01874,0.733948,
-2.034,0.744629,
-2.04468,0.733948,
-2.05688,0.72937,
-2.06909,0.737,
-2.0813,0.738525,
-2.09503,0.744629,
-2.10266,0.733948,
-2.11792,0.732422,
-2.1286,0.730896,
-2.13776,0.732422,
-2.15302,0.746155,
-2.16675,0.730896,
-2.18201,0.727844,
-2.19269,0.732422,
-2.2049,0.737,
-2.2171,0.743103,
-2.22778,0.737,
-2.23846,0.730896,
-2.24609,0.733948,
-2.25525,0.740051,
-2.26135,0.743103,
-2.27814,0.741577,
-2.28271,0.721741,
-2.29034,0.733948,
-2.2995,0.738525,
-2.30103,0.741577,
-2.31018,0.738525,
-2.31323,0.732422,
-2.30865,0.737,
-2.3056,0.741577,
-2.30103,0.747681,
-2.28882,0.740051,
-2.27509,0.732422,
-2.25677,0.72937,
-2.24152,0.740051,
-2.21558,0.743103,
-2.18964,0.733948,
-2.15454,0.733948,
-2.1225,0.732422,
-2.0813,0.740051,
-2.04163,0.747681,
-1.9989,0.733948,
-1.95313,0.733948,
-1.90125,0.737,
-1.84937,0.738525,
-1.79291,0.746155,
-1.73645,0.740051,
-1.68152,0.738525,
-1.62811,0.730896,
-1.57013,0.741577,
-1.51215,0.747681,
-1.45569,0.737,
-1.40533,0.740051,
-1.3504,0.738525,
-1.30157,0.740051,
-1.2558,0.749207,
-1.21307,0.738525,
-1.1734,0.733948,
-1.12762,0.733948,
-1.09406,0.741577,
-1.05591,0.746155,
-1.02539,0.737,
-0.997925,0.732422,
-0.971985,0.733948,
-0.942993,0.740051,
-0.921631,0.750732,
-0.907898,0.740051,
-0.891113,0.733948,
-0.883484,0.743103,
-0.872803,0.740051,
-0.857544,0.747681,
-0.848389,0.737,
-0.840759,0.732422,
-0.840759,0.732422,
-0.828552,0.741577,
-0.830078,0.753784,
-0.831604,0.741577,
-0.828552,0.726318,
-0.831604,0.740051,
-0.834656,0.738525,
-0.839233,0.746155,
-0.848389,0.740051,
-0.852966,0.727844,
-0.860596,0.740051,
-0.868225,0.741577,
-0.875854,0.759888,
-0.883484,0.732422,
-0.889587,0.730896,
-0.901794,0.733948,
-0.907898,0.740051,
-0.917053,0.744629,
-0.932312,0.740051,
-0.941467,0.733948,
-0.956726,0.738525,
-0.971985,0.740051,
-0.990295,0.747681,
-1.00403,0.738525,
-1.01318,0.72937,
-1.02692,0.72937,
-1.03607,0.741577,
-1.0498,0.744629,
-1.05591,0.738525,
-1.07117,0.737,
-1.07727,0.738525,
-1.08643,0.744629,
-1.09711,0.747681,
-1.10474,0.743103,
-1.11389,0.741577,
-1.11542,0.738525,
-1.11847,0.744629,
-1.11847,0.746155,
-1.11694,0.738525,
-1.11847,0.732422,
-1.11847,0.732422,
-1.12,0.741577,
-1.12,0.746155,
-1.11694,0.738525,
-1.11847,0.737,
-1.11389,0.740051,
-1.10779,0.740051,
-1.10779,0.746155,
-1.10626,0.740051,
-1.10168,0.733948,
-1.10168,0.737,
-1.09711,0.741577,
-1.091,0.747681,
-1.09406,0.738525,
-1.09406,0.737,
-1.09253,0.738525,
-1.09253,0.741577,
-1.09558,0.750732,
-1.09863,0.737,
-1.09558,0.738525,
-1.09711,0.752258,
-1.09711,0.730896,
-1.09711,0.749207,
-1.10168,0.737,
-1.10626,0.733948,
-1.10931,0.738525,
-1.11084,0.744629,
-1.12152,0.747681,
-1.12305,0.743103,
-1.12762,0.738525,
-1.13831,0.741577,
-1.15051,0.743103,
-1.16425,0.750732,
-1.17035,0.740051,
-1.18256,0.732422,
-1.19476,0.738525,
-1.20697,0.741577,
-1.21765,0.753784,
-1.22986,0.743103,
-1.23749,0.732422,
-1.25122,0.738525,
-1.26495,0.744629,
-1.27716,0.746155,
-1.29089,0.744629,
-1.3031,0.723267,
-1.31989,0.738525,
-1.33209,0.744629,
-1.3443,0.747681,
-1.35803,0.741577,
-1.37482,0.737,
-1.39313,0.738525,
-1.40839,0.737,
-1.42517,0.747681,
-1.4389,0.746155,
-1.45111,0.738525,
-1.46332,0.738525,
-1.48315,0.747681,
-1.49536,0.747681,
-1.50909,0.743103,
-1.5213,0.741577,
-1.53351,0.741577,
-1.55029,0.746155,
-1.56403,0.746155,
-1.58081,0.737,
-1.58844,0.738525,
-1.60217,0.738525,
-1.61743,0.746155,
-1.63422,0.750732,
-1.6449,0.732422,
-1.66016,0.738525,
-1.67084,0.743103,
-1.68304,0.743103,
-1.69525,0.750732,
-1.70898,0.741577,
-1.72424,0.738525,
-1.7334,0.733948,
-1.74561,0.743103,
-1.75781,0.749207,
-1.76849,0.738525,
-1.7807,0.733948,
-1.79291,0.741577,
-1.80664,0.740051,
-1.81427,0.753784,
-1.82495,0.744629,
-1.83411,0.737,
-1.84631,0.741577,
-1.86157,0.743103,
-1.87225,0.752258,
-1.88599,0.743103,
-1.90125,0.726318,
-1.91498,0.730896,
-1.92261,0.740051,
-1.93329,0.744629,
-1.94397,0.741577,
-1.9577,0.740051,
-1.96381,0.741577,
-1.97296,0.747681,
-1.98364,0.746155,
-1.98975,0.743103,
-2.00043,0.738525,
-2.01111,0.737,
-2.02026,0.738525,
-2.034,0.750732,
-2.04163,0.741577,
-2.05078,0.737,
-2.06757,0.741577,
-2.07825,0.743103,
-2.0874,0.749207,
-2.09808,0.738525,
-2.10724,0.738525,
-2.11334,0.740051,
-2.12402,0.746155,
-2.13165,0.746155,
-2.13928,0.740051,
-2.14691,0.733948,
-2.15607,0.740051,
-2.16064,0.746155,
-2.16827,0.744629,
-2.17896,0.741577,
-2.18964,0.738525,
-2.19727,0.741577,
-2.20795,0.746155,
-2.21558,0.752258,
-2.22778,0.744629,
-2.24152,0.741577,
-2.25372,0.738525,
-2.25983,0.746155,
-2.27203,0.752258,
-2.28729,0.743103,
-2.29797,0.746155,
-2.31171,0.738525,
-2.32697,0.741577,
-2.33765,0.753784,
-2.34528,0.738525,
-2.35901,0.740051,
-2.36969,0.741577,
-2.38037,0.746155,
-2.39105,0.752258,
-2.40021,0.744629,
-2.41547,0.740051,
-2.42157,0.740051,
-2.43683,0.744629,
-2.44751,0.749207,
-2.45667,0.738525,
-2.46735,0.737,
-2.48108,0.740051,
-2.49329,0.743103,
-2.50702,0.753784,
-2.52075,0.743103,
-2.52991,0.740051,
-2.54517,0.741577,
-2.5589,0.744629,
-2.56805,0.750732,
-2.58026,0.744629,
-2.59094,0.738525,
-2.6001,0.740051,
-2.61078,0.741577,
-2.62146,0.747681,
-2.63062,0.743103,
-2.65045,0.732422,
-2.66876,0.741577,
-2.67944,0.747681,
-2.6947,0.753784,
-2.70691,0.738525,
-2.72217,0.740051,
-2.7359,0.741577,
-2.75116,0.75531,
-2.771,0.749207,
-2.78168,0.743103,
-2.79236,0.732422,
-2.80609,0.738525,
-2.81525,0.744629,
-2.83203,0.747681,
-2.84271,0.743103,
-2.85034,0.740051,
-2.85797,0.737,
-2.86713,0.749207,
-2.88239,0.750732,
-2.89001,0.743103,
-2.89917,0.737,
-2.90833,0.737,
-2.92206,0.746155,
-2.93427,0.747681,
-2.948,0.741577,
-2.96021,0.740051,
-2.96783,0.738525,
-2.98157,0.744629,
-2.99377,0.752258,
-2.99835,0.744629,
-3.01056,0.738525,
-3.01819,0.740051,
-3.03192,0.744629,
-3.04565,0.750732,
-3.05786,0.743103,
-3.06396,0.740051,
-3.07617,0.740051,
-3.08533,0.746155,
-3.08838,0.750732,
-3.0899,0.744629,
-3.0899,0.730896,
-3.08685,0.741577,
-3.08075,0.743103,
-3.07922,0.752258,
-3.07312,0.746155,
-3.06244,0.740051,
-3.05023,0.743103,
-3.02887,0.743103,
-3.01056,0.752258,
-2.98462,0.744629,
-2.96021,0.738525,
-2.92969,0.741577,
-2.89917,0.741577,
-2.86407,0.750732,
-2.82745,0.743103,
-2.79083,0.72937,
-2.75116,0.743103,
-2.70844,0.746155,
-2.66266,0.752258,
-2.61993,0.743103,
-2.57416,0.740051,
-2.53143,0.740051,
-2.48413,0.743103,
-2.43225,0.75531,
-2.39105,0.741577,
-2.34222,0.727844,
-2.29797,0.737,
-2.25372,0.744629,
-2.21558,0.750732,
-2.17438,0.746155,
-2.13318,0.740051,
-2.09656,0.737,
-2.06451,0.765991,
-2.02789,0.752258,
-2.00043,0.744629,
-1.97296,0.741577,
-1.95007,0.738525,
-1.93024,0.744629,
-1.9104,0.753784,
-1.89056,0.741577,
-1.87378,0.738525,
-1.86157,0.738525,
-1.84937,0.746155,
-1.84174,0.752258,
-1.83258,0.743103,
-1.82648,0.741577,
-1.8219,0.740051,
-1.8158,0.743103,
-1.8158,0.750732,
-1.80969,0.743103,
-1.80511,0.740051,
-1.80664,0.741577,
-1.80664,0.741577,
-1.81122,0.753784,
-1.81274,0.738525,
-1.8158,0.738525,
-1.81732,0.740051,
-1.82343,0.741577,
-1.82495,0.753784,
-1.83411,0.746155,
-1.83411,0.740051,
-1.84021,0.741577,
-1.85089,0.749207,
-1.86157,0.750732,
-1.8692,0.741577,
-1.87836,0.740051,
-1.89209,0.743103,
-1.89972,0.741577,
-1.9104,0.749207,
-1.92108,0.746155,
-1.92871,0.733948,
-1.93481,0.737,
-1.94702,0.746155,
-1.9516,0.747681,
-1.9577,0.744629,
-1.96075,0.740051,
-1.96075,0.740051,
-1.96686,0.749207,
-1.97144,0.750732,
-1.97754,0.743103,
-1.97906,0.740051,
-1.98364,0.738525,
-1.98212,0.744629,
-1.98212,0.749207,
-1.98669,0.744629,
-1.98669,0.740051,
-1.98364,0.737,
-1.98517,0.747681,
-1.98059,0.752258,
-1.97906,0.747681,
-1.97601,0.741577,
-1.96838,0.738525,
-1.96533,0.747681,
-1.95923,0.753784,
-1.9577,0.744629,
-1.95465,0.737,
-1.9516,0.738525,
-1.94855,0.747681,
-1.94244,0.752258,
-1.94702,0.743103,
-1.94397,0.737,
-1.94092,0.741577,
-1.93787,0.744629,
-1.93329,0.752258,
-1.93481,0.744629,
-1.93634,0.744629,
-1.93634,0.741577,
-1.94244,0.744629,
-1.94092,0.749207,
-1.94244,0.744629,
-1.94092,0.743103,
-1.94397,0.741577,
-1.94855,0.743103,
-1.94397,0.750732,
-1.9516,0.741577,
-1.95923,0.743103,
-1.96686,0.740051,
-1.97754,0.746155,
-1.98364,0.749207,
-1.98822,0.744629,
-1.99738,0.740051,
-2.00958,0.740051,
-2.01721,0.747681,
-2.02484,0.752258,
-2.03857,0.744629,
-2.04926,0.738525,
-2.06299,0.740051,
-2.07214,0.747681,
-2.08588,0.747681,
-2.09808,0.743103,
-2.10876,0.741577,
-2.11639,0.738525,
-2.13165,0.747681,
-2.13928,0.75531,
-2.15149,0.744629,
-2.15912,0.737,
-2.17133,0.740051,
-2.18353,0.744629,
-2.19574,0.747681,
-2.20337,0.744629,
-2.21252,0.740051,
-2.22321,0.733948,
-2.23389,0.744629,
-2.24152,0.753784,
-2.25067,0.741577,
-2.25983,0.727844,
-2.27509,0.740051,
-2.28424,0.744629,
-2.2995,0.752258,
-2.3056,0.744629,
-2.31628,0.740051,
-2.32697,0.737,
-2.33917,0.741577,
-2.34985,0.752258,
-2.36664,0.741577,
-2.37579,0.741577,
-2.38953,0.738525,
-2.40173,0.741577,
-2.41547,0.752258,
-2.42157,0.746155,
-2.43378,0.737,
-2.44446,0.741577,
-2.45361,0.743103,
-2.46429,0.750732,
-2.47345,0.746155,
-2.48566,0.737,
-2.49481,0.730896,
-2.50244,0.743103,
-2.50854,0.752258,
-2.51923,0.749207,
-2.52991,0.740051,
-2.53906,0.741577,
-2.55127,0.744629,
-2.56042,0.750732,
-2.57111,0.744629,
-2.58026,0.737,
-2.59094,0.741577,
-2.59552,0.741577,
-2.60315,0.747681,
-2.6062,0.749207,
-2.61841,0.737,
-2.62299,0.738525,
-2.63367,0.746155,
-2.6413,0.747681,
-2.64893,0.749207,
-2.65503,0.741577,
-2.66113,0.740051,
-2.67029,0.746155,
-2.68097,0.753784,
-2.69012,0.741577,
-2.69928,0.737,
-2.70996,0.737,
-2.71606,0.743103,
-2.72522,0.746155,
-2.73438,0.741577,
-2.74353,0.737,
-2.74963,0.738525,
-2.75574,0.746155,
-2.76337,0.749207,
-2.77252,0.743103,
-2.7771,0.738525,
-2.78168,0.737,
-2.78625,0.746155,
-2.79541,0.752258,
-2.79999,0.732422,
-2.80762,0.738525,
-2.81067,0.733948,
-2.81525,0.741577,
-2.82593,0.749207,
-2.83813,0.738525,
-2.85034,0.738525,
-2.85645,0.738525,
-2.8656,0.740051,
-2.87628,0.747681,
-2.88391,0.746155,
-2.89307,0.738525,
-2.9068,0.741577,
-2.9129,0.741577,
-2.92206,0.749207,
-2.93427,0.743103,
-2.94189,0.733948,
-2.95105,0.740051,
-2.95868,0.740051,
-2.97241,0.750732,
-2.97852,0.741577,
-2.98767,0.732422,
-3.0014,0.741577,
-3.00903,0.744629,
-3.01666,0.750732,
-3.02582,0.744629,
-3.03192,0.740051,
-3.0365,0.741577,
-3.04565,0.744629,
-3.05176,0.750732,
-3.05786,0.744629,
-3.06396,0.733948,
-3.06854,0.733948,
-3.08228,0.746155,
-3.0899,0.747681,
-3.09906,0.741577,
-3.10822,0.738525,
-3.11584,0.730896,
-3.12042,0.746155,
-3.1311,0.750732,
-3.13873,0.743103,
-3.14941,0.740051,
-3.16162,0.738525,
-3.17078,0.741577,
-3.18146,0.752258,
-3.19672,0.743103,
-3.20435,0.737,
-3.2135,0.730896,
-3.22571,0.740051,
-3.23639,0.750732,
-3.25317,0.738525,
-3.25928,0.733948,
-3.26385,0.732422,
-3.27148,0.740051,
-3.27759,0.75531,
-3.28369,0.740051,
-3.29437,0.733948,
-3.302,0.740051,
-3.31116,0.740051,
-3.32031,0.750732,
-3.32336,0.740051,
-3.33252,0.732422,
-3.34015,0.737,
-3.34625,0.741577,
-3.35236,0.746155,
-3.36304,0.741577,
-3.37067,0.726318,
-3.3783,0.737,
-3.38745,0.737,
-3.39661,0.746155,
-3.40118,0.744629,
-3.41187,0.726318,
-3.41644,0.75531,
-3.4256,0.741577,
-3.43323,0.746155,
-3.43781,0.743103,
-3.44391,0.732422,
-3.44238,0.733948,
-3.44391,0.741577,
-3.43628,0.749207,
-3.43628,0.744629,
-3.4317,0.740051,
-3.41797,0.727844,
-3.40576,0.744629,
-3.3905,0.747681,
-3.37372,0.740051,
-3.35236,0.737,
-3.32947,0.737,
-3.30658,0.741577,
-3.27759,0.746155,
-3.25012,0.740051,
-3.21655,0.730896,
-3.18604,0.733948,
-3.14941,0.743103,
-3.10974,0.747681,
-3.06702,0.733948,
-3.0304,0.740051,
-2.98462,0.737,
-2.94189,0.743103,
-2.89917,0.752258,
-2.85187,0.740051,
-2.80762,0.740051,
-2.76642,0.733948,
-2.72217,0.740051,
-2.6825,0.746155,
-2.63672,0.738525,
-2.59552,0.732422,
-2.55432,0.733948,
-2.5116,0.737,
-2.4765,0.746155,
-2.43835,0.743103,
-2.40326,0.724792,
-2.37122,0.740051,
-2.34222,0.741577,
-2.31018,0.750732,
-2.28729,0.741577,
-2.26288,0.732422,
-2.23846,0.740051,
-2.2171,0.741577,
-2.19421,0.749207,
-2.17438,0.740051,
-2.15454,0.730896,
-2.14233,0.732422,
-2.13013,0.741577,
-2.11639,0.746155,
-2.10571,0.741577,
-2.09198,0.740051,
-2.08282,0.737,
-2.07214,0.730896,
-2.06909,0.749207,
-2.06451,0.741577,
-2.05841,0.733948,
-2.05231,0.732422,
-2.04926,0.741577,
-2.04468,0.744629,
-2.04163,0.740051,
-2.04468,0.738525,
-2.04468,0.72937,
-2.0462,0.738525,
-2.04773,0.747681,
-2.05078,0.737,
-2.05231,0.738525,
-2.05536,0.737,
-2.06299,0.740051,
-2.06299,0.752258,
-2.06757,0.747681,
-2.06757,0.737,
-2.07062,0.733948,
-2.07062,0.741577,
-2.07367,0.747681,
-2.07977,0.733948,
-2.0813,0.732422,
-2.08282,0.733948,
-2.0874,0.738525,
-2.08893,0.746155,
-2.08893,0.740051,
-2.0874,0.732422,
-2.08893,0.737,
-2.08893,0.740051,
-2.08893,0.744629,
-2.08588,0.746155,
-2.0813,0.737,
-2.07367,0.737,
-2.05688,0.740051,
-2.03705,0.747681,
-2.02026,0.738525,
-2.00043,0.727844,
-1.97144,0.732422,
-1.94855,0.737,
-1.92566,0.743103,
-1.90582,0.744629,
-1.87683,0.732422,
-1.85089,0.733948,
-1.83563,0.741577,
-1.80969,0.747681,
-1.78986,0.743103,
-1.76697,0.732422,
-1.75018,0.732422,
-1.72729,0.738525,
-1.71204,0.741577,
-1.68915,0.740051,
-1.66931,0.737,
-1.651,0.730896,
-1.64032,0.740051,
-1.62506,0.746155,
-1.60828,0.740051,
-1.59454,0.737,
-1.58539,0.737,
-1.57928,0.740051,
-1.57166,0.753784,
-1.56555,0.738525,
-1.55792,0.727844,
-1.55029,0.732422,
-1.54724,0.743103,
-1.54419,0.744629,
-1.53503,0.737,
-1.53198,0.732422,
-1.53503,0.737,
-1.53351,0.737,
-1.53656,0.746155,
-1.53198,0.740051,
-1.53351,0.733948,
-1.53351,0.737,
-1.53351,0.740051,
-1.53046,0.746155,
-1.53198,0.737,
-1.52893,0.730896,
-1.53351,0.732422,
-1.53503,0.740051,
-1.53351,0.743103,
-1.53656,0.740051,
-1.54266,0.727844,
-1.54114,0.733948,
-1.54419,0.738525,
-1.55029,0.746155,
-1.55029,0.741577,
-1.55334,0.732422,
-1.55487,0.737,
-1.56097,0.744629,
-1.56555,0.746155,
-1.57166,0.741577,
-1.57623,0.733948,
-1.57928,0.732422,
-1.57471,0.743103,
-1.57318,0.740051,
-1.57318,0.738525,
-1.57318,0.726318,
-1.56555,0.732422,
-1.56097,0.737,
-1.55945,0.737,
-1.5564,0.738525,
-1.55487,0.738525,
-1.55334,0.737,
-1.55334,0.740051,
-1.55182,0.743103,
-1.55029,0.733948,
-1.54572,0.732422,
-1.54724,0.72937,
-1.54572,0.733948,
-1.54419,0.746155,
-1.54419,0.737,
-1.54419,0.730896,
-1.54419,0.730896,
-1.54266,0.727844,
-1.53656,0.743103,
-1.53656,0.738525,
-1.53503,0.72937,
-1.53503,0.737,
-1.53503,0.737,
-1.53503,0.730896,
-1.53351,0.740051,
-1.5274,0.727844,
-1.52435,0.732422,
-1.5213,0.732422,
-1.51672,0.743103,
-1.51367,0.738525,
-1.51367,0.730896,
-1.50909,0.733948,
-1.50604,0.738525,
-1.50604,0.740051,
-1.50452,0.737,
-1.49994,0.72937,
-1.49689,0.72937,
-1.49231,0.740051,
-1.49078,0.738525,
-1.49231,0.738525,
-1.49536,0.741577,
-1.49384,0.732422,
-1.49536,0.737,
-1.49689,0.737,
-1.49689,0.737,
-1.49994,0.732422,
-1.50146,0.730896,
-1.50299,0.738525,
-1.50604,0.744629,
-1.51672,0.737,
-1.51672,0.732422,
-1.51978,0.72937,
-1.5274,0.738525,
-1.53198,0.743103,
-1.53198,0.737,
-1.53503,0.727844,
-1.54419,0.726318,
-1.54877,0.732422,
-1.55029,0.741577,
-1.55792,0.726318,
-1.5625,0.730896,
-1.5625,0.730896,
-1.57013,0.737,
-1.57166,0.746155,
-1.57623,0.732422,
-1.58081,0.724792,
-1.58539,0.727844,
-1.59149,0.738525,
-1.59607,0.744629,
-1.60217,0.737,
-1.6037,0.72937,
-1.60522,0.72937,
-1.60828,0.737,
-1.61743,0.741577,
-1.62048,0.733948,
-1.62811,0.727844,
-1.63116,0.732422,
-1.63422,0.741577,
-1.64032,0.744629,
-1.64185,0.732422,
-1.64185,0.72937,
-1.64642,0.732422,
-1.651,0.730896,
-1.6571,0.743103,
-1.66016,0.741577,
-1.66626,0.72937,
-1.67236,0.72937,
-1.67847,0.738525,
-1.68304,0.737,
-1.6922,0.737,
-1.69983,0.732422,
-1.70593,0.726318,
-1.71204,0.738525,
-1.71967,0.738525,
-1.72577,0.740051,
-1.73492,0.730896,
-1.73645,0.726318,
-1.75018,0.737,
-1.75323,0.740051,
-1.75629,0.730896,
-1.75629,0.727844,
-1.75934,0.727844,
-1.76239,0.733948,
-1.76849,0.738525,
-1.77612,0.732422,
-1.78375,0.726318,
-1.79138,0.72937,
-1.79443,0.737,
-1.80359,0.740051,
-1.80969,0.741577,
-1.81274,0.72937,
-1.82037,0.732422,
-1.8219,0.732422,
-1.83105,0.740051,
-1.83563,0.733948,
-1.84021,0.726318,
-1.85089,0.723267,
-1.85699,0.72937,
-1.86768,0.750732,
-1.87225,0.732422,
-1.87988,0.726318,
-1.88599,0.730896,
-1.89667,0.733948,
-1.90582,0.740051,
-1.91803,0.738525,
-1.92108,0.733948,
-1.93634,0.72937,
-1.94244,0.732422,
-1.9516,0.737,
-1.95923,0.732422,
-1.96533,0.726318,
-1.96991,0.727844,
-1.97296,0.733948,
-1.96991,0.730896,
-1.96228,0.733948,
-1.95923,0.727844,
-1.95313,0.727844,
-1.94244,0.737,
-1.92871,0.740051,
-1.90887,0.737,
-1.88599,0.730896,
-1.8692,0.724792,
-1.84174,0.733948,
-1.81732,0.738525,
-1.78986,0.737,
-1.75934,0.730896,
-1.72577,0.726318,
-1.69373,0.732422,
-1.6571,0.738525,
-1.61743,0.72937,
-1.57928,0.72937,
-1.53503,0.730896,
-1.48926,0.730896,
-1.44806,0.737,
-1.40533,0.732422,
-1.36261,0.724792,
-1.32141,0.72937,
-1.27563,0.72937,
-1.23138,0.738525,
-1.19019,0.726318,
-1.14899,0.723267,
-1.10626,0.72937,
-1.06812,0.732422,
-1.02844,0.737,
-0.984192,0.733948,
-0.947571,0.721741,
-0.91095,0.726318,
-0.880432,0.72937,
-0.846863,0.733948,
-0.819397,0.741577,
-0.791931,0.730896,
-0.770569,0.727844,
-0.746155,0.733948,
-0.72937,0.738525,
-0.708008,0.737,
-0.68512,0.726318,
-0.669861,0.718689,
-0.654602,0.733948,
-0.637817,0.730896,
-0.627136,0.730896,
-0.616455,0.727844,
-0.608826,0.726318,
-0.588989,0.733948,
-0.582886,0.740051,
-0.576782,0.733948,
-0.575256,0.732422,
-0.57373,0.727844,
-0.57373,0.730896,
-0.57373,0.738525,
-0.575256,0.732422,
-0.576782,0.727844,
-0.575256,0.726318,
-0.579834,0.730896,
-0.584412,0.733948,
-0.584412,0.72937,
-0.588989,0.724792,
-0.592041,0.72937,
-0.595093,0.732422,
-0.59967,0.738525,
-0.605774,0.737,
-0.613403,0.727844,
-0.619507,0.72937,
-0.624084,0.732422,
-0.631714,0.732422,
-0.640869,0.732422,
-0.648499,0.726318,
-0.650024,0.72937,
-0.65918,0.72937,
-0.660706,0.733948,
-0.671387,0.737,
-0.67749,0.723267,
-0.683594,0.72937,
-0.68512,0.733948,
-0.686646,0.737,
-0.689697,0.733948,
-0.686646,0.726318,
-0.688171,0.727844,
-0.686646,0.730896,
-0.688171,0.733948,
-0.683594,0.733948,
-0.682068,0.727844,
-0.67749,0.724792,
-0.674438,0.730896,
-0.663757,0.732422,
-0.663757,0.732422,
-0.654602,0.723267,
-0.650024,0.726318,
-0.645447,0.732422,
-0.640869,0.733948,
-0.634766,0.730896,
-0.628662,0.724792,
-0.62561,0.724792,
-0.619507,0.733948,
-0.613403,0.730896,
-0.6073,0.733948,
-0.604248,0.723267,
-0.59967,0.724792,
-0.592041,0.72937,
-0.587463,0.730896,
-0.584412,0.72937,
-0.576782,0.724792,
-0.576782,0.726318,
-0.575256,0.726318,
-0.572205,0.732422,
-0.57373,0.732422,
-0.57373,0.726318,
-0.572205,0.726318,
-0.575256,0.732422,
-0.572205,0.730896,
-0.575256,0.727844,
-0.575256,0.723267,
-0.578308,0.726318,
-0.588989,0.726318,
-0.590515,0.733948,
-0.593567,0.737,
-0.59967,0.720215,
-0.605774,0.727844,
-0.608826,0.732422,
-0.614929,0.733948,
-0.624084,0.733948,
-0.631714,0.726318,
-0.642395,0.726318,
-0.65155,0.733948,
-0.660706,0.72937,
-0.669861,0.72937,
-0.675964,0.721741,
-0.680542,0.723267,
-0.688171,0.732422,
-0.694275,0.72937,
-0.701904,0.730896,
-0.71106,0.724792,
-0.714111,0.724792,
-0.720215,0.732422,
-0.730896,0.72937,
-0.738525,0.730896,
-0.744629,0.723267,
-0.759888,0.721741,
-0.762939,0.733948,
-0.773621,0.730896,
-0.778198,0.730896,
-0.787354,0.723267,
-0.798035,0.720215,
-0.808716,0.730896,
-0.822449,0.733948,
-0.830078,0.727844,
-0.840759,0.727844,
-0.854492,0.724792,
-0.860596,0.727844,
-0.869751,0.730896,
-0.880432,0.730896,
-0.888062,0.726318,
-0.895691,0.724792,
-0.904846,0.732422,
-0.917053,0.737,
-0.926208,0.732422,
-0.933838,0.721741,
-0.941467,0.724792,
-0.950623,0.726318,
-0.961304,0.733948,
-0.973511,0.732422,
-0.978088,0.724792,
-0.984192,0.72937,
-0.993347,0.733948,
-1.0025,0.737,
-1.00861,0.730896,
-1.01471,0.721741,
-1.02081,0.724792,
-1.02692,0.727844,
-1.03455,0.730896,
-1.0376,0.732422,
-1.0437,0.720215,
-1.04828,0.724792,
-1.05743,0.733948,
-1.06049,0.727844,
-1.06812,0.732422,
-1.0788,0.721741,
-1.0849,0.721741,
-1.08948,0.730896,
-1.09711,0.733948,
-1.10779,0.72937,
-1.11389,0.724792,
-1.12,0.723267,
-1.12762,0.732422,
-1.13983,0.727844,
-1.14441,0.727844,
-1.15509,0.724792,
-1.15814,0.718689,
-1.16882,0.727844,
-1.17798,0.732422,
-1.18256,0.727844,
-1.18561,0.721741,
-1.19629,0.721741,
-1.20087,0.724792,
-1.2085,0.730896,
-1.21918,0.727844,
-1.22375,0.721741,
-1.23138,0.721741,
-1.23596,0.730896,
-1.24207,0.72937,
-1.24664,0.72937,
-1.25427,0.721741,
-1.2558,0.723267,
-1.25885,0.727844,
-1.26038,0.72937,
-1.26495,0.732422,
-1.26648,0.718689,
-1.27716,0.726318,
-1.28326,0.730896,
-1.29242,0.730896,
-1.3031,0.730896,
-1.30615,0.721741,
-1.31226,0.724792,
-1.32294,0.72937,
-1.32904,0.727844,
-1.3382,0.72937,
-1.34888,0.721741,
-1.35193,0.721741,
-1.36108,0.72937,
-1.36719,0.727844,
-1.37177,0.72937,
-1.38092,0.720215,
-1.39008,0.724792,
-1.39771,0.730896,
-1.40533,0.737,
-1.41449,0.72937,
-1.42975,0.723267,
-1.43585,0.726318,
-1.44653,0.72937,
-1.45569,0.733948,
-1.46637,0.730896,
-1.474,0.723267,
-1.48315,0.721741,
-1.49231,0.72937,
-1.49841,0.730896,
-1.50604,0.724792,
-1.51978,0.723267,
-1.53198,0.723267,
-1.54114,0.727844,
-1.55182,0.737,
-1.55792,0.72937,
-1.56403,0.723267,
-1.57318,0.723267,
-1.58386,0.727844,
-1.59912,0.733948,
-1.60675,0.726318,
-1.61591,0.720215,
-1.62506,0.723267,
-1.63269,0.726318,
-1.64032,0.72937,
-1.651,0.730896,
-1.66321,0.718689,
-1.66931,0.720215,
-1.67999,0.730896,
-1.6922,0.733948,
-1.70288,0.72937,
-1.71661,0.720215,
-1.72424,0.723267,
-1.7334,0.727844,
-1.74103,0.72937,
-1.75476,0.726318,
-1.76086,0.715637,
-1.77307,0.743103,
-1.7807,0.727844,
-1.78986,0.727844,
-1.79596,0.727844,
-1.80359,0.721741,
-1.80511,0.721741,
-1.81274,0.72937,
-1.8158,0.730896,
-1.8158,0.72937,
-1.81427,0.720215,
-1.81122,0.720215,
-1.80664,0.72937,
-1.80359,0.72937,
-1.79596,0.726318,
-1.78528,0.720215,
-1.76544,0.715637,
-1.75018,0.727844,
-1.72882,0.732422,
-1.70288,0.726318,
-1.67847,0.720215,
-1.64948,0.720215,
-1.61743,0.727844,
-1.58234,0.730896,
-1.54877,0.746155,
-1.51215,0.724792,
-1.47247,0.717163,
-1.43127,0.727844,
-1.3916,0.72937,
-1.3504,0.724792,
-1.30157,0.720215,
-1.26038,0.715637,
-1.21765,0.724792,
-1.1734,0.732422,
-1.12762,0.727844,
-1.08337,0.720215,
-1.03912,0.723267,
-0.996399,0.727844,
-0.950623,0.72937,
-0.907898,0.727844,
-0.866699,0.718689,
-0.828552,0.721741,
-0.790405,0.723267,
-0.752258,0.727844,
-0.718689,0.723267,
-0.682068,0.714111,
-0.653076,0.720215,
-0.622559,0.727844,
-0.590515,0.726318,
-0.564575,0.726318,
-0.546265,0.718689,
-0.524902,0.721741,
-0.505066,0.727844,
-0.485229,0.726318,
-0.471497,0.726318,
-0.454712,0.721741,
-0.440979,0.718689,
-0.428772,0.727844,
-0.416565,0.727844,
-0.408936,0.727844,
-0.39978,0.718689,
-0.39978,0.717163,
-0.392151,0.730896,
-0.389099,0.730896,
-0.386047,0.724792,
-0.382996,0.721741,
-0.38147,0.721741,
-0.382996,0.724792,
-0.38147,0.72937,
-0.382996,0.723267,
-0.379944,0.720215,
-0.386047,0.718689,
-0.390625,0.724792,
-0.392151,0.72937,
-0.392151,0.721741,
-0.398254,0.721741,
-0.404358,0.723267,
-0.405884,0.727844,
-0.411987,0.730896,
-0.416565,0.720215,
-0.421143,0.718689,
-0.422668,0.718689,
-0.428772,0.727844,
-0.43335,0.726318,
-0.439453,0.717163,
-0.439453,0.715637,
-0.442505,0.723267,
-0.447083,0.721741,
-0.448608,0.724792,
-0.450134,0.726318,
-0.448608,0.717163,
-0.448608,0.720215,
-0.448608,0.727844,
-0.448608,0.727844,
-0.45166,0.727844,
-0.448608,0.720215,
-0.447083,0.718689,
-0.445557,0.727844,
-0.442505,0.727844,
-0.439453,0.724792,
-0.434875,0.714111,
-0.42572,0.717163,
-0.418091,0.726318,
-0.413513,0.724792,
-0.411987,0.724792,
-0.402832,0.715637,
-0.393677,0.717163,
-0.387573,0.718689,
-0.384521,0.72937,
-0.372314,0.721741,
-0.366211,0.718689,
-0.35553,0.721741,
-0.350952,0.724792,
-0.344849,0.72937,
-0.340271,0.723267,
-0.332642,0.717163,
-0.328064,0.715637,
-0.32959,0.721741,
-0.32959,0.727844,
-0.331116,0.721741,
-0.32959,0.717163,
-0.328064,0.721741,
-0.332642,0.723267,
-0.334167,0.726318,
-0.335693,0.724792,
-0.337219,0.717163,
-0.340271,0.721741,
-0.343323,0.740051,
-0.344849,0.730896,
-0.354004,0.723267,
-0.35553,0.712585,
-0.360107,0.718689,
-0.366211,0.721741,
-0.37384,0.727844,
-0.384521,0.723267,
-0.390625,0.715637,
-0.398254,0.718689,
-0.410461,0.724792,
-0.416565,0.726318,
-0.428772,0.727844,
-0.439453,0.715637,
-0.448608,0.720215,
-0.453186,0.726318,
-0.456238,0.726318,
-0.468445,0.724792,
-0.480652,0.714111,
-0.488281,0.718689,
-0.497437,0.724792,
-0.506592,0.724792,
-0.515747,0.720215,
-0.52948,0.714111,
-0.538635,0.71106,
-0.550842,0.730896,
-0.564575,0.72937,
-0.578308,0.726318,
-0.588989,0.717163,
-0.596619,0.721741,
-0.604248,0.727844,
-0.613403,0.724792,
-0.621033,0.72937,
-0.63324,0.718689,
-0.640869,0.717163,
-0.648499,0.720215,
-0.65918,0.72937,
-0.660706,0.723267,
-0.665283,0.715637,
-0.67749,0.718689,
-0.68512,0.724792,
-0.691223,0.727844,
-0.704956,0.721741,
-0.71106,0.717163,
-0.715637,0.717163,
-0.723267,0.717163,
-0.730896,0.721741,
-0.738525,0.720215,
-0.746155,0.718689,
-0.753784,0.720215,
-0.765991,0.718689,
-0.772095,0.723267,
-0.782776,0.72937,
-0.790405,0.712585,
-0.802612,0.737,
-0.80719,0.726318,
-0.816345,0.726318,
-0.822449,0.72937,
-0.827026,0.717163,
-0.830078,0.709534,
-0.836182,0.726318,
-0.843811,0.724792,
-0.85144,0.715637,
-0.860596,0.715637,
-0.862122,0.714111,
-0.869751,0.723267,
-0.880432,0.723267,
-0.891113,0.724792,
-0.898743,0.715637,
-0.912476,0.714111,
-0.915527,0.724792,
-0.926208,0.727844,
-0.932312,0.721741,
-0.938416,0.717163,
-0.946045,0.715637,
-0.949097,0.724792,
-0.9552,0.723267,
-0.961304,0.721741,
-0.971985,0.717163,
-0.975037,0.71106,
-0.979614,0.721741,
-0.985718,0.724792,
-0.993347,0.718689,
-0.999451,0.717163,
-1.00555,0.717163,
-1.01471,0.723267,
-1.01929,0.727844,
-1.02997,0.723267,
-1.03302,0.712585,
-1.04065,0.715637,
-1.04675,0.720215,
-1.05286,0.726318,
-1.06049,0.718689,
-1.06659,0.715637,
-1.07727,0.717163,
-1.08337,0.720215,
-1.09558,0.727844,
-1.10168,0.724792,
-1.11084,0.715637,
-1.12,0.720215,
-1.1261,0.724792,
-1.13525,0.723267,
-1.13983,0.724792,
-1.14136,0.71106,
-1.14746,0.715637,
-1.15509,0.718689,
-1.15967,0.724792,
-1.16577,0.726318,
-1.17493,0.712585,
-1.1734,0.712585,
-1.1795,0.721741,
-1.18408,0.737,
-1.19629,0.724792,
-1.20087,0.715637,
-1.2085,0.717163,
-1.2146,0.724792,
-1.22528,0.723267,
-1.23291,0.724792,
-1.24359,0.717163,
-1.25275,0.717163,
-1.25885,0.724792,
-1.26801,0.723267,
-1.27563,0.721741,
-1.28479,0.715637,
-1.29395,0.717163,
-1.30157,0.721741,
-1.31378,0.727844,
-1.31836,0.720215,
-1.32599,0.718689,
-1.32904,0.717163,
-1.33972,0.723267,
-1.34583,0.726318,
-1.35345,0.723267,
-1.35956,0.717163,
-1.37634,0.717163,
-1.38702,0.718689,
-1.39923,0.724792,
-1.40533,0.721741,
-1.41602,0.714111,
-1.42517,0.715637,
-1.43127,0.720215,
-1.44501,0.726318,
-1.45569,0.721741,
-1.46027,0.709534,
-1.4679,0.717163,
-1.47705,0.721741,
-1.48621,0.726318,
-1.49231,0.724792,
-1.50452,0.714111,
-1.51215,0.720215,
-1.52435,0.718689,
-1.53198,0.726318,
-1.54266,0.720215,
-1.55334,0.71106,
-1.56097,0.720215,
-1.56555,0.720215,
-1.57166,0.721741,
-1.57471,0.723267,
-1.58081,0.717163,
-1.57928,0.718689,
-1.57623,0.723267,
-1.57166,0.724792,
-1.56555,0.720215,
-1.5564,0.715637,
-1.54877,0.717163,
-1.53198,0.723267,
-1.5152,0.721741,
-1.49689,0.721741,
-1.47095,0.717163,
-1.44653,0.71106,
-1.41296,0.720215,
-1.38092,0.727844,
-1.3443,0.717163,
-1.30615,0.717163,
-1.26495,0.717163,
-1.21918,0.721741,
-1.17493,0.72937,
-1.12305,0.720215,
-1.07727,0.71106,
-1.03149,0.714111,
-0.979614,0.720215,
-0.927734,0.724792,
-0.878906,0.718689,
-0.827026,0.714111,
-0.772095,0.717163,
-0.721741,0.720215,
-0.672913,0.727844,
-0.627136,0.721741,
-0.579834,0.712585,
-0.52948,0.720215,
-0.488281,0.723267,
-0.447083,0.724792,
-0.402832,0.723267,
-0.366211,0.70343,
-0.32959,0.714111,
-0.292969,0.718689,
-0.267029,0.724792,
-0.238037,0.720215,
-0.212097,0.709534,
-0.190735,0.715637,
-0.167847,0.718689,
-0.14801,0.720215,
-0.128174,0.723267,
-0.109863,0.715637,
-0.0991821,0.717163,
-0.0869751,0.720215,
-0.0717163,0.724792,
-0.0640869,0.720215,
-0.0518799,0.714111,
-0.0457764,0.712585,
-0.0427246,0.717163,
-0.0411987,0.726318,
-0.038147,0.714111,
-0.038147,0.712585,
-0.0350952,0.709534,
-0.0366211,0.720215,
-0.0335693,0.724792,
-0.0350952,0.718689,
-0.0335693,0.721741,
-0.0366211,0.712585,
-0.038147,0.720215,
-0.0473022,0.724792,
-0.0534058,0.717163,
-0.0610352,0.715637,
-0.0671387,0.712585,
-0.0747681,0.718689,
-0.0823975,0.724792,
-0.0915527,0.720215,
-0.100708,0.715637,
-0.106812,0.715637,
-0.114441,0.718689,
-0.12207,0.727844,
-0.126648,0.720215,
-0.132751,0.714111,
-0.137329,0.715637,
-0.140381,0.720215,
-0.144958,0.724792,
-0.149536,0.720215,
-0.151062,0.714111,
-0.154114,0.717163,
-0.154114,0.718689,
-0.15564,0.721741,
-0.151062,0.721741,
-0.144958,0.714111,
-0.141907,0.717163,
-0.140381,0.71106,
-0.135803,0.715637,
-0.135803,0.721741,
-0.128174,0.708008,
-0.120544,0.717163,
-0.114441,0.724792,
-0.108337,0.724792,
-0.102234,0.718689,
-0.0961304,0.701904,
-0.0869751,0.709534,
-0.0778198,0.718689,
-0.0732422,0.720215,
-0.062561,0.720215,
-0.0518799,0.708008,
-0.0442505,0.71106,
-0.0350952,0.743103,
-0.0259399,0.723267,
-0.0198364,0.717163,
-0.0167847,0.709534,
-0.0106812,0.71106,
-0.00610352,0.718689,
-0.00305176,0.720215,
0,0.717163,
-0.00457764,0.712585,
0,0.714111,
-0.00762939,0.720215,
-0.00610352,0.724792,
-0.012207,0.715637,
-0.012207,0.714111,
-0.0183105,0.712585,
-0.0244141,0.720215,
-0.0350952,0.720215,
-0.038147,0.717163,
-0.0427246,0.709534,
-0.0473022,0.714111,
-0.0564575,0.715637,
-0.0701904,0.724792,
-0.0808716,0.717163,
-0.0900269,0.71106,
-0.102234,0.714111,
-0.108337,0.714111,
-0.120544,0.721741,
-0.132751,0.720215,
-0.138855,0.714111,
-0.149536,0.717163,
-0.158691,0.720215,
-0.172424,0.720215,
-0.18158,0.724792,
-0.192261,0.70343,
-0.205994,0.715637,
-0.210571,0.717163,
-0.218201,0.721741,
-0.231934,0.715637,
-0.245667,0.71106,
-0.253296,0.712585,
-0.268555,0.720215,
-0.27771,0.723267,
-0.292969,0.720215,
-0.30365,0.714111,
-0.314331,0.714111,
-0.328064,0.724792,
-0.340271,0.726318,
-0.3479,0.714111,
-0.361633,0.712585,
-0.370789,0.709534,
-0.382996,0.715637,
-0.386047,0.720215,
-0.396729,0.718689,
-0.401306,0.712585,
-0.405884,0.709534,
-0.416565,0.720215,
-0.424194,0.721741,
-0.428772,0.717163,
-0.440979,0.715637,
-0.447083,0.712585,
-0.457764,0.721741,
-0.466919,0.727844,
-0.468445,0.717163,
-0.480652,0.71106,
-0.489807,0.71106,
-0.497437,0.718689,
-0.505066,0.723267,
-0.511169,0.715637,
-0.518799,0.71106,
-0.526428,0.71106,
-0.538635,0.717163,
-0.543213,0.721741,
-0.549316,0.718689,
-0.563049,0.70343,
-0.564575,0.708008,
-0.57373,0.717163,
-0.584412,0.721741,
-0.588989,0.721741,
-0.592041,0.712585,
-0.601196,0.712585,
-0.608826,0.718689,
-0.616455,0.709534,
-0.621033,0.718689,
-0.631714,0.714111,
-0.634766,0.709534,
-0.643921,0.71106,
-0.650024,0.720215,
-0.657654,0.718689,
-0.669861,0.733948,
-0.671387,0.71106,
-0.682068,0.723267,
-0.688171,0.718689,
-0.698853,0.720215,
-0.704956,0.712585,
-0.714111,0.709534,
-0.718689,0.717163,
-0.724792,0.721741,
-0.730896,0.718689,
-0.740051,0.715637,
-0.746155,0.708008,
-0.753784,0.717163,
-0.762939,0.723267,
-0.767517,0.715637,
-0.779724,0.712585,
-0.785828,0.714111,
-0.790405,0.717163,
-0.798035,0.723267,
-0.805664,0.717163,
-0.810242,0.714111,
-0.819397,0.709534,
-0.823975,0.715637,
-0.834656,0.720215,
-0.843811,0.715637,
-0.85144,0.71106,
-0.85907,0.709534,
-0.869751,0.714111,
-0.880432,0.720215,
-0.888062,0.717163,
-0.895691,0.71106,
-0.901794,0.723267,
-0.912476,0.718689,
-0.926208,0.720215,
-0.93689,0.717163,
-0.944519,0.71106,
-0.952148,0.712585,
-0.964355,0.715637,
-0.973511,0.718689,
-0.982666,0.717163,
-0.985718,0.708008,
-0.999451,0.709534,
-1.00861,0.720215,
-1.01929,0.717163,
-1.03149,0.715637,
-1.04218,0.71106,
-1.05286,0.709534,
-1.06049,0.723267,
-1.06964,0.721741,
-1.08032,0.715637,
-1.08948,0.714111,
-1.10779,0.708008,
-1.11847,0.718689,
-1.12915,0.720215,
-1.13983,0.715637,
-1.14899,0.709534,
-1.15967,0.70343,
-1.17493,0.717163,
-1.18713,0.720215,
-1.19476,0.715637,
-1.2085,0.712585,
-1.21918,0.71106,
-1.22833,0.715637,
-1.23901,0.726318,
-1.24664,0.718689,
-1.25732,0.708008,
-1.26038,0.708008,
-1.26801,0.721741,
-1.27563,0.724792,
-1.28479,0.715637,
-1.29089,0.712585,
-1.30157,0.706482,
-1.30463,0.714111,
-1.31531,0.718689,
-1.32751,0.718689,
-1.33209,0.709534,
-1.3443,0.712585,
-1.35345,0.715637,
-1.36414,0.718689,
-1.37177,0.720215,
-1.37634,0.709534,
-1.38092,0.708008,
-1.3855,0.712585,
-1.3855,0.720215,
-1.38397,0.709534,
-1.37482,0.71106,
-1.37177,0.700378,
-1.35956,0.718689,
-1.34583,0.717163,
-1.32751,0.717163,
-1.30463,0.708008,
-1.28326,0.70343,
-1.25732,0.717163,
-1.22375,0.721741,
-1.19476,0.717163,
-1.15967,0.712585,
-1.12305,0.709534,
-1.08795,0.718689,
-1.04218,0.720215,
-0.999451,0.715637,
-0.953674,0.71106,
-0.90332,0.706482,
-0.849915,0.715637,
-0.798035,0.718689,
-0.744629,0.706482,
-0.688171,0.712585,
-0.631714,0.712585,
-0.579834,0.714111,
-0.52948,0.723267,
-0.4776,0.718689,
-0.427246,0.712585,
-0.372314,0.71106,
-0.325012,0.718689,
-0.279236,0.714111,
-0.236511,0.715637,
-0.195313,0.709534,
-0.151062,0.709534,
-0.108337,0.714111,
-0.0762939,0.724792,
-0.0442505,0.717163,
-0.0167847,0.708008,
0.0106812,0.71106,
0.0335693,0.717163,
0.0564575,0.721741,
0.0793457,0.721741,
0.0930786,0.709534,
0.105286,0.708008,
0.120544,0.720215,
0.131226,0.721741,
0.146484,0.714111,
0.154114,0.706482,
0.161743,0.709534,
0.167847,0.717163,
0.177002,0.717163,
0.183105,0.714111,
0.186157,0.71106,
0.190735,0.708008,
0.190735,0.717163,
0.189209,0.720215,
0.195313,0.714111,
0.190735,0.712585,
0.186157,0.71106,
0.186157,0.717163,
0.18158,0.720215,
0.178528,0.715637,
0.170898,0.709534,
0.160217,0.701904,
0.149536,0.715637,
0.134277,0.721741,
0.125122,0.708008,
0.112915,0.708008,
0.105286,0.71106,
0.0930786,0.717163,
0.0793457,0.727844,
0.0732422,0.712585,
0.0671387,0.71106,
0.0549316,0.712585,
0.0473022,0.717163,
0.0427246,0.723267,
0.0366211,0.709534,
0.0320435,0.708008,
0.0244141,0.709534,
0.0228882,0.715637,
0.0152588,0.717163,
0.012207,0.715637,
0.0137329,0.708008,
0.0152588,0.709534,
0.0152588,0.71106,
0.0152588,0.717163,
0.0198364,0.715637,
0.0259399,0.712585,
0.0305176,0.71106,
0.038147,0.718689,
0.038147,0.721741,
0.0396729,0.714111,
0.0442505,0.708008,
0.050354,0.712585,
0.0564575,0.715637,
0.0640869,0.715637,
0.0732422,0.71106,
0.0808716,0.71106,
0.0930786,0.71106,
0.0976563,0.720215,
0.105286,0.723267,
0.112915,0.714111,
0.119019,0.71106,
0.12207,0.71106,
0.128174,0.718689,
0.135803,0.723267,
0.140381,0.714111,
0.146484,0.706482,
0.146484,0.70343,
0.149536,0.714111,
0.151062,0.723267,
0.152588,0.712585,
0.14801,0.709534,
0.141907,0.71106,
0.138855,0.714111,
0.131226,0.721741,
0.126648,0.717163,
0.123596,0.708008,
0.119019,0.708008,
0.114441,0.715637,
0.105286,0.720215,
0.0991821,0.715637,
0.0946045,0.709534,
0.0839233,0.70343,
0.0717163,0.71106,
0.0595093,0.718689,
0.0473022,0.709534,
0.0335693,0.706482,
0.0198364,0.708008,
0.00610352,0.717163,
-0.00762939,0.718689,
-0.0198364,0.717163,
-0.0289917,0.709534,
-0.0473022,0.70343,
-0.0656128,0.718689,
-0.0762939,0.718689,
-0.0930786,0.715637,
-0.105286,0.709534,
-0.115967,0.706482,
-0.131226,0.715637,
-0.140381,0.717163,
-0.15564,0.712585,
-0.166321,0.709534,
-0.180054,0.70343,
-0.190735,0.717163,
-0.20752,0.718689,
-0.221252,0.712585,
-0.238037,0.709534,
-0.248718,0.70343,
-0.260925,0.714111,
-0.274658,0.723267,
-0.286865,0.714111,
-0.299072,0.708008,
-0.312805,0.706482,
-0.326538,0.712585,
-0.337219,0.724792,
-0.350952,0.709534,
-0.358582,0.706482,
-0.367737,0.708008,
-0.375366,0.709534,
-0.386047,0.740051,
-0.401306,0.709534,
-0.413513,0.706482,
-0.421143,0.71106,
-0.43335,0.718689,
-0.450134,0.717163,
-0.45929,0.715637,
-0.469971,0.706482,
-0.480652,0.708008,
-0.488281,0.712585,
-0.502014,0.717163,
-0.509644,0.714111,
-0.518799,0.70343,
-0.531006,0.706482,
-0.540161,0.718689,
-0.553894,0.730896,
-0.563049,0.714111,
-0.569153,0.709534,
-0.57373,0.706482,
-0.582886,0.715637,
-0.587463,0.720215,
-0.593567,0.712585,
-0.604248,0.708008,
-0.608826,0.706482,
-0.614929,0.717163,
-0.627136,0.717163,
-0.636292,0.712585,
-0.645447,0.709534,
-0.65155,0.700378,
-0.663757,0.714111,
-0.671387,0.720215,
-0.67749,0.708008,
-0.68512,0.712585,
-0.700378,0.706482,
-0.706482,0.71106,
-0.715637,0.721741,
-0.721741,0.715637,
-0.732422,0.706482,
-0.738525,0.709534,
-0.749207,0.715637,
-0.761414,0.718689,
-0.773621,0.709534,
-0.787354,0.708008,
-0.798035,0.709534,
-0.805664,0.712585,
-0.816345,0.718689,
-0.827026,0.71106,
-0.83313,0.70343,
-0.846863,0.71106,
-0.85907,0.712585,
-0.868225,0.723267,
-0.87738,0.718689,
-0.886536,0.708008,
-0.894165,0.708008,
-0.906372,0.718689,
-0.917053,0.718689,
-0.924683,0.712585,
-0.93689,0.701904,
-0.946045,0.701904,
-0.956726,0.715637,
-0.967407,0.720215,
-0.973511,0.706482,
-0.982666,0.709534,
-0.991821,0.70343,
-1.0025,0.71106,
-1.01776,0.718689,
-1.02844,0.712585,
-1.0376,0.706482,
-1.0498,0.700378,
-1.05743,0.714111,
-1.06506,0.721741,
-1.08032,0.714111,
-1.09711,0.709534,
-1.10779,0.706482,
-1.11694,0.714111,
-1.12915,0.718689,
-1.13831,0.71106,
-1.14594,0.71106,
-1.15662,0.708008,
-1.1673,0.709534,
-1.18103,0.721741,
-1.18866,0.714111,
-1.20544,0.706482,
-1.21765,0.708008,
-1.22681,0.714111,
-1.23749,0.718689,
-1.24817,0.698853,
-1.26038,0.709534,
-1.26648,0.708008,
-1.28021,0.706482,
-1.28632,0.718689,
-1.297,0.714111,
-1.3031,0.698853,
-1.31378,0.706482,
-1.32446,0.715637,
-1.33362,0.717163,
-1.34888,0.71106,
-1.35956,0.708008,
-1.37329,0.700378,
-1.38397,0.717163,
-1.39771,0.721741,
-1.40991,0.709534,
-1.41907,0.708008,
-1.43433,0.70343,
-1.44348,0.715637,
-1.45111,0.726318,
-1.45874,0.71106,
-1.46942,0.709534,
-1.47247,0.701904,
-1.47705,0.709534,
-1.48315,0.720215,
-1.48315,0.708008,
-1.48315,0.70343,
-1.4801,0.700378,
-1.47247,0.71106,
-1.45569,0.721741,
-1.43738,0.71106,
-1.42517,0.701904,
-1.39923,0.708008,
-1.37177,0.71106,
-1.33972,0.723267,
-1.3031,0.712585,
-1.26953,0.708008,
-1.23138,0.70343,
-1.18408,0.71106,
-1.13678,0.720215,
-1.08643,0.709534,
-1.0376,0.706482,
-0.982666,0.701904,
-0.927734,0.715637,
-0.874329,0.717163,
-0.816345,0.71106,
-0.762939,0.709534,
-0.708008,0.706482,
-0.646973,0.718689,
-0.588989,0.718689,
-0.538635,0.712585,
-0.485229,0.708008,
-0.437927,0.70343,
-0.386047,0.712585,
-0.340271,0.717163,
-0.299072,0.708008,
-0.259399,0.709534,
-0.224304,0.70343,
-0.192261,0.708008,
-0.161743,0.720215,
-0.137329,0.712585,
-0.108337,0.708008,
-0.0823975,0.706482,
-0.0640869,0.712585,
-0.0427246,0.721741,
-0.0289917,0.71106,
-0.012207,0.709534,
0,0.708008,
0.012207,0.71106,
0.0213623,0.718689,
0.038147,0.708008,
0.0427246,0.708008,
0.0549316,0.706482,
0.0564575,0.71106,
0.0640869,0.718689,
0.0671387,0.708008,
0.0656128,0.708008,
0.0671387,0.700378,
0.0686646,0.71106,
0.062561,0.717163,
0.0564575,0.708008,
0.0549316,0.709534,
0.050354,0.709534,
0.0473022,0.714111,
0.0396729,0.718689,
0.0350952,0.709534,
0.0244141,0.706482,
0.0183105,0.706482,
0.00915527,0.712585,
0,0.717163,
-0.012207,0.709534,
-0.0274658,0.708008,
-0.0396729,0.708008,
-0.0473022,0.709534,
-0.0564575,0.723267,
-0.0686646,0.708008,
-0.0823975,0.709534,
-0.0930786,0.71106,
-0.0976563,0.71106,
-0.108337,0.720215,
-0.119019,0.708008,
-0.12207,0.706482,
-0.120544,0.70343,
-0.128174,0.708008,
-0.1297,0.717163,
-0.132751,0.706482,
-0.132751,0.706482,
-0.134277,0.709534,
-0.134277,0.708008,
-0.132751,0.717163,
-0.132751,0.71106,
-0.132751,0.70343,
-0.134277,0.712585,
-0.137329,0.712585,
-0.135803,0.720215,
-0.132751,0.709534,
-0.1297,0.708008,
-0.120544,0.709534,
-0.119019,0.71106,
-0.114441,0.717163,
-0.105286,0.708008,
-0.0991821,0.700378,
-0.0900269,0.709534,
-0.0839233,0.71106,
-0.0732422,0.717163,
-0.0701904,0.709534,
-0.0640869,0.706482,
-0.0640869,0.70343,
-0.0610352,0.715637,
-0.062561,0.721741,
-0.0610352,0.712585,
-0.0656128,0.709534,
-0.062561,0.706482,
-0.062561,0.712585,
-0.0701904,0.717163,
-0.0732422,0.708008,
-0.0793457,0.708008,
-0.0839233,0.698853,
-0.0900269,0.708008,
-0.0991821,0.715637,
-0.105286,0.708008,
-0.111389,0.708008,
-0.119019,0.701904,
-0.131226,0.71106,
-0.137329,0.718689,
-0.149536,0.709534,
-0.154114,0.708008,
-0.163269,0.71106,
-0.178528,0.71106,
-0.190735,0.718689,
-0.201416,0.709534,
-0.216675,0.701904,
-0.222778,0.708008,
-0.236511,0.709534,
-0.248718,0.718689,
-0.265503,0.714111,
-0.268555,0.70343,
-0.27771,0.706482,
-0.296021,0.708008,
-0.314331,0.718689,
-0.325012,0.714111,
-0.341797,0.70343,
-0.35553,0.700378,
-0.370789,0.712585,
-0.387573,0.715637,
-0.408936,0.709534,
-0.427246,0.700378,
-0.445557,0.698853,
-0.457764,0.71106,
-0.476074,0.720215,
-0.488281,0.709534,
-0.50354,0.706482,
-0.511169,0.701904,
-0.526428,0.71106,
-0.537109,0.720215,
-0.550842,0.706482,
-0.563049,0.700378,
-0.578308,0.708008,
-0.588989,0.714111,
-0.601196,0.717163,
-0.614929,0.708008,
-0.624084,0.708008,
-0.63324,0.706482,
-0.648499,0.708008,
-0.662231,0.717163,
-0.679016,0.70343,
-0.688171,0.701904,
-0.700378,0.701904,
-0.715637,0.706482,
-0.727844,0.718689,
-0.741577,0.71106,
-0.756836,0.706482,
-0.767517,0.708008,
-0.78125,0.712585,
-0.791931,0.718689,
-0.801086,0.709534,
-0.811768,0.698853,
-0.823975,0.708008,
-0.830078,0.706482,
-0.839233,0.718689,
-0.845337,0.701904,
-0.849915,0.697327,
-0.862122,0.70343,
-0.868225,0.709534,
-0.875854,0.712585,
-0.883484,0.71106,
-0.895691,0.706482,
-0.898743,0.706482,
-0.91095,0.712585,
-0.917053,0.717163,
-0.924683,0.709534,
-0.93689,0.70343,
-0.946045,0.70343,
-0.952148,0.708008,
-0.961304,0.715637,
-0.968933,0.706482,
-0.978088,0.700378,
-0.984192,0.701904,
-0.991821,0.709534,
-0.999451,0.71106,
-1.00555,0.706482,
-1.01318,0.706482,
-1.02081,0.708008,
-1.02997,0.708008,
-1.03607,0.714111,
-1.04065,0.720215,
-1.05133,0.708008,
-1.05743,0.70343,
-1.06506,0.709534,
-1.07269,0.715637,
-1.07727,0.701904,
-1.0849,0.701904,
-1.091,0.695801,
-1.10168,0.70343,
-1.11237,0.718689,
-1.12152,0.71106,
-1.12915,0.70343,
-1.14288,0.709534,
-1.15356,0.709534,
-1.16119,0.717163,
-1.17188,0.71106,
-1.18256,0.720215,
-1.19019,0.706482,
-1.20087,0.706482,
-1.20697,0.715637,
-1.2146,0.714111,
-1.22986,0.698853,
-1.24054,0.70343,
-1.24817,0.700378,
-1.25427,0.71106,
-1.26648,0.71106,
-1.27411,0.700378,
-1.28632,0.700378,
-1.29547,0.71106,
-1.3092,0.715637,
-1.31989,0.71106,
-1.33057,0.697327,
-1.34125,0.70343,
-1.35193,0.708008,
-1.37024,0.712585,
-1.38245,0.708008,
-1.39618,0.700378,
-1.40839,0.701904,
-1.42059,0.712585,
-1.4328,0.715637,
-1.44348,0.706482,
-1.46027,0.70343,
-1.474,0.701904,
-1.48926,0.708008,
-1.49841,0.712585,
-1.50909,0.712585,
-1.52435,0.70343,
-1.53656,0.701904,
-1.55029,0.708008,
-1.55945,0.714111,
-1.57166,0.706482,
-1.58081,0.700378,
-1.59454,0.698853,
-1.59912,0.70343,
-1.61743,0.712585,
-1.62201,0.709534,
-1.63116,0.700378,
-1.63574,0.70343,
-1.63574,0.71106,
-1.64185,0.712585,
-1.64032,0.714111,
-1.63727,0.700378,
-1.62964,0.700378,
-1.61896,0.709534,
-1.60522,0.715637,
-1.58997,0.709534,
-1.56708,0.698853,
-1.54572,0.700378,
-1.51825,0.71106,
-1.48315,0.71106,
-1.44958,0.712585,
-1.41144,0.700378,
-1.36871,0.698853,
-1.32446,0.709534,
-1.28326,0.714111,
-1.23291,0.709534,
-1.18256,0.701904,
-1.12762,0.700378,
-1.07574,0.706482,
-1.02081,0.712585,
-0.96283,0.708008,
-0.909424,0.701904,
-0.854492,0.698853,
-0.796509,0.709534,
-0.741577,0.714111,
-0.68512,0.709534,
-0.631714,0.706482,
-0.584412,0.709534,
-0.538635,0.70343,
-0.497437,0.712585,
-0.457764,0.709534,
-0.421143,0.701904,
-0.389099,0.70343,
-0.360107,0.708008,
-0.332642,0.714111,
-0.306702,0.709534,
-0.283813,0.701904,
-0.265503,0.70343,
-0.25177,0.708008,
-0.239563,0.70343,
-0.22583,0.712585,
-0.213623,0.70343,
-0.19989,0.692749,
-0.190735,0.697327,
-0.189209,0.714111,
-0.18158,0.709534,
-0.183105,0.70343,
-0.180054,0.700378,
-0.180054,0.708008,
-0.177002,0.712585,
-0.177002,0.709534,
-0.180054,0.697327,
-0.183105,0.701904,
-0.183105,0.712585,
-0.189209,0.708008,
-0.193787,0.71106,
-0.19989,0.70343,
-0.210571,0.700378,
-0.222778,0.700378,
-0.231934,0.71106,
-0.247192,0.709534,
-0.256348,0.701904,
-0.271606,0.700378,
-0.282288,0.706482,
-0.299072,0.709534,
-0.317383,0.71106,
-0.32959,0.706482,
-0.340271,0.701904,
-0.352478,0.700378,
-0.367737,0.712585,
-0.382996,0.708008,
-0.398254,0.701904,
-0.405884,0.701904,
-0.418091,0.695801,
-0.428772,0.714111,
-0.440979,0.71106,
-0.445557,0.70343,
-0.454712,0.700378,
-0.460815,0.706482,
-0.466919,0.706482,
-0.468445,0.709534,
-0.4776,0.701904,
-0.476074,0.70343,
-0.479126,0.701904,
-0.480652,0.708008,
-0.480652,0.706482,
-0.482178,0.697327,
-0.479126,0.700378,
-0.474548,0.706482,
-0.473022,0.709534,
-0.469971,0.708008,
-0.471497,0.700378,
-0.463867,0.695801,
-0.456238,0.708008,
-0.454712,0.71106,
-0.450134,0.712585,
-0.445557,0.698853,
-0.440979,0.698853,
-0.437927,0.708008,
-0.431824,0.709534,
-0.427246,0.715637,
-0.424194,0.697327,
-0.421143,0.700378,
-0.418091,0.708008,
-0.421143,0.71106,
-0.424194,0.706482,
-0.422668,0.695801,
-0.427246,0.709534,
-0.427246,0.70343,
-0.427246,0.709534,
-0.428772,0.709534,
-0.437927,0.700378,
-0.45166,0.698853,
-0.457764,0.701904,
-0.469971,0.709534,
-0.476074,0.706482,
-0.488281,0.700378,
-0.497437,0.698853,
-0.506592,0.701904,
-0.517273,0.712585,
-0.52948,0.712585,
-0.541687,0.698853,
-0.55542,0.70343,
-0.567627,0.708008,
-0.579834,0.71106,
-0.593567,0.709534,
-0.604248,0.698853,
-0.619507,0.701904,
-0.63324,0.706482,
-0.654602,0.708008,
-0.665283,0.71106,
-0.675964,0.701904,
-0.688171,0.701904,
-0.706482,0.70343,
-0.717163,0.709534,
-0.730896,0.709534,
-0.738525,0.698853,
-0.750732,0.701904,
-0.761414,0.706482,
-0.775146,0.709534,
-0.791931,0.708008,
-0.805664,0.692749,
-0.817871,0.70343,
-0.823975,0.71106,
-0.837708,0.706482,
-0.856018,0.706482,
-0.865173,0.700378,
-0.878906,0.698853,
-0.892639,0.70343,
-0.906372,0.708008,
-0.921631,0.708008,
-0.935364,0.698853,
-0.947571,0.701904,
-0.959778,0.70343,
-0.968933,0.71106,
-0.979614,0.71106,
-0.993347,0.701904,
-1.00555,0.700378,
-1.01471,0.701904,
-1.02539,0.709534,
-1.03607,0.708008,
-1.04828,0.695801,
-1.05438,0.709534,
-1.06354,0.697327,
-1.07269,0.708008,
-1.08337,0.71106,
-1.09253,0.701904,
-1.10168,0.70343,
-1.11542,0.706482,
-1.12305,0.708008,
-1.13678,0.714111,
-1.14899,0.689697,
-1.15814,0.700378,
-1.17035,0.700378,
-1.17798,0.709534,
-1.18713,0.709534,
-1.19476,0.694275,
-1.20392,0.700378,
-1.20697,0.70343,
-1.2146,0.706482,
-1.21918,0.709534,
-1.23138,0.701904,
-1.23596,0.698853,
-1.24207,0.706482,
-1.24817,0.708008,
-1.25275,0.71106,
-1.2619,0.700378,
-1.26801,0.698853,
-1.27563,0.70343,
-1.28326,0.706482,
-1.29242,0.70343,
-1.297,0.700378,
-1.3031,0.694275,
-1.31378,0.70343,
-1.31836,0.712585,
-1.32751,0.70343,
-1.33972,0.70343,
-1.34125,0.701904,
-1.35193,0.700378,
-1.35498,0.709534,
-1.36871,0.708008,
-1.37482,0.700378,
-1.38245,0.695801,
-1.38855,0.698853,
-1.39618,0.709534,
-1.40533,0.70343,
-1.41296,0.695801,
-1.41907,0.700378,
-1.43127,0.697327,
-1.43738,0.71106,
-1.44501,0.709534,
-1.45569,0.700378,
-1.46332,0.701904,
-1.47858,0.708008,
-1.49078,0.709534,
-1.49994,0.71106,
-1.50909,0.697327,
-1.51825,0.70343,
-1.53046,0.697327,
-1.54419,0.709534,
-1.55334,0.709534,
-1.55945,0.697327,
-1.57013,0.701904,
-1.57776,0.70343,
-1.59302,0.708008,
-1.60217,0.71106,
-1.61133,0.698853,
-1.62048,0.700378,
-1.62506,0.70343,
-1.63879,0.709534,
-1.64948,0.708008,
-1.66473,0.698853,
-1.67084,0.700378,
-1.68304,0.701904,
-1.69373,0.706482,
-1.70288,0.708008,
-1.71204,0.695801,
-1.72424,0.700378,
-1.7334,0.709534,
-1.74713,0.71106,
-1.75629,0.695801,
-1.76697,0.701904,
-1.7807,0.700378,
-1.79138,0.701904,
-1.79901,0.706482,
-1.80359,0.71106,
-1.81427,0.695801,
-1.82037,0.692749,
-1.83105,0.701904,
-1.84021,0.709534,
-1.85242,0.70343,
-1.86615,0.700378,
-1.87531,0.698853,
-1.88293,0.70343,
-1.89819,0.71106,
-1.9043,0.708008,
-1.91193,0.698853,
-1.91498,0.706482,
-1.92566,0.697327,
-1.93176,0.709534,
-1.93329,0.709534,
-1.93787,0.695801,
-1.93481,0.698853,
-1.93176,0.697327,
-1.92719,0.708008,
-1.91803,0.708008,
-1.90125,0.692749,
-1.88446,0.697327,
-1.86462,0.700378,
-1.83868,0.70343,
-1.80511,0.714111,
-1.77002,0.698853,
-1.7334,0.698853,
-1.68915,0.701904,
-1.64642,0.708008,
-1.60522,0.708008,
-1.55334,0.691223,
-1.49536,0.697327,
-1.44348,0.70343,
-1.38397,0.70343,
-1.32599,0.71106,
-1.27258,0.700378,
-1.21765,0.695801,
-1.16425,0.701904,
-1.10931,0.709534,
-1.0498,0.708008,
-0.999451,0.697327,
-0.942993,0.695801,
-0.894165,0.700378,
-0.85144,0.700378,
-0.805664,0.706482,
-0.765991,0.695801,
-0.72937,0.691223,
-0.694275,0.70343,
-0.665283,0.71106,
-0.63324,0.706482,
-0.6073,0.692749,
-0.582886,0.697327,
-0.556946,0.700378,
-0.538635,0.714111,
-0.526428,0.706482,
-0.512695,0.697327,
-0.497437,0.697327,
-0.489807,0.701904,
-0.482178,0.708008,
-0.474548,0.70343,
-0.473022,0.695801,
-0.468445,0.697327,
-0.469971,0.697327,
-0.471497,0.709534,
-0.471497,0.709534,
-0.4776,0.694275,
-0.482178,0.697327,
-0.489807,0.701904,
-0.497437,0.708008,
-0.498962,0.71106,
-0.500488,0.697327,
-0.505066,0.697327,
-0.512695,0.700378,
-0.518799,0.706482,
-0.527954,0.706482,
-0.537109,0.691223,
-0.549316,0.695801,
-0.558472,0.706482,
-0.566101,0.70343,
-0.575256,0.706482,
-0.588989,0.697327,
-0.598145,0.695801,
-0.611877,0.70343,
-0.621033,0.70343,
-0.636292,0.70343,
-0.650024,0.697327,
-0.662231,0.698853,
-0.669861,0.700378,
-0.679016,0.708008,
-0.688171,0.71106,
-0.701904,0.694275,
-0.708008,0.692749,
-0.714111,0.70343,
-0.718689,0.714111,
-0.724792,0.70343,
-0.733948,0.695801,
-0.738525,0.698853,
-0.741577,0.701904,
-0.746155,0.71106,
-0.747681,0.70343,
-0.747681,0.697327,
-0.749207,0.694275,
-0.747681,0.697327,
-0.741577,0.708008,
-0.738525,0.70343,
-0.732422,0.695801,
-0.724792,0.697327,
-0.717163,0.697327,
-0.709534,0.708008,
-0.70343,0.708008,
-0.688171,0.692749,
-0.686646,0.698853,
-0.679016,0.701904,
-0.674438,0.709534,
-0.672913,0.706482,
-0.671387,0.692749,
-0.669861,0.695801,
-0.665283,0.695801,
-0.666809,0.706482,
-0.669861,0.708008,
-0.669861,0.692749,
-0.671387,0.712585,
-0.67749,0.708008,
-0.679016,0.708008,
-0.682068,0.709534,
-0.691223,0.695801,
-0.694275,0.692749,
-0.70343,0.701904,
-0.712585,0.70343,
-0.720215,0.724792,
-0.72937,0.694275,
-0.733948,0.692749,
-0.744629,0.698853,
-0.747681,0.701904,
-0.759888,0.706482,
-0.772095,0.694275,
-0.776672,0.692749,
-0.788879,0.70343,
-0.799561,0.708008,
-0.811768,0.706482,
-0.823975,0.698853,
-0.834656,0.692749,
-0.848389,0.700378,
-0.862122,0.700378,
-0.874329,0.70343,
-0.886536,0.697327,
-0.897217,0.691223,
-0.91095,0.698853,
-0.924683,0.709534,
-0.93689,0.70343,
-0.953674,0.700378,
-0.964355,0.694275,
-0.973511,0.700378,
-0.98877,0.709534,
-0.997925,0.691223,
-1.01013,0.697327,
-1.02692,0.695801,
-1.03455,0.697327,
-1.04218,0.706482,
-1.06049,0.700378,
-1.06964,0.695801,
-1.08185,0.692749,
-1.091,0.695801,
-1.10016,0.708008,
-1.11237,0.708008,
-1.12457,0.700378,
-1.13983,0.695801,
-1.14899,0.698853,
-1.15662,0.708008,
-1.17035,0.706482,
-1.17798,0.700378,
-1.18561,0.694275,
-1.19629,0.695801,
-1.20697,0.706482,
-1.21613,0.695801,
-1.22833,0.695801,
-1.23901,0.697327,
-1.24817,0.700378,
-1.25732,0.70343,
-1.26953,0.709534,
-1.28326,0.701904,
-1.29395,0.691223,
-1.30463,0.701904,
-1.31531,0.721741,
-1.32751,0.694275,
-1.34125,0.694275,
-1.35345,0.694275,
-1.36108,0.697327,
-1.37482,0.701904,
-1.3855,0.708008,
-1.39008,0.698853,
-1.40228,0.689697,
-1.40533,0.701904,
-1.41144,0.71106,
-1.42212,0.706482,
-1.42822,0.698853,
-1.4328,0.692749,
-1.44043,0.700378,
-1.44958,0.70343,
-1.45874,0.701904,
-1.46942,0.698853,
-1.474,0.689697,
-1.48621,0.692749,
-1.49384,0.709534,
-1.49689,0.701904,
-1.50604,0.697327,
-1.51215,0.694275,
-1.5213,0.698853,
-1.52893,0.706482,
-1.53503,0.701904,
-1.54266,0.698853,
-1.54724,0.692749,
-1.5564,0.701904,
-1.56708,0.708008,
-1.57776,0.701904,
-1.58691,0.697327,
-1.59454,0.694275,
-1.60522,0.695801,
-1.61438,0.706482,
-1.62506,0.708008,
-1.63422,0.697327,
-1.64795,0.697327,
-1.6571,0.700378,
-1.66321,0.701904,
-1.66931,0.706482,
-1.67847,0.694275,
-1.69067,0.691223,
-1.69678,0.698853,
-1.70288,0.701904,
-1.71204,0.720215,
-1.72272,0.692749,
-1.73187,0.692749,
-1.74103,0.70343,
-1.75323,0.706482,
-1.76239,0.708008,
-1.77307,0.694275,
-1.78223,0.689697,
-1.79138,0.694275,
-1.80206,0.706482,
-1.81122,0.700378,
-1.82037,0.694275,
-1.82648,0.691223,
-1.83868,0.697327,
-1.84631,0.701904,
-1.85547,0.70343,
-1.8631,0.692749,
-1.87378,0.689697,
-1.87988,0.697327,
-1.89209,0.708008,
-1.89972,0.70343,
-1.90887,0.694275,
-1.92261,0.692749,
-1.93176,0.697327,
-1.94092,0.709534,
-1.95465,0.70343,
-1.96381,0.692749,
-1.97601,0.689697,
-1.98364,0.695801,
-1.9989,0.70343,
-2.01111,0.698853,
-2.02332,0.692749,
-2.03857,0.691223,
-2.04773,0.697327,
-2.05841,0.706482,
-2.06757,0.706482,
-2.07977,0.691223,
-2.09198,0.692749,
-2.10571,0.697327,
-2.11639,0.70343,
-2.12708,0.706482,
-2.13776,0.694275,
-2.14539,0.692749,
-2.15759,0.695801,
-2.16217,0.708008,
-2.17133,0.700378,
-2.1759,0.694275,
-2.18353,0.689697,
-2.18811,0.698853,
-2.18811,0.708008,
-2.18048,0.708008,
-2.17285,0.695801,
-2.1637,0.688171,
-2.14386,0.700378,
-2.12555,0.708008,
-2.10114,0.706482,
-2.07367,0.695801,
-2.04468,0.691223,
-2.00806,0.698853,
-1.96533,0.701904,
-1.92413,0.700378,
-1.87988,0.695801,
-1.82648,0.686646,
-1.77612,0.695801,
-1.71661,0.706482,
-1.66473,0.701904,
-1.6037,0.695801,
-1.54266,0.695801,
-1.48315,0.695801,
-1.42059,0.706482,
-1.36108,0.70343,
-1.30157,0.695801,
-1.24359,0.689697,
-1.19019,0.691223,
-1.14136,0.701904,
-1.09253,0.700378,
-1.0437,0.691223,
-0.999451,0.692749,
-0.959778,0.694275,
-0.917053,0.706482,
-0.883484,0.701904,
-0.85144,0.692749,
-0.819397,0.691223,
-0.785828,0.698853,
-0.761414,0.70343,
-0.737,0.70343,
-0.717163,0.695801,
-0.701904,0.692749,
-0.683594,0.697327,
-0.666809,0.706482,
-0.660706,0.70343,
-0.653076,0.692749,
-0.645447,0.691223,
-0.637817,0.700378,
-0.630188,0.701904,
-0.628662,0.701904,
-0.628662,0.694275,
-0.630188,0.689697,
-0.630188,0.700378,
-0.630188,0.70343,
-0.63324,0.701904,
-0.634766,0.697327,
-0.637817,0.689697,
-0.640869,0.697327,
-0.650024,0.701904,
-0.654602,0.701904,
-0.663757,0.689697,
-0.675964,0.692749,
-0.68512,0.692749,
-0.692749,0.706482,
-0.700378,0.692749,
-0.712585,0.692749,
-0.724792,0.688171,
-0.733948,0.698853,
-0.746155,0.709534,
-0.753784,0.70343,
-0.764465,0.697327,
-0.776672,0.686646,
-0.787354,0.698853,
-0.799561,0.708008,
-0.810242,0.698853,
-0.822449,0.692749,
-0.83313,0.689697,
-0.845337,0.692749,
-0.849915,0.706482,
-0.856018,0.68512,
-0.857544,0.689697,
-0.865173,0.691223,
-0.865173,0.698853,
-0.863647,0.701904,
-0.863647,0.701904,
-0.860596,0.695801,
-0.862122,0.691223,
-0.860596,0.697327,
-0.85907,0.701904,
-0.856018,0.701904,
-0.85144,0.689697,
-0.848389,0.689697,
-0.846863,0.698853,
-0.840759,0.701904,
-0.831604,0.71106,
-0.827026,0.692749,
-0.8255,0.691223,
-0.819397,0.701904,
-0.816345,0.706482,
-0.808716,0.700378,
-0.804138,0.697327,
-0.799561,0.691223,
-0.796509,0.688171,
-0.790405,0.70343,
-0.787354,0.698853,
-0.785828,0.697327,
-0.779724,0.688171,
-0.782776,0.698853,
-0.785828,0.701904,
-0.785828,0.701904,
-0.787354,0.698853,
-0.791931,0.692749,
-0.798035,0.701904,
-0.802612,0.706482,
-0.80719,0.701904,
-0.814819,0.697327,
-0.823975,0.692749,
-0.831604,0.700378,
-0.839233,0.706482,
-0.846863,0.698853,
-0.856018,0.692749,
-0.865173,0.694275,
-0.87738,0.697327,
-0.888062,0.706482,
-0.897217,0.701904,
-0.91095,0.694275,
-0.921631,0.691223,
-0.93689,0.698853,
-0.946045,0.706482,
-0.961304,0.695801,
-0.968933,0.692749,
-0.982666,0.692749,
-0.993347,0.694275,
-1.00861,0.697327,
-1.01776,0.706482,
-1.02539,0.692749,
-1.0376,0.694275,
-1.04828,0.692749,
-1.06049,0.706482,
-1.0788,0.700378,
-1.08948,0.697327,
-1.10016,0.692749,
-1.11237,0.695801,
-1.12305,0.701904,
-1.13831,0.701904,
-1.15051,0.695801,
-1.15967,0.709534,
-1.17188,0.694275,
-1.18256,0.698853,
-1.19476,0.697327,
-1.2085,0.697327,
-1.22528,0.688171,
-1.23901,0.698853,
-1.2558,0.697327,
-1.26953,0.700378,
-1.28174,0.694275,
-1.29395,0.689697,
-1.30463,0.698853,
-1.32141,0.698853,
-1.33514,0.70343,
-1.34583,0.695801,
-1.35498,0.686646,
-1.36414,0.695801,
-1.37634,0.70343,
-1.3855,0.697327,
-1.3916,0.697327,
-1.40228,0.689697,
-1.40686,0.698853,
-1.41296,0.706482,
-1.42059,0.698853,
-1.4267,0.694275,
-1.43585,0.689697,
-1.44958,0.695801,
-1.45874,0.706482,
-1.46332,0.697327,
-1.47095,0.694275,
-1.47858,0.688171,
-1.48926,0.694275,
-1.49689,0.70343,
-1.50146,0.706482,
-1.50909,0.691223,
-1.51367,0.689697,
-1.5213,0.691223,
-1.52893,0.70343,
-1.53503,0.701904,
-1.54266,0.694275,
-1.54877,0.688171,
-1.55334,0.698853,
-1.55945,0.70343,
-1.57013,0.706482,
-1.57623,0.688171,
-1.58539,0.689697,
-1.59454,0.695801,
-1.60522,0.697327,
-1.61285,0.700378,
-1.61743,0.700378,
-1.62354,0.689697,
-1.62964,0.698853,
-1.63269,0.70343,
-1.64032,0.698853,
-1.6449,0.697327,
-1.64642,0.683594,
-1.65253,0.695801,
-1.66016,0.697327,
-1.66779,0.701904,
-1.66779,0.695801,
-1.67542,0.68512,
-1.68304,0.697327,
-1.68762,0.70343,
-1.6983,0.700378,
-1.70898,0.698853,
-1.71204,0.694275,
-1.72119,0.692749,
-1.72882,0.70343,
-1.73798,0.701904,
-1.75171,0.694275,
-1.75781,0.688171,
-1.76544,0.697327,
-1.77765,0.706482,
-1.78528,0.698853,
-1.79443,0.692749,
-1.80664,0.689697,
-1.81427,0.697327,
-1.82343,0.700378,
-1.83716,0.70343,
-1.84631,0.692749,
-1.85699,0.689697,
-1.86462,0.695801,
-1.87378,0.70343,
-1.88293,0.70343,
-1.88904,0.697327,
-1.89819,0.689697,
-1.90887,0.691223,
-1.91498,0.700378,
-1.92566,0.700378,
-1.93634,0.692749,
-1.94855,0.692749,
-1.95923,0.692749,
-1.97144,0.701904,
-1.98059,0.701904,
-1.98669,0.695801,
-1.99585,0.68512,
-2.00958,0.695801,
-2.01874,0.701904,
-2.02637,0.701904,
-2.03552,0.689697,
-2.04468,0.679016,
-2.05078,0.709534,
-2.06451,0.697327,
-2.06909,0.700378,
-2.07825,0.695801,
-2.0874,0.686646,
-2.09961,0.694275,
-2.11182,0.70343,
-2.12402,0.70343,
-2.13318,0.694275,
-2.14081,0.689697,
-2.15454,0.697327,
-2.16064,0.70343,
-2.1637,0.700378,
-2.17133,0.686646,
-2.17896,0.689697,
-2.18048,0.695801,
-2.18201,0.691223,
-2.18048,0.698853,
-2.1759,0.695801,
-2.1698,0.691223,
-2.15912,0.698853,
-2.14386,0.70343,
-2.13013,0.700378,
-2.10724,0.706482,
-2.0813,0.689697,
-2.05536,0.694275,
-2.02026,0.701904,
-1.98364,0.701904,
-1.93939,0.689697,
-1.89514,0.688171,
-1.84784,0.695801,
-1.79749,0.706482,
-1.74713,0.700378,
-1.6922,0.692749,
-1.63422,0.691223,
-1.57471,0.695801,
-1.50909,0.700378,
-1.44958,0.700378,
-1.38855,0.692749,
-1.32904,0.692749,
-1.27411,0.692749,
-1.21613,0.701904,
-1.15967,0.698853,
-1.11237,0.692749,
-1.06506,0.686646,
-1.02081,0.692749,
-0.978088,0.70343,
-0.941467,0.70343,
-0.901794,0.694275,
-0.866699,0.686646,
-0.831604,0.695801,
-0.802612,0.698853,
-0.772095,0.698853,
-0.750732,0.697327,
-0.72937,0.688171,
-0.709534,0.692749,
-0.691223,0.700378,
-0.67749,0.698853,
-0.663757,0.695801,
-0.654602,0.68512,
-0.648499,0.697327,
-0.642395,0.706482,
-0.634766,0.718689,
-0.631714,0.701904,
-0.628662,0.692749,
-0.627136,0.694275,
-0.62561,0.700378,
-0.627136,0.700378,
-0.628662,0.691223,
-0.630188,0.683594,
-0.628662,0.697327,
-0.63324,0.70343,
-0.645447,0.701904,
-0.648499,0.692749,
-0.657654,0.686646,
-0.665283,0.695801,
-0.67749,0.698853,
-0.689697,0.698853,
-0.700378,0.682068,
-0.715637,0.689697,
-0.723267,0.691223,
-0.737,0.70343,
-0.750732,0.701904,
-0.765991,0.695801,
-0.778198,0.689697,
-0.790405,0.692749,
-0.801086,0.700378,
-0.811768,0.70343,
-0.822449,0.689697,
-0.837708,0.688171,
-0.840759,0.697327,
-0.85144,0.701904,
-0.856018,0.700378,
-0.863647,0.694275,
-0.869751,0.68512,
-0.872803,0.698853,
-0.875854,0.70343,
-0.875854,0.700378,
-0.874329,0.697327,
-0.874329,0.689697,
-0.866699,0.697327,
-0.866699,0.701904,
-0.860596,0.697327,
-0.85907,0.692749,
-0.852966,0.68512,
-0.852966,0.691223,
-0.839233,0.700378,
-0.837708,0.694275,
-0.830078,0.692749,
-0.8255,0.688171,
-0.817871,0.695801,
-0.811768,0.70343,
-0.80719,0.700378,
-0.802612,0.694275,
-0.798035,0.694275,
-0.794983,0.691223,
-0.790405,0.70343,
-0.782776,0.700378,
-0.78125,0.691223,
-0.778198,0.692749,
-0.772095,0.691223,
-0.772095,0.700378,
-0.769043,0.695801,
-0.767517,0.688171,
-0.764465,0.688171,
-0.765991,0.697327,
-0.765991,0.695801,
-0.770569,0.700378,
-0.775146,0.694275,
-0.782776,0.689697,
-0.788879,0.694275,
-0.796509,0.700378,
-0.805664,0.701904,
-0.816345,0.694275,
-0.823975,0.686646,
-0.839233,0.692749,
-0.845337,0.697327,
-0.857544,0.697327,
-0.868225,0.692749,
-0.883484,0.68512,
-0.891113,0.68512,
-0.904846,0.698853,
-0.914001,0.701904,
-0.926208,0.691223,
-0.938416,0.691223,
-0.950623,0.695801,
-0.965881,0.692749,
-0.975037,0.701904,
-0.993347,0.680542,
-1.00098,0.691223,
-1.01776,0.694275,
-1.03455,0.697327,
-1.04828,0.698853,
-1.06201,0.691223,
-1.07727,0.688171,
-1.0849,0.691223,
-1.09863,0.701904,
-1.11389,0.698853,
-1.13068,0.692749,
-1.14136,0.694275,
-1.15051,0.691223,
-1.16882,0.700378,
-1.18256,0.714111,
-1.18866,0.691223,
-1.19629,0.689697,
-1.2085,0.689697,
-1.21613,0.698853,
-1.22986,0.700378,
-1.23901,0.689697,
-1.24817,0.689697,
-1.25885,0.695801,
-1.26495,0.697327,
-1.27411,0.698853,
-1.28632,0.689697,
-1.297,0.688171,
-1.30615,0.694275,
-1.31836,0.701904,
-1.33209,0.698853,
-1.3382,0.695801,
-1.3443,0.689697,
-1.35345,0.691223,
-1.35956,0.698853,
-1.36414,0.698853,
-1.37634,0.694275,
-1.37939,0.688171,
-1.38702,0.68512,
-1.39618,0.701904,
-1.40381,0.694275,
-1.41144,0.691223,
-1.42059,0.694275,
-1.4267,0.689697,
-1.43433,0.706482,
-1.43738,0.700378,
-1.44043,0.692749,
-1.44348,0.692749,
-1.44958,0.689697,
-1.45721,0.698853,
-1.46484,0.695801,
-1.47705,0.691223,
-1.4801,0.695801,
-1.49231,0.686646,
-1.49994,0.698853,
-1.50909,0.698853,
-1.51672,0.691223,
-1.5274,0.694275,
-1.53503,0.691223,
-1.54266,0.701904,
-1.54877,0.698853,
-1.55487,0.694275,
-1.56097,0.689697,
-1.57166,0.691223,
-1.57776,0.701904,
-1.58844,0.698853,
-1.60217,0.691223,
-1.61438,0.689697,
-1.61743,0.689697,
-1.63116,0.695801,
-1.63269,0.697327,
-1.64185,0.689697,
-1.6449,0.688171,
-1.65863,0.692749,
-1.66779,0.708008,
-1.67542,0.697327,
-1.67694,0.694275,
-1.67847,0.688171,
-1.68762,0.692749,
-1.6922,0.701904,
-1.69983,0.697327,
-1.70746,0.691223,
-1.71814,0.682068,
-1.72424,0.691223,
-1.73798,0.698853,
-1.74713,0.692749,
-1.75476,0.692749,
-1.76392,0.689697,
-1.76849,0.700378,
-1.78375,0.708008,
-1.79138,0.700378,
-1.79749,0.694275,
-1.80817,0.691223,
-1.8158,0.689697,
-1.82343,0.698853,
-1.83563,0.691223,
-1.84326,0.688171,
-1.85394,0.689697,
-1.8631,0.686646,
-1.87073,0.697327,
-1.87683,0.697327,
-1.88141,0.691223,
-1.89514,0.688171,
-1.9043,0.691223,
-1.90887,0.697327,
-1.92108,0.698853,
-1.92566,0.691223,
-1.93481,0.689697,
-1.94397,0.692749,
-1.95465,0.698853,
-1.96686,0.700378,
-1.97601,0.689697,
-1.98822,0.688171,
-1.99738,0.692749,
-2.00195,0.695801,
-2.01874,0.695801,
-2.02637,0.691223,
-2.03705,0.686646,
-2.04315,0.692749,
-2.05231,0.701904,
-2.06909,0.695801,
-2.08282,0.689697,
-2.09351,0.688171,
-2.10419,0.691223,
-2.11639,0.700378,
-2.13165,0.697327,
-2.14081,0.689697,
-2.15912,0.688171,
-2.17133,0.689697,
-2.18353,0.700378,
-2.19574,0.695801,
-2.20337,0.686646,
-2.21405,0.688171,
-2.2171,0.688171,
-2.22473,0.700378,
-2.22473,0.700378,
-2.22473,0.688171,
-2.22626,0.692749,
-2.22321,0.689697,
-2.21405,0.695801,
-2.20184,0.698853,
-2.18811,0.688171,
-2.17133,0.689697,
-2.15302,0.691223,
-2.12708,0.698853,
-2.09656,0.697327,
-2.05841,0.679016,
-2.01721,0.686646,
-1.97601,0.689697,
-1.92871,0.695801,
-1.87836,0.695801,
-1.82495,0.694275,
-1.76544,0.68512,
-1.70593,0.689697,
-1.64337,0.708008,
-1.58539,0.695801,
-1.52283,0.689697,
-1.46027,0.688171,
-1.39771,0.692749,
-1.33972,0.697327,
-1.27411,0.698853,
-1.21918,0.680542,
-1.15814,0.688171,
-1.10626,0.689697,
-1.05286,0.700378,
-1.00555,0.686646,
-0.959778,0.689697,
-0.917053,0.688171,
-0.875854,0.688171,
-0.843811,0.701904,
-0.805664,0.694275,
-0.775146,0.689697,
-0.746155,0.689697,
-0.723267,0.701904,
-0.700378,0.692749,
-0.67749,0.695801,
-0.665283,0.688171,
-0.653076,0.688171,
-0.643921,0.683594,
-0.63324,0.700378,
-0.624084,0.697327,
-0.619507,0.688171,
-0.613403,0.688171,
-0.611877,0.689697,
-0.614929,0.695801,
-0.608826,0.700378,
-0.611877,0.691223,
-0.611877,0.674438,
-0.613403,0.691223,
-0.608826,0.698853,
-0.613403,0.697327,
-0.614929,0.692749,
-0.622559,0.688171,
-0.627136,0.689697,
-0.630188,0.694275,
-0.642395,0.694275,
-0.648499,0.701904,
-0.657654,0.683594,
-0.666809,0.689697,
-0.682068,0.697327,
-0.698853,0.692749,
-0.712585,0.692749,
-0.718689,0.689697,
-0.732422,0.686646,
-0.743103,0.697327,
-0.749207,0.698853,
-0.762939,0.688171,
-0.775146,0.683594,
-0.785828,0.691223,
-0.798035,0.697327,
-0.80719,0.692749,
-0.817871,0.691223,
-0.827026,0.686646,
-0.834656,0.680542,
-0.840759,0.698853,
-0.848389,0.698853,
-0.846863,0.68512,
-0.846863,0.683594,
-0.848389,0.686646,
-0.845337,0.695801,
-0.843811,0.695801,
-0.836182,0.686646,
-0.836182,0.686646,
-0.836182,0.691223,
-0.83313,0.709534,
-0.828552,0.683594,
-0.8255,0.683594,
-0.816345,0.68512,
-0.80719,0.686646,
-0.808716,0.694275,
-0.798035,0.698853,
-0.793457,0.680542,
-0.782776,0.683594,
-0.779724,0.691223,
-0.773621,0.700378,
-0.772095,0.694275,
-0.769043,0.691223,
-0.764465,0.686646,
-0.758362,0.692749,
-0.756836,0.692749,
-0.753784,0.692749,
-0.753784,0.691223,
-0.753784,0.682068,
-0.752258,0.686646,
-0.758362,0.697327,
-0.762939,0.694275,
-0.767517,0.688171,
-0.772095,0.686646,
-0.775146,0.68512,
-0.78125,0.697327,
-0.791931,0.700378,
-0.801086,0.691223,
-0.805664,0.689697,
-0.814819,0.692749,
-0.8255,0.698853,
-0.834656,0.695801,
-0.843811,0.691223,
-0.852966,0.686646,
-0.862122,0.679016,
-0.869751,0.694275,
-0.880432,0.694275,
-0.892639,0.686646,
-0.904846,0.68512,
-0.918579,0.689697,
-0.927734,0.694275,
-0.942993,0.695801,
-0.956726,0.689697,
-0.970459,0.686646,
-0.984192,0.692749,
-0.999451,0.694275,
-1.01471,0.695801,
-1.02539,0.688171,
-1.04218,0.686646,
-1.05743,0.688171,
-1.07117,0.694275,
-1.08643,0.694275,
-1.09406,0.689697,
-1.11237,0.683594,
-1.1261,0.686646,
-1.14288,0.697327,
-1.15356,0.692749,
-1.16882,0.689697,
-1.17798,0.689697,
-1.19934,0.691223,
-1.21307,0.695801,
-1.22528,0.695801,
-1.23596,0.688171,
-1.25275,0.68512,
-1.2619,0.688171,
-1.27258,0.694275,
-1.28479,0.694275,
-1.29852,0.686646,
-1.3092,0.686646,
-1.32141,0.689697,
-1.32751,0.697327,
-1.33514,0.698853,
-1.3443,0.686646,
-1.35498,0.686646,
-1.36261,0.689697,
-1.37329,0.697327,
-1.38092,0.695801,
-1.38702,0.694275,
-1.39618,0.686646,
-1.40228,0.686646,
-1.40991,0.695801,
-1.41754,0.697327,
-1.42517,0.688171,
-1.43433,0.68512,
-1.44196,0.686646,
-1.44958,0.691223,
-1.45569,0.698853,
-1.46332,0.689697,
-1.47095,0.683594,
-1.47552,0.688171,
-1.48468,0.695801,
-1.49384,0.692749,
-1.50146,0.688171,
-1.50909,0.682068,
-1.51825,0.689697,
-1.52893,0.694275,
-1.53656,0.695801,
-1.54266,0.686646,
-1.55334,0.683594,
-1.5625,0.686646,
-1.57471,0.697327,
-1.57928,0.692749,
-1.58386,0.686646,
-1.58844,0.686646,
-1.59607,0.688171,
-1.60828,0.682068,
-1.61285,0.697327,
-1.62354,0.689697,
-1.62964,0.691223,
-1.63727,0.688171,
-1.6449,0.695801,
-1.65253,0.689697,
-1.6571,0.688171,
-1.66321,0.67749,
-1.67236,0.682068,
-1.67847,0.692749,
-1.6861,0.695801,
-1.69067,0.68512,
-1.69983,0.686646,
-1.71051,0.686646,
-1.71814,0.692749,
-1.72577,0.691223,
-1.73798,0.686646,
-1.74713,0.683594,
-1.75934,0.689697,
-1.76849,0.694275,
-1.78223,0.692749,
-1.79291,0.689697,
-1.80511,0.68512,
-1.8158,0.689697,
-1.828,0.692749,
-1.83716,0.691223,
-1.84326,0.688171,
-1.85242,0.683594,
-1.8631,0.688171,
-1.87378,0.694275,
-1.88446,0.680542,
-1.90125,0.686646,
-1.9104,0.686646,
-1.92108,0.686646,
-1.93176,0.694275,
-1.94397,0.695801,
-1.95465,0.679016,
-1.96228,0.708008,
-1.97296,0.686646,
-1.98669,0.692749,
-1.99585,0.692749,
-2.00806,0.686646,
-2.02484,0.682068,
-2.03094,0.68512,
-2.04163,0.691223,
-2.05383,0.694275,
-2.06451,0.683594,
-2.07367,0.683594,
-2.08435,0.688171,
-2.09656,0.692749,
-2.10571,0.697327,
-2.12097,0.683594,
-2.13318,0.683594,
-2.14386,0.692749,
-2.16064,0.695801,
-2.17285,0.694275,
-2.18353,0.686646,
-2.18964,0.68512,
-2.19727,0.689697,
-2.2049,0.691223,
-2.2171,0.692749,
-2.22626,0.689697,
-2.23083,0.680542,
-2.23694,0.688171,
-2.24609,0.694275,
-2.24762,0.692749,
-2.25372,0.688171,
-2.25677,0.683594,
-2.25983,0.68512,
-2.25677,0.695801,
-2.2522,0.698853,
-2.24457,0.682068,
-2.22931,0.68512,
-2.22015,0.689697,
-2.19879,0.695801,
-2.17133,0.698853,
-2.14539,0.68512,
-2.11639,0.682068,
-2.07825,0.67749,
-2.04315,0.691223,
-2.005,0.694275,
-1.95923,0.68512,
-1.9104,0.682068,
-1.86157,0.688171,
-1.80817,0.692749,
-1.75476,0.695801,
-1.69678,0.688171,
-1.63879,0.683594,
-1.57928,0.692749,
-1.52283,0.695801,
-1.46332,0.694275,
-1.40076,0.682068,
-1.34735,0.672913,
-1.28937,0.689697,
-1.23444,0.689697,
-1.1795,0.691223,
-1.13525,0.688171,
-1.08948,0.669861,
-1.04828,0.706482,
-1.01013,0.694275,
-0.973511,0.689697,
-0.93689,0.688171,
-0.91095,0.680542,
-0.886536,0.689697,
-0.863647,0.697327,
-0.839233,0.691223,
-0.8255,0.68512,
-0.804138,0.683594,
-0.785828,0.686646,
-0.773621,0.692749,
-0.765991,0.692749,
-0.759888,0.682068,
-0.752258,0.682068,
-0.750732,0.68512,
-0.746155,0.679016,
-0.747681,0.694275,
-0.746155,0.686646,
-0.744629,0.683594,
-0.746155,0.689697,
-0.747681,0.692749,
-0.753784,0.697327,
-0.753784,0.68512,
-0.759888,0.680542,
-0.762939,0.689697,
-0.772095,0.692749,
-0.779724,0.695801,
-0.785828,0.686646,
-0.793457,0.669861,
-0.801086,0.688171,
-0.817871,0.689697,
-0.831604,0.697327,
-0.845337,0.686646,
-0.85907,0.674438,
-0.874329,0.692749,
-0.886536,0.692749,
-0.889587,0.692749,
-0.898743,0.686646,
-0.907898,0.682068,
-0.915527,0.682068,
-0.924683,0.691223,
-0.935364,0.692749,
-0.942993,0.682068,
-0.949097,0.67749,
-0.959778,0.68512,
-0.961304,0.692749,
-0.956726,0.688171,
-0.953674,0.683594,
-0.959778,0.683594,
-0.956726,0.680542,
-0.959778,0.692749,
-0.952148,0.692749,
-0.952148,0.68512,
-0.947571,0.686646,
-0.942993,0.691223,
-0.93689,0.694275,
-0.926208,0.688171,
-0.918579,0.68512,
-0.914001,0.679016,
-0.907898,0.689697,
-0.892639,0.688171,
-0.888062,0.689697,
-0.881958,0.68512,
-0.869751,0.680542,
-0.862122,0.689697,
-0.857544,0.686646,
-0.85144,0.691223,
-0.845337,0.686646,
-0.834656,0.67749,
-0.827026,0.686646,
-0.823975,0.694275,
-0.823975,0.689697,
-0.816345,0.688171,
-0.808716,0.679016,
-0.80719,0.68512,
-0.80719,0.694275,
-0.808716,0.691223,
-0.811768,0.686646,
-0.814819,0.67749,
-0.8255,0.688171,
-0.827026,0.691223,
-0.83313,0.688171,
-0.843811,0.682068,
-0.846863,0.682068,
-0.852966,0.688171,
-0.860596,0.695801,
-0.865173,0.691223,
-0.872803,0.686646,
-0.88501,0.680542,
-0.891113,0.689697,
-0.906372,0.691223,
-0.914001,0.692749,
-0.923157,0.68512,
-0.935364,0.682068,
-0.946045,0.686646,
-0.959778,0.689697,
-0.973511,0.694275,
-0.984192,0.682068,
-0.996399,0.680542,
-1.01013,0.688171,
-1.02386,0.691223,
-1.03455,0.694275,
-1.0498,0.688171,
-1.06049,0.682068,
-1.07269,0.688171,
-1.08795,0.692749,
-1.09863,0.697327,
-1.11237,0.683594,
-1.12,0.679016,
-1.13678,0.688171,
-1.14441,0.688171,
-1.15509,0.695801,
-1.16882,0.686646,
-1.17645,0.680542,
-1.18408,0.688171,
-1.19324,0.694275,
-1.20392,0.691223,
-1.21155,0.689697,
-1.22681,0.680542,
-1.23596,0.683594,
-1.24512,0.692749,
-1.2558,0.691223,
-1.26495,0.686646,
-1.27563,0.680542,
-1.28479,0.683594,
-1.29089,0.688171,
-1.30005,0.688171,
-1.3092,0.683594,
-1.32294,0.680542,
-1.33209,0.683594,
-1.3443,0.692749,
-1.34735,0.691223,
-1.35803,0.68512,
-1.36261,0.68512,
-1.37939,0.688171,
-1.3855,0.689697,
-1.39771,0.692749,
-1.40839,0.686646,
-1.41602,0.680542,
-1.42822,0.686646,
-1.43738,0.686646,
-1.44348,0.695801,
-1.46027,0.68512,
-1.46637,0.67749,
-1.47247,0.686646,
-1.48315,0.689697,
-1.49078,0.691223,
-1.50452,0.689697,
-1.51367,0.682068,
-1.52283,0.688171,
-1.53198,0.694275,
-1.54419,0.691223,
-1.54724,0.686646,
-1.55487,0.669861,
-1.56555,0.68512,
-1.57471,0.689697,
-1.58386,0.689697,
-1.60217,0.688171,
-1.60522,0.674438,
-1.61896,0.68512,
-1.62506,0.691223,
-1.63269,0.691223,
-1.6449,0.689697,
-1.64795,0.68512,
-1.65863,0.683594,
-1.66473,0.692749,
-1.67389,0.695801,
-1.67999,0.679016,
-1.68762,0.68512,
-1.69678,0.683594,
-1.70288,0.692749,
-1.71509,0.689697,
-1.72272,0.680542,
-1.72729,0.683594,
-1.73645,0.680542,
-1.75018,0.691223,
-1.75629,0.689697,
-1.76849,0.688171,
-1.77917,0.68512,
-1.78833,0.686646,
-1.79443,0.689697,
-1.80511,0.692749,
-1.81274,0.686646,
-1.82037,0.67749,
-1.83258,0.682068,
-1.83868,0.689697,
-1.84784,0.691223,
-1.86462,0.680542,
-1.86768,0.683594,
-1.87836,0.683594,
-1.88599,0.689697,
-1.90125,0.695801,
-1.9043,0.686646,
-1.91498,0.683594,
-1.93024,0.683594,
-1.93634,0.689697,
-1.9516,0.689697,
-1.96381,0.682068,
-1.97754,0.679016,
-1.98669,0.682068,
-1.9989,0.688171,
-2.01263,0.688171,
-2.02026,0.686646,
-2.034,0.679016,
-2.04315,0.68512,
-2.05383,0.694275,
-2.06909,0.688171,
-2.07672,0.691223,
-2.08893,0.682068,
-2.09808,0.680542,
-2.10571,0.691223,
-2.12097,0.689697,
-2.13013,0.686646,
-2.14081,0.683594,
-2.15454,0.680542,
-2.16217,0.688171,
-2.17438,0.686646,
-2.18353,0.682068,
-2.19116,0.683594,
-2.20032,0.672913,
-2.21405,0.692749,
-2.22321,0.691223,
-2.23389,0.683594,
-2.24152,0.683594,
-2.25067,0.682068,
-2.2583,0.689697,
-2.27051,0.691223,
-2.27966,0.683594,
-2.29034,0.686646,
-2.30103,0.68512,
-2.31323,0.689697,
-2.32544,0.691223,
-2.33307,0.680542,
-2.33917,0.683594,
-2.34528,0.679016,
-2.35596,0.686646,
-2.36816,0.697327,
-2.37579,0.68512,
-2.38037,0.683594,
-2.38647,0.68512,
-2.39258,0.689697,
-2.3941,0.691223,
-2.38953,0.683594,
-2.38647,0.682068,
-2.37732,0.680542,
-2.36664,0.691223,
-2.35443,0.691223,
-2.33307,0.686646,
-2.31018,0.682068,
-2.27814,0.679016,
-2.24457,0.691223,
-2.211,0.689697,
-2.1698,0.686646,
-2.13013,0.683594,
-2.07825,0.682068,
-2.02789,0.694275,
-1.97144,0.691223,
-1.91956,0.688171,
-1.8631,0.686646,
-1.80664,0.679016,
-1.74866,0.689697,
-1.6922,0.686646,
-1.63269,0.68512,
-1.57623,0.679016,
-1.5213,0.67749,
-1.4679,0.689697,
-1.41754,0.688171,
-1.37177,0.682068,
-1.32599,0.68512,
-1.28326,0.688171,
-1.23901,0.688171,
-1.19781,0.689697,
-1.15814,0.683594,
-1.12152,0.683594,
-1.09406,0.70343,
-1.06659,0.689697,
-1.04675,0.689697,
-1.02234,0.682068,
-1.00403,0.682068,
-0.982666,0.680542,
-0.967407,0.68512,
-0.959778,0.688171,
-0.944519,0.686646,
-0.935364,0.682068,
-0.923157,0.683594,
-0.918579,0.692749,
-0.914001,0.688171,
-0.907898,0.688171,
-0.906372,0.683594,
-0.901794,0.68512,
-0.898743,0.688171,
-0.901794,0.688171,
-0.895691,0.68512,
-0.901794,0.67749,
-0.907898,0.679016,
-0.91095,0.692749,
-0.917053,0.686646,
-0.923157,0.686646,
-0.932312,0.682068,
-0.932312,0.679016,
-0.944519,0.692749,
-0.953674,0.691223,
-0.965881,0.68512,
-0.978088,0.680542,
-0.98114,0.680542,
-0.993347,0.689697,
-1.00861,0.691223,
-1.02081,0.680542,
-1.03455,0.679016,
-1.0498,0.679016,
-1.05896,0.689697,
-1.06812,0.692749,
-1.08337,0.683594,
-1.09558,0.683594,
-1.10474,0.682068,
-1.11542,0.688171,
-1.12305,0.691223,
-1.13068,0.683594,
-1.13831,0.67749,
-1.14594,0.683594,
-1.14899,0.689697,
-1.15662,0.688171,
-1.15356,0.68512,
-1.15662,0.679016,
-1.15662,0.682068,
-1.15662,0.68512,
-1.15662,0.679016,
-1.15814,0.686646,
-1.15814,0.67749,
-1.15356,0.682068,
-1.15051,0.691223,
-1.14899,0.68512,
-1.14594,0.689697,
-1.14441,0.674438,
-1.14136,0.682068,
-1.13831,0.691223,
-1.13983,0.686646,
-1.13525,0.686646,
-1.13068,0.680542,
-1.12915,0.680542,
-1.12762,0.691223,
-1.12305,0.682068,
-1.12457,0.683594,
-1.12305,0.680542,
-1.12457,0.674438,
-1.12915,0.689697,
-1.12915,0.689697,
-1.13525,0.679016,
-1.14288,0.680542,
-1.14899,0.679016,
-1.15509,0.691223,
-1.15814,0.695801,
-1.1673,0.68512,
-1.17035,0.68512,
-1.17493,0.680542,
-1.18103,0.689697,
-1.19324,0.694275,
-1.20087,0.683594,
-1.21002,0.674438,
-1.21765,0.682068,
-1.22986,0.689697,
-1.24054,0.691223,
-1.25427,0.700378,
-1.26038,0.674438,
-1.27411,0.682068,
-1.28632,0.692749,
-1.29547,0.689697,
-1.3092,0.688171,
-1.31989,0.679016,
-1.32446,0.680542,
-1.34125,0.689697,
-1.35345,0.68512,
-1.36414,0.683594,
-1.37634,0.672913,
-1.38702,0.679016,
-1.40228,0.691223,
-1.41602,0.688171,
-1.42822,0.688171,
-1.44196,0.682068,
-1.45874,0.679016,
-1.46942,0.692749,
-1.48315,0.689697,
-1.49078,0.686646,
-1.50757,0.682068,
-1.51825,0.680542,
-1.53198,0.692749,
-1.54877,0.692749,
-1.55792,0.682068,
-1.57318,0.680542,
-1.58234,0.67749,
-1.59302,0.691223,
-1.60828,0.691223,
-1.61896,0.680542,
-1.63269,0.683594,
-1.64185,0.692749,
-1.66016,0.688171,
-1.66931,0.692749,
-1.67542,0.683594,
-1.68304,0.67749,
-1.69678,0.68512,
-1.70746,0.689697,
-1.71509,0.691223,
-1.72577,0.686646,
-1.7334,0.67749,
-1.74408,0.683594,
-1.75323,0.686646,
-1.76086,0.688171,
-1.77002,0.686646,
-1.78375,0.67749,
-1.79291,0.683594,
-1.80359,0.692749,
-1.81122,0.689697,
-1.81732,0.689697,
-1.83105,0.680542,
-1.83563,0.682068,
-1.84479,0.689697,
-1.85699,0.692749,
-1.86157,0.68512,
-1.87378,0.680542,
-1.87836,0.680542,
-1.88141,0.688171,
-1.89209,0.692749,
-1.89819,0.682068,
-1.90735,0.680542,
-1.91345,0.67749,
-1.92108,0.688171,
-1.92413,0.691223,
-1.93024,0.682068,
-1.93481,0.679016,
-1.94397,0.683594,
-1.94855,0.689697,
-1.95465,0.695801,
-1.96075,0.683594,
-1.96991,0.67749,
-1.97754,0.68512,
-1.98212,0.686646,
-1.98822,0.689697,
-1.9928,0.683594,
-2.00195,0.672913,
-2.00958,0.682068,
-2.02179,0.683594,
-2.02637,0.691223,
-2.03552,0.686646,
-2.04315,0.674438,
-2.04773,0.680542,
-2.05536,0.686646,
-2.05994,0.689697,
-2.06757,0.689697,
-2.0752,0.680542,
-2.08435,0.672913,
-2.08893,0.688171,
-2.10266,0.686646,
-2.10724,0.686646,
-2.12097,0.682068,
-2.13318,0.680542,
-2.14539,0.688171,
-2.16064,0.686646,
-2.1698,0.682068,
-2.18201,0.67749,
-2.19116,0.672913,
-2.2049,0.68512,
-2.2171,0.694275,
-2.22626,0.682068,
-2.23694,0.680542,
-2.24609,0.67749,
-2.25372,0.688171,
-2.26135,0.692749,
-2.27203,0.680542,
-2.28424,0.682068,
-2.29187,0.67749,
-2.2995,0.688171,
-2.31323,0.691223,
-2.32544,0.683594,
-2.3407,0.674438,
-2.35138,0.67749,
-2.36206,0.686646,
-2.37122,0.691223,
-2.37885,0.682068,
-2.388,0.672913,
-2.39868,0.680542,
-2.40326,0.691223,
-2.41394,0.689697,
-2.42004,0.686646,
-2.43073,0.682068,
-2.43378,0.68512,
-2.44141,0.692749,
-2.45056,0.686646,
-2.45361,0.674438,
-2.45819,0.679016,
-2.46582,0.680542,
-2.47345,0.691223,
-2.48566,0.686646,
-2.49176,0.680542,
-2.50702,0.683594,
-2.51465,0.67749,
-2.52228,0.686646,
-2.53296,0.692749,
-2.54211,0.686646,
-2.54974,0.683594,
-2.56042,0.679016,
-2.57263,0.688171,
-2.58026,0.692749,
-2.59399,0.682068,
-2.60315,0.683594,
-2.61078,0.67749,
-2.62299,0.686646,
-2.62756,0.689697,
-2.63672,0.683594,
-2.64587,0.679016,
-2.65503,0.682068,
-2.66876,0.683594,
-2.67944,0.692749,
-2.6886,0.682068,
-2.69318,0.680542,
-2.70538,0.683594,
-2.71301,0.68512,
-2.72217,0.692749,
-2.73285,0.683594,
-2.73895,0.67749,
-2.75116,0.680542,
-2.76031,0.688171,
-2.771,0.691223,
-2.77863,0.682068,
-2.78473,0.674438,
-2.79236,0.682068,
-2.79694,0.686646,
-2.79541,0.688171,
-2.79541,0.682068,
-2.79999,0.679016,
-2.80304,0.67749,
-2.79541,0.689697,
-2.79083,0.694275,
-2.7771,0.680542,
-2.76642,0.682068,
-2.742,0.682068,
-2.71912,0.688171,
-2.69318,0.692749,
-2.66571,0.682068,
-2.63062,0.67749,
-2.59247,0.674438,
-2.55127,0.674438,
-2.50702,0.689697,
-2.45819,0.680542,
-2.41241,0.679016,
-2.36053,0.67749,
-2.3056,0.683594,
-2.25067,0.697327,
-2.19269,0.68512,
-2.1347,0.67749,
-2.07977,0.68512,
-2.02179,0.686646,
-1.96075,0.691223,
-1.9043,0.686646,
-1.84631,0.674438,
-1.78986,0.68512,
-1.73798,0.682068,
-1.68762,0.691223,
-1.64185,0.680542,
-1.58997,0.672913,
-1.54266,0.680542,
-1.50146,0.67749,
-1.45874,0.688171,
-1.41754,0.686646,
-1.38397,0.679016,
-1.34888,0.680542,
-1.31989,0.688171,
-1.29242,0.692749,
-1.26648,0.68512,
-1.24207,0.680542,
-1.22528,0.679016,
-1.21155,0.686646,
-1.19629,0.686646,
-1.18103,0.679016,
-1.1734,0.679016,
-1.15814,0.674438,
-1.15051,0.689697,
-1.14441,0.691223,
-1.13983,0.679016,
-1.13678,0.67749,
-1.13068,0.679016,
-1.13068,0.68512,
-1.12457,0.691223,
-1.12152,0.68512,
-1.11694,0.67749,
-1.11542,0.682068,
-1.11389,0.68512,
-1.11847,0.691223,
-1.12152,0.682068,
-1.1261,0.67749,
-1.12762,0.679016,
-1.13831,0.68512,
-1.14594,0.688171,
-1.15814,0.68512,
-1.1673,0.674438,
-1.18103,0.680542,
-1.18561,0.686646,
-1.20087,0.688171,
-1.21307,0.683594,
-1.22223,0.680542,
-1.23138,0.674438,
-1.23749,0.686646,
-1.24359,0.691223,
-1.25122,0.682068,
-1.25732,0.680542,
-1.25885,0.679016,
-1.26343,0.68512,
-1.26343,0.692749,
-1.26495,0.682068,
-1.26801,0.674438,
-1.27258,0.672913,
-1.27258,0.686646,
-1.27716,0.692749,
-1.27411,0.679016,
-1.27106,0.669861,
-1.26648,0.682068,
-1.26495,0.679016,
-1.26038,0.694275,
-1.2558,0.683594,
-1.2558,0.674438,
-1.24512,0.686646,
-1.24359,0.682068,
-1.23444,0.692749,
-1.22833,0.682068,
-1.2146,0.674438,
-1.21002,0.679016,
-1.20239,0.683594,
-1.19781,0.692749,
-1.19019,0.680542,
-1.18713,0.671387,
-1.18103,0.679016,
-1.17798,0.683594,
-1.1734,0.689697,
-1.17493,0.67749,
-1.1734,0.674438,
-1.17035,0.679016,
-1.1734,0.68512,
-1.17798,0.691223,
-1.17493,0.68512,
-1.18103,0.67749,
-1.18408,0.680542,
-1.18866,0.682068,
-1.19934,0.680542,
-1.21002,0.689697,
-1.21613,0.674438,
-1.23138,0.671387,
-1.23596,0.68512,
-1.24359,0.691223,
-1.25427,0.682068,
-1.26648,0.67749,
-1.28021,0.674438,
-1.29089,0.683594,
-1.30157,0.691223,
-1.3092,0.680542,
-1.32294,0.672913,
-1.33514,0.680542,
-1.35345,0.683594,
-1.37177,0.688171,
-1.38702,0.679016,
-1.40228,0.679016,
-1.41907,0.67749,
-1.43585,0.680542,
-1.45111,0.688171,
-1.46942,0.683594,
-1.48621,0.666809,
-1.49841,0.682068,
-1.51215,0.682068,
-1.5274,0.688171,
-1.54266,0.683594,
-1.55182,0.674438,
-1.56708,0.674438,
-1.58691,0.688171,
-1.59912,0.691223,
-1.61438,0.680542,
-1.63116,0.686646,
-1.6449,0.674438,
-1.66168,0.682068,
-1.67389,0.689697,
-1.6861,0.680542,
-1.69525,0.67749,
-1.70593,0.679016,
-1.72119,0.68512,
-1.72882,0.688171,
-1.74713,0.680542,
-1.75323,0.679016,
-1.76544,0.680542,
-1.77765,0.683594,
-1.7868,0.689697,
-1.79443,0.68512,
-1.80511,0.67749,
-1.81274,0.671387,
-1.82343,0.682068,
-1.83258,0.688171,
-1.84326,0.679016,
-1.85547,0.674438,
-1.8631,0.67749,
-1.87378,0.682068,
-1.87683,0.689697,
-1.88293,0.682068,
-1.89667,0.672913,
-1.9043,0.680542,
-1.9104,0.68512,
-1.91956,0.688171,
-1.92413,0.686646,
-1.93481,0.679016,
-1.94244,0.680542,
-1.95313,0.683594,
-1.9577,0.688171,
-1.96381,0.682068,
-1.96686,0.674438,
-1.97601,0.674438,
-1.98059,0.683594,
-1.98517,0.68512,
-1.99127,0.679016,
-2.00043,0.679016,
-2.00806,0.674438,
-2.01569,0.683594,
-2.02332,0.691223,
-2.03094,0.683594,
-2.03857,0.680542,
-2.04926,0.67749,
-2.06451,0.683594,
-2.07214,0.692749,
-2.08282,0.680542,
-2.09198,0.674438,
-2.09351,0.669861,
-2.10266,0.680542,
-2.11029,0.688171,
-2.1225,0.67749,
-2.13165,0.67749,
-2.14081,0.680542,
-2.14996,0.679016,
-2.16064,0.691223,
-2.16827,0.679016,
-2.17285,0.672913,
-2.18811,0.680542,
-2.19727,0.682068,
-2.20184,0.686646,
-2.21405,0.682068,
-2.2171,0.674438,
-2.22473,0.679016,
-2.23694,0.683594,
-2.24609,0.686646,
-2.25372,0.682068,
-2.26288,0.669861,
-2.26898,0.674438,
-2.27814,0.679016,
-2.28577,0.688171,
-2.2995,0.682068,
-2.30713,0.680542,
-2.31781,0.674438,
-2.32544,0.686646,
-2.33459,0.689697,
-2.34375,0.680542,
-2.35596,0.674438,
-2.36359,0.67749,
-2.37122,0.680542,
-2.37579,0.68512,
-2.38495,0.680542,
-2.39105,0.67749,
-2.39868,0.672913,
-2.40784,0.67749,
-2.41852,0.686646,
-2.42767,0.674438,
-2.4353,0.674438,
-2.45056,0.67749,
-2.45972,0.679016,
-2.47345,0.688171,
-2.48108,0.682068,
-2.49329,0.671387,
-2.50244,0.67749,
-2.51312,0.683594,
-2.52228,0.688171,
-2.53601,0.682068,
-2.54822,0.68512,
-2.55432,0.67749,
-2.56195,0.680542,
-2.57416,0.68512,
-2.58331,0.682068,
-2.59552,0.671387,
-2.60162,0.672913,
-2.61536,0.680542,
-2.62756,0.680542,
-2.63824,0.683594,
-2.65198,0.669861,
-2.66113,0.67749,
-2.67334,0.683594,
-2.68555,0.68512,
-2.69012,0.680542,
-2.70386,0.668335,
-2.70996,0.67749,
-2.71454,0.671387,
-2.72369,0.679016,
-2.73132,0.680542,
-2.74048,0.671387,
-2.75269,0.67749,
-2.75726,0.67749,
-2.76794,0.686646,
-2.77863,0.67749,
-2.78931,0.668335,
-2.79236,0.674438,
-2.80304,0.679016,
-2.81219,0.686646,
-2.82135,0.683594,
-2.83356,0.671387,
-2.84119,0.67749,
-2.85339,0.683594,
-2.86255,0.680542,
-2.87323,0.679016,
-2.88086,0.672913,
-2.88391,0.674438,
-2.88849,0.683594,
-2.89612,0.67749,
-2.90222,0.682068,
-2.90985,0.671387,
-2.9129,0.663757,
-2.91595,0.680542,
-2.91443,0.682068,
-2.9129,0.680542,
-2.9068,0.67749,
-2.89917,0.672913,
-2.88849,0.679016,
-2.87323,0.683594,
-2.85645,0.683594,
-2.83508,0.672913,
-2.81067,0.67749,
-2.7832,0.680542,
-2.75116,0.682068,
-2.71606,0.680542,
-2.67792,0.674438,
-2.63214,0.668335,
-2.58789,0.680542,
-2.54059,0.683594,
-2.48871,0.679016,
-2.4353,0.672913,
-2.38953,0.674438,
-2.32849,0.679016,
-2.27203,0.686646,
-2.21405,0.680542,
-2.15607,0.674438,
-2.09503,0.67749,
-2.03705,0.680542,
-1.97754,0.683594,
-1.92108,0.682068,
-1.8692,0.669861,
-1.81274,0.680542,
-1.76239,0.679016,
-1.71051,0.680542,
-1.66779,0.682068,
-1.62048,0.671387,
-1.57776,0.674438,
-1.54114,0.683594,
-1.49994,0.683594,
-1.46637,0.682068,
-1.4328,0.674438,
-1.40533,0.67749,
-1.37939,0.682068,
-1.35345,0.686646,
-1.33057,0.682068,
-1.31531,0.671387,
-1.29395,0.674438,
-1.28021,0.682068,
-1.26953,0.680542,
-1.25732,0.682068,
-1.24817,0.674438,
-1.23901,0.672913,
-1.22986,0.683594,
-1.22528,0.683594,
-1.21918,0.680542,
-1.2085,0.671387,
-1.21002,0.671387,
-1.2085,0.682068,
-1.21002,0.680542,
-1.2146,0.680542,
-1.21613,0.671387,
-1.22223,0.679016,
-1.22681,0.682068,
-1.23596,0.679016,
-1.24207,0.680542,
-1.24512,0.669861,
-1.25885,0.67749,
-1.26343,0.679016,
-1.27106,0.683594,
-1.27716,0.682068,
-1.28479,0.666809,
-1.29852,0.67749,
-1.3092,0.683594,
-1.31836,0.683594,
-1.32751,0.682068,
-1.33972,0.674438,
-1.34735,0.671387,
-1.36108,0.68512,
-1.37177,0.683594,
-1.39008,0.680542,
-1.39771,0.669861,
-1.40533,0.672913,
-1.41449,0.68512,
-1.42517,0.683594,
-1.42822,0.680542,
-1.42975,0.672913,
-1.4328,0.671387,
-1.43127,0.683594,
-1.43433,0.686646,
-1.42975,0.679016,
-1.42975,0.671387,
-1.4267,0.674438,
-1.41754,0.680542,
-1.41296,0.689697,
-1.40533,0.680542,
-1.40228,0.669861,
-1.39923,0.674438,
-1.3855,0.680542,
-1.37634,0.686646,
-1.36414,0.67749,
-1.35803,0.668335,
-1.35193,0.67749,
-1.34735,0.67749,
-1.34277,0.683594,
-1.34125,0.68512,
-1.33972,0.668335,
-1.33209,0.67749,
-1.33362,0.683594,
-1.32751,0.68512,
-1.32904,0.683594,
-1.32751,0.671387,
-1.32446,0.67749,
-1.32751,0.682068,
-1.32904,0.679016,
-1.33209,0.679016,
-1.33514,0.668335,
-1.34735,0.671387,
-1.34888,0.680542,
-1.35651,0.680542,
-1.36261,0.679016,
-1.36871,0.672913,
-1.37634,0.669861,
-1.38245,0.671387,
-1.38855,0.701904,
-1.39618,0.682068,
-1.40533,0.671387,
-1.41144,0.674438,
-1.41907,0.680542,
-1.42975,0.680542,
-1.4389,0.682068,
-1.44958,0.672913,
-1.45874,0.666809,
-1.47095,0.67749,
-1.47858,0.686646,
-1.48773,0.680542,
-1.49536,0.671387,
-1.50604,0.672913,
-1.51672,0.67749,
-1.52588,0.68512,
-1.53809,0.682068,
-1.55487,0.668335,
-1.57013,0.674438,
-1.57776,0.683594,
-1.59454,0.682068,
-1.60675,0.682068,
-1.61896,0.665283,
-1.63879,0.67749,
-1.65253,0.680542,
-1.67236,0.682068,
-1.68762,0.679016,
-1.69983,0.669861,
-1.71204,0.669861,
-1.72272,0.683594,
-1.73492,0.679016,
-1.74408,0.680542,
-1.75476,0.671387,
-1.76239,0.672913,
-1.77612,0.680542,
-1.78528,0.686646,
-1.79596,0.680542,
-1.80664,0.67749,
-1.81427,0.67749,
-1.8158,0.679016,
-1.82495,0.683594,
-1.83411,0.680542,
-1.83868,0.669861,
-1.84784,0.674438,
-1.85547,0.67749,
-1.86615,0.683594,
-1.87378,0.67749,
-1.87836,0.669861,
-1.89362,0.669861,
-1.90125,0.674438,
-1.91193,0.682068,
-1.91803,0.680542,
-1.92566,0.668335,
-1.93024,0.672913,
-1.93634,0.683594,
-1.94244,0.683594,
-1.95007,0.682068,
-1.95923,0.671387,
-1.97296,0.669861,
-1.97754,0.683594,
-1.98364,0.68512,
-1.9928,0.67749,
-1.99585,0.671387,
-2.00195,0.672913,
-2.01111,0.67749,
-2.01721,0.672913,
-2.02637,0.679016,
-2.03094,0.672913,
-2.0401,0.666809,
-2.04773,0.682068,
-2.05841,0.682068,
-2.05994,0.67749,
-2.07214,0.663757,
-2.07672,0.679016,
-2.07825,0.680542,
-2.08588,0.686646,
-2.09351,0.680542,
-2.10114,0.672913,
-2.10724,0.671387,
-2.11639,0.683594,
-2.12708,0.682068,
-2.1347,0.67749,
-2.14233,0.671387,
-2.15302,0.672913,
-2.16217,0.67749,
-2.16827,0.686646,
-2.17285,0.680542,
-2.18048,0.668335,
-2.18964,0.672913,
-2.19727,0.683594,
-2.20947,0.68512,
-2.21405,0.680542,
-2.22778,0.671387,
-2.23236,0.680542,
-2.24304,0.672913,
-2.24915,0.688171,
-2.25525,0.68512,
-2.26135,0.671387,
-2.26746,0.669861,
-2.27356,0.680542,
-2.28119,0.680542,
-2.2934,0.679016,
-2.30103,0.671387,
-2.30713,0.668335,
-2.31628,0.682068,
-2.33002,0.686646,
-2.33917,0.682068,
-2.35138,0.674438,
-2.36206,0.679016,
-2.37427,0.67749,
-2.38037,0.68512,
-2.39105,0.680542,
-2.40479,0.674438,
-2.41699,0.672913,
-2.42615,0.683594,
-2.43835,0.683594,
-2.44904,0.67749,
-2.45972,0.672913,
-2.46582,0.671387,
-2.4765,0.679016,
-2.48566,0.680542,
-2.49176,0.682068,
-2.50702,0.669861,
-2.5177,0.672913,
-2.52533,0.682068,
-2.53448,0.683594,
-2.54211,0.682068,
-2.55127,0.671387,
-2.5589,0.671387,
-2.56805,0.686646,
-2.57263,0.686646,
-2.58179,0.680542,
-2.59247,0.674438,
-2.60468,0.668335,
-2.61688,0.680542,
-2.62604,0.682068,
-2.63977,0.674438,
-2.6535,0.67749,
-2.66266,0.668335,
-2.66876,0.679016,
-2.6825,0.682068,
-2.69165,0.682068,
-2.70386,0.674438,
-2.71149,0.683594,
-2.72522,0.682068,
-2.73743,0.686646,
-2.74658,0.679016,
-2.75269,0.674438,
-2.76794,0.672913,
-2.77557,0.682068,
-2.78168,0.68512,
-2.79388,0.680542,
-2.80609,0.672913,
-2.81372,0.674438,
-2.82898,0.679016,
-2.83203,0.679016,
-2.83661,0.679016,
-2.84271,0.669861,
-2.84119,0.672913,
-2.83813,0.680542,
-2.83356,0.680542,
-2.82745,0.683594,
-2.81525,0.691223,
-2.79999,0.668335,
-2.7832,0.682068,
-2.76184,0.682068,
-2.73895,0.680542,
-2.70996,0.67749,
-2.68097,0.671387,
-2.64435,0.682068,
-2.6001,0.682068,
-2.55432,0.680542,
-2.51312,0.674438,
-2.46582,0.666809,
-2.41699,0.679016,
-2.35901,0.686646,
-2.29797,0.67749,
-2.24152,0.674438,
-2.18048,0.671387,
-2.11639,0.67749,
-2.05688,0.68512,
-1.9989,0.674438,
-1.94244,0.671387,
-1.88446,0.671387,
-1.83258,0.679016,
-1.7746,0.68512,
-1.72272,0.680542,
-1.66931,0.669861,
-1.61896,0.674438,
-1.57471,0.680542,
-1.52588,0.683594,
-1.48315,0.682068,
-1.44196,0.674438,
-1.40686,0.65918,
-1.37177,0.680542,
-1.33972,0.682068,
-1.31378,0.679016,
-1.28174,0.671387,
-1.25732,0.668335,
-1.23444,0.671387,
-1.2146,0.686646,
-1.20087,0.679016,
-1.18256,0.674438,
-1.17035,0.674438,
-1.15967,0.682068,
-1.15356,0.688171,
-1.14288,0.67749,
-1.14136,0.671387,
-1.13525,0.674438,
-1.13068,0.683594,
-1.12915,0.683594,
-1.13068,0.674438,
-1.12915,0.671387,
-1.13068,0.672913,
-1.12762,0.680542,
-1.12915,0.682068,
-1.13525,0.680542,
-1.14288,0.674438,
-1.14746,0.669861,
-1.15356,0.679016,
-1.15967,0.683594,
-1.16882,0.680542,
-1.17493,0.674438,
-1.18408,0.671387,
-1.19019,0.672913,
-1.20239,0.686646,
-1.21155,0.674438,
-1.21765,0.674438,
-1.22375,0.669861,
-1.22681,0.680542,
-1.23596,0.689697,
-1.24359,0.674438,
-1.25122,0.672913,
-1.26038,0.672913,
-1.26648,0.679016,
-1.27106,0.688171,
-1.27563,0.671387,
-1.28326,0.674438,
-1.28326,0.668335,
-1.28479,0.674438,
-1.28937,0.686646,
-1.28937,0.679016,
-1.29089,0.671387,
-1.28479,0.669861,
-1.27411,0.680542,
-1.27411,0.68512,
-1.27258,0.679016,
-1.26801,0.674438,
-1.26648,0.672913,
-1.26038,0.683594,
-1.2558,0.689697,
-1.25275,0.67749,
-1.25122,0.665283,
-1.24817,0.668335,
-1.24359,0.679016,
-1.23444,0.680542,
-1.22986,0.674438,
-1.22986,0.674438,
-1.22223,0.663757,
-1.21613,0.692749,
-1.21155,0.682068,
-1.21307,0.674438,
-1.2085,0.672913,
-1.20392,0.674438,
-1.20239,0.67749,
-1.19781,0.688171,
-1.19934,0.674438,
-1.19629,0.671387,
-1.19476,0.680542,
-1.19629,0.683594,
-1.19629,0.688171,
-1.20087,0.67749,
-1.20087,0.674438,
-1.20392,0.67749,
-1.20239,0.680542,
-1.20544,0.686646,
-1.21155,0.679016,
-1.21155,0.672913,
-1.22223,0.672913,
-1.22528,0.679016,
-1.23138,0.683594,
-1.23596,0.674438,
-1.24207,0.674438,
-1.25275,0.671387,
-1.26038,0.680542,
-1.27258,0.68512,
-1.28479,0.672913,
-1.29242,0.674438,
-1.30463,0.672913,
-1.31226,0.679016,
-1.32599,0.691223,
-1.33972,0.679016,
-1.3504,0.671387,
-1.36108,0.669861,
-1.37329,0.67749,
-1.3916,0.686646,
-1.40381,0.682068,
-1.41754,0.674438,
-1.43127,0.666809,
-1.44348,0.672913,
-1.46027,0.68512,
-1.47858,0.679016,
-1.48773,0.668335,
-1.50452,0.668335,
-1.51978,0.680542,
-1.53351,0.683594,
-1.54724,0.679016,
-1.55792,0.672913,
-1.56403,0.668335,
-1.57471,0.682068,
-1.58844,0.68512,
-1.60522,0.679016,
-1.61591,0.669861,
-1.62354,0.671387,
-1.62811,0.672913,
-1.64032,0.686646,
-1.651,0.672913,
-1.66473,0.663757,
-1.67694,0.68512,
-1.6861,0.682068,
-1.69525,0.691223,
-1.70288,0.67749,
-1.70593,0.674438,
-1.71967,0.674438,
-1.72729,0.67749,
-1.73645,0.686646,
-1.74561,0.679016,
-1.75323,0.665283,
-1.76239,0.67749,
-1.76849,0.67749,
-1.77917,0.683594,
-1.7868,0.68512,
-1.80206,0.671387,
-1.80817,0.674438,
-1.81885,0.680542,
-1.83411,0.67749,
-1.84174,0.679016,
-1.84937,0.668335,
-1.86462,0.668335,
-1.87225,0.679016,
-1.87988,0.683594,
-1.89514,0.674438,
-1.90277,0.672913,
-1.91803,0.669861,
-1.92566,0.67749,
-1.93176,0.680542,
-1.94092,0.679016,
-1.94702,0.67749,
-1.9516,0.672913,
-1.9577,0.679016,
-1.96533,0.686646,
-1.97144,0.682068,
-1.97906,0.671387,
-1.98364,0.674438,
-1.98975,0.679016,
-1.99585,0.683594,
-1.99738,0.680542,
-2.005,0.668335,
-2.00806,0.671387,
-2.01721,0.674438,
-2.02484,0.680542,
-2.02942,0.683594,
-2.0401,0.671387,
-2.04468,0.672913,
-2.04773,0.679016,
-2.05536,0.679016,
-2.06299,0.680542,
-2.06909,0.674438,
-2.0752,0.671387,
-2.0813,0.680542,
-2.08893,0.682068,
-2.09961,0.680542,
-2.10571,0.674438,
-2.11487,0.672913,
-2.12097,0.674438,
-2.13165,0.683594,
-2.13928,0.680542,
-2.15302,0.674438,
-2.16064,0.669861,
-2.16827,0.674438,
-2.18201,0.683594,
-2.19116,0.67749,
-2.19879,0.672913,
-2.20795,0.672913,
-2.21558,0.672913,
-2.22473,0.682068,
-2.22931,0.683594,
-2.23694,0.671387,
-2.25067,0.668335,
-2.25525,0.683594,
-2.2644,0.686646,
-2.27509,0.672913,
-2.28577,0.668335,
-2.30103,0.669861,
-2.31018,0.674438,
-2.31781,0.680542,
-2.32849,0.683594,
-2.33459,0.671387,
-2.3468,0.668335,
-2.35901,0.674438,
-2.36969,0.679016,
-2.37885,0.680542,
-2.38953,0.672913,
-2.40021,0.668335,
-2.40936,0.679016,
-2.4231,0.672913,
-2.43225,0.680542,
-2.43835,0.665283,
-2.45209,0.672913,
-2.45972,0.67749,
-2.47345,0.682068,
-2.48566,0.683594,
-2.49481,0.671387,
-2.50702,0.671387,
-2.51617,0.680542,
-2.52991,0.682068,
-2.53448,0.68512,
-2.54211,0.672913,
-2.5528,0.671387,
-2.56195,0.67749,
-2.57111,0.680542,
-2.58026,0.680542,
-2.59094,0.674438,
-2.60162,0.672913,
-2.60773,0.67749,
-2.61536,0.67749,
-2.62909,0.67749,
-2.63824,0.669861,
-2.64587,0.679016,
-2.65198,0.671387,
-2.66418,0.680542,
-2.66876,0.679016,
-2.67639,0.674438,
-2.67639,0.674438,
-2.68097,0.682068,
-2.68555,0.682068,
-2.6886,0.679016,
-2.69012,0.672913,
-2.6886,0.672913,
-2.68097,0.67749,
-2.67334,0.683594,
-2.66266,0.682068,
-2.6535,0.669861,
-2.63672,0.672913,
-2.62146,0.674438,
-2.6001,0.679016,
-2.57721,0.682068,
-2.54822,0.668335,
-2.5177,0.679016,
-2.48413,0.679016,
-2.44598,0.679016,
-2.40326,0.682068,
-2.35748,0.671387,
-2.3056,0.674438,
-2.2522,0.695801,
-2.20032,0.68512,
-2.14691,0.682068,
-2.09198,0.672913,
-2.03094,0.669861,
-1.97754,0.67749,
-1.91956,0.683594,
-1.8631,0.682068,
-1.80664,0.672913,
-1.74866,0.671387,
-1.69525,0.672913,
-1.63879,0.683594,
-1.58386,0.68512,
-1.53351,0.671387,
-1.48621,0.672913,
-1.43585,0.668335,
-1.39313,0.682068,
-1.35345,0.683594,
-1.31989,0.671387,
-1.28479,0.67749,
-1.25122,0.682068,
-1.22528,0.68512,
-1.19781,0.68512,
-1.17493,0.672913,
-1.15356,0.679016,
-1.14136,0.67749,
-1.1261,0.683594,
-1.11237,0.683594,
-1.10016,0.672913,
-1.091,0.67749,
-1.08948,0.674438,
-1.08032,0.680542,
-1.07574,0.679016,
-1.06964,0.671387,
-1.06812,0.671387,
-1.06201,0.674438,
-1.05438,0.68512,
-1.05743,0.680542,
-1.06049,0.671387,
-1.06354,0.679016,
-1.06506,0.674438,
-1.06964,0.686646,
-1.07727,0.683594,
-1.08337,0.671387,
-1.08948,0.671387,
-1.09558,0.680542,
-1.10168,0.689697,
-1.11237,0.68512,
-1.12152,0.672913,
-1.1322,0.669861,
-1.14136,0.672913,
-1.15204,0.67749,
-1.15814,0.683594,
-1.16882,0.672913,
-1.17798,0.669861,
-1.18713,0.680542,
-1.19476,0.680542,
-1.19934,0.682068,
-1.2085,0.674438,
-1.2146,0.671387,
-1.22528,0.672913,
-1.23444,0.68512,
-1.24054,0.674438,
-1.24359,0.671387,
-1.24359,0.668335,
-1.25427,0.67749,
-1.25732,0.686646,
-1.26038,0.683594,
-1.25885,0.669861,
-1.2619,0.671387,
-1.26038,0.674438,
-1.25732,0.683594,
-1.25275,0.679016,
-1.25732,0.666809,
-1.25122,0.674438,
-1.24817,0.674438,
-1.24359,0.682068,
-1.23444,0.68512,
-1.22681,0.669861,
-1.21613,0.668335,
-1.21155,0.682068,
-1.19629,0.672913,
-1.19324,0.68512,
-1.18561,0.668335,
-1.17798,0.672913,
-1.17035,0.67749,
-1.17035,0.683594,
-1.15967,0.683594,
-1.15662,0.67749,
-1.14899,0.669861,
-1.15204,0.666809,
-1.15051,0.67749,
-1.14594,0.679016,
-1.14899,0.669861,
-1.14594,0.668335,
-1.15051,0.674438,
-1.15204,0.682068,
-1.15662,0.680542,
