-5.8609,0.854492,
-5.86395,0.857544,
-5.87158,0.862122,
-5.87463,0.863647,
-5.88074,0.856018,
-5.88531,0.85144,
-5.89294,0.860596,
-5.896,0.860596,
-5.9021,0.863647,
-5.90515,0.863647,
-5.9082,0.856018,
-5.9082,0.857544,
-5.90973,0.863647,
-5.91125,0.863647,
-5.91583,0.860596,
-5.92041,0.857544,
-5.92499,0.862122,
-5.92957,0.866699,
-5.93109,0.863647,
-5.93262,0.85907,
-5.93567,0.856018,
-5.93719,0.862122,
-5.93872,0.866699,
-5.9433,0.868225,
-5.94635,0.85907,
-5.95093,0.85907,
-5.95703,0.863647,
-5.96008,0.85907,
-5.96619,0.869751,
-5.97534,0.860596,
-5.97839,0.85144,
-5.98297,0.862122,
-5.98297,0.866699,
-5.98297,0.860596,
-5.98602,0.854492,
-5.98907,0.856018,
-5.98907,0.857544,
-5.98602,0.866699,
-5.98602,0.862122,
-5.97687,0.854492,
-5.97382,0.85144,
-5.96619,0.865173,
-5.95703,0.865173,
-5.94635,0.862122,
-5.93567,0.860596,
-5.92194,0.849915,
-5.91278,0.85907,
-5.896,0.865173,
-5.88226,0.865173,
-5.867,0.856018,
-5.84717,0.856018,
-5.83038,0.863647,
-5.80902,0.863647,
-5.79071,0.862122,
-5.77087,0.860596,
-5.75409,0.849915,
-5.7373,0.854492,
-5.72205,0.865173,
-5.70679,0.863647,
-5.68848,0.857544,
-5.67627,0.85907,
-5.65948,0.862122,
-5.64575,0.863647,
-5.63049,0.883484,
-5.62134,0.85907,
-5.61066,0.85144,
-5.6015,0.862122,
-5.59998,0.865173,
-5.59387,0.862122,
-5.59082,0.848389,
-5.58472,0.860596,
-5.58472,0.857544,
-5.58167,0.863647,
-5.57861,0.865173,
-5.56793,0.849915,
-5.56793,0.85144,
-5.56641,0.857544,
-5.56793,0.85907,
-5.56946,0.857544,
-5.56946,0.85907,
-5.56946,0.849915,
-5.57556,0.860596,
-5.58014,0.863647,
-5.57861,0.857544,
-5.58014,0.85907,
-5.57861,0.854492,
-5.58014,0.854492,
-5.58167,0.865173,
-5.58167,0.863647,
-5.58319,0.854492,
-5.58624,0.85144,
-5.58167,0.856018,
-5.58167,0.860596,
-5.57861,0.868225,
-5.57556,0.85907,
-5.57556,0.856018,
-5.57556,0.862122,
-5.57861,0.866699,
-5.58014,0.863647,
-5.58624,0.860596,
-5.58167,0.854492,
-5.58167,0.854492,
-5.58319,0.868225,
-5.58624,0.862122,
-5.58777,0.856018,
-5.58624,0.854492,
-5.58624,0.860596,
-5.59235,0.865173,
-5.59235,0.862122,
-5.5954,0.860596,
-5.5954,0.85144,
-5.59998,0.860596,
-5.60455,0.863647,
-5.60913,0.863647,
-5.60913,0.856018,
-5.61066,0.854492,
-5.61523,0.860596,
-5.61371,0.862122,
-5.61371,0.85907,
-5.61218,0.85907,
-5.61066,0.849915,
-5.61066,0.856018,
-5.60608,0.863647,
-5.60608,0.860596,
-5.59998,0.856018,
-5.6015,0.857544,
-5.6015,0.854492,
-5.59692,0.85907,
-5.59387,0.866699,
-5.59387,0.857544,
-5.58624,0.845337,
-5.58624,0.846863,
-5.58624,0.85907,
-5.58167,0.857544,
-5.58167,0.857544,
-5.58167,0.845337,
-5.57861,0.848389,
-5.58014,0.860596,
-5.57709,0.871277,
-5.57251,0.849915,
-5.56946,0.848389,
-5.57709,0.848389,
-5.57556,0.85907,
-5.58167,0.866699,
-5.57709,0.854492,
-5.57556,0.848389,
-5.57251,0.857544,
-5.57709,0.854492,
-5.57709,0.860596,
-5.57556,0.856018,
-5.57251,0.842285,
-5.57251,0.849915,
-5.57098,0.863647,
-5.57556,0.857544,
-5.57251,0.854492,
-5.57861,0.85144,
-5.57861,0.849915,
-5.57556,0.862122,
-5.57556,0.866699,
-5.57861,0.856018,
-5.57709,0.856018,
-5.57861,0.854492,
-5.57709,0.857544,
-5.57556,0.863647,
-5.57861,0.85907,
-5.58014,0.854492,
-5.58929,0.865173,
-5.5954,0.866699,
-5.59845,0.860596,
-5.60455,0.857544,
-5.60913,0.85144,
-5.61218,0.856018,
-5.61981,0.863647,
-5.62439,0.860596,
-5.62897,0.863647,
-5.63354,0.854492,
-5.63965,0.836182,
-5.64423,0.860596,
-5.65033,0.85907,
-5.64728,0.849915,
-5.65186,0.849915,
-5.65491,0.856018,
-5.65491,0.860596,
-5.65796,0.863647,
-5.65948,0.848389,
-5.66101,0.845337,
-5.66406,0.85144,
-5.66711,0.856018,
-5.67169,0.860596,
-5.67932,0.856018,
-5.68237,0.843811,
-5.68848,0.849915,
-5.69611,0.857544,
-5.69611,0.856018,
-5.70374,0.849915,
-5.70984,0.85144,
-5.71136,0.848389,
-5.71899,0.860596,
-5.72357,0.865173,
-5.72662,0.848389,
-5.72357,0.846863,
-5.72357,0.856018,
-5.72357,0.85144,
-5.72815,0.854492,
-5.72815,0.856018,
-5.7312,0.840759,
-5.72968,0.848389,
-5.73578,0.865173,
-5.73883,0.857544,
-5.74646,0.856018,
-5.75256,0.849915,
-5.75714,0.849915,
-5.76019,0.854492,
-5.7663,0.860596,
-5.77087,0.849915,
-5.77545,0.842285,
-5.77393,0.854492,
-5.78308,0.854492,
-5.78613,0.862122,
-5.79071,0.849915,
-5.79681,0.845337,
-5.80139,0.849915,
-5.80444,0.863647,
-5.81512,0.857544,
-5.81665,0.848389,
-5.82275,0.848389,
-5.82275,0.854492,
-5.83038,0.856018,
-5.83344,0.85907,
-5.83496,0.854492,
-5.83801,0.846863,
-5.83954,0.85144,
-5.84717,0.85907,
-5.85327,0.862122,
-5.8609,0.846863,
-5.867,0.848389,
-5.87006,0.854492,
-5.87463,0.857544,
-5.88074,0.85907,
-5.88379,0.849915,
-5.89142,0.843811,
-5.896,0.849915,
-5.89752,0.857544,
-5.90515,0.857544,
-5.90973,0.849915,
-5.90668,0.843811,
-5.91583,0.849915,
-5.92041,0.860596,
-5.92651,0.857544,
-5.93109,0.848389,
-5.93567,0.848389,
-5.94177,0.846863,
-5.94482,0.857544,
-5.94635,0.857544,
-5.95093,0.845337,
-5.95703,0.860596,
-5.96313,0.848389,
-5.96771,0.856018,
-5.96924,0.85907,
-5.97076,0.849915,
-5.97534,0.843811,
-5.97839,0.85144,
-5.98297,0.860596,
-5.98602,0.856018,
-5.98907,0.854492,
-5.99213,0.846863,
-5.99365,0.854492,
-5.99213,0.856018,
-5.99976,0.860596,
-6.00128,0.848389,
-6.00281,0.849915,
-6.00739,0.85144,
-6.01196,0.857544,
-6.01501,0.862122,
-6.01959,0.849915,
-6.02417,0.848389,
-6.02722,0.856018,
-6.03333,0.856018,
-6.03638,0.857544,
-6.04706,0.849915,
-6.05011,0.846863,
-6.05316,0.849915,
-6.05774,0.863647,
-6.06232,0.854492,
-6.07147,0.857544,
-6.07605,0.846863,
-6.08215,0.849915,
-6.08978,0.869751,
-6.09589,0.85907,
-6.09894,0.85144,
-6.10352,0.857544,
-6.11115,0.846863,
-6.11725,0.857544,
-6.12335,0.862122,
-6.12793,0.848389,
-6.13403,0.845337,
-6.13861,0.85144,
-6.14471,0.85144,
-6.15082,0.856018,
-6.15997,0.849915,
-6.1676,0.843811,
-6.17218,0.845337,
-6.17828,0.85144,
-6.18134,0.857544,
-6.18744,0.848389,
-6.19507,0.842285,
-6.2027,0.846863,
-6.20728,0.85144,
-6.2149,0.856018,
-6.21948,0.843811,
-6.22253,0.846863,
-6.22406,0.845337,
-6.22864,0.849915,
-6.22864,0.856018,
-6.22711,0.85144,
-6.22711,0.842285,
-6.23016,0.85144,
-6.23322,0.85907,
-6.23016,0.85144,
-6.23016,0.848389,
-6.22711,0.848389,
-6.22253,0.848389,
-6.2149,0.856018,
-6.20422,0.860596,
-6.19354,0.848389,
-6.18286,0.849915,
-6.17065,0.85907,
-6.15997,0.856018,
-6.14166,0.860596,
-6.12335,0.849915,
-6.11115,0.846863,
-6.09589,0.849915,
-6.0791,0.85907,
-6.06689,0.85907,
-6.04858,0.849915,
-6.0379,0.848389,
-6.0257,0.854492,
-6.01654,0.85907,
-6.00281,0.863647,
-5.99365,0.849915,
-5.98297,0.846863,
-5.96466,0.849915,
-5.9494,0.860596,
-5.94025,0.857544,
-5.93262,0.846863,
-5.92499,0.849915,
-5.91431,0.843811,
-5.9082,0.85144,
-5.90515,0.85907,
-5.89752,0.843811,
-5.88989,0.843811,
-5.88989,0.849915,
-5.88684,0.849915,
-5.88531,0.854492,
-5.88684,0.849915,
-5.88684,0.842285,
-5.88379,0.845337,
-5.88531,0.856018,
-5.88379,0.856018,
-5.88379,0.849915,
-5.88684,0.849915,
-5.88684,0.845337,
-5.88684,0.857544,
-5.89142,0.860596,
-5.89142,0.845337,
-5.89142,0.848389,
-5.896,0.849915,
-5.89142,0.85144,
-5.89752,0.866699,
-5.90057,0.85144,
-5.9021,0.849915,
-5.90668,0.85144,
-5.9082,0.840759,
-5.90973,0.860596,
-5.91125,0.849915,
-5.91431,0.848389,
-5.91736,0.848389,
-5.92194,0.854492,
-5.92194,0.860596,
-5.92957,0.862122,
-5.92957,0.856018,
-5.93414,0.849915,
-5.93719,0.857544,
-5.9433,0.857544,
-5.94177,0.848389,
-5.94177,0.848389,
-5.9433,0.845337,
-5.94788,0.840759,
-5.94635,0.85907,
-5.94482,0.845337,
-5.94788,0.843811,
-5.94788,0.848389,
-5.94635,0.848389,
-5.94635,0.857544,
-5.94482,0.849915,
-5.94482,0.840759,
-5.94025,0.848389,
-5.94482,0.856018,
-5.94025,0.854492,
-5.93872,0.849915,
-5.94177,0.849915,
-5.94025,0.843811,
-5.94177,0.854492,
-5.94025,0.860596,
-5.93872,0.842285,
-5.93872,0.846863,
-5.93719,0.849915,
-5.93414,0.85144,
-5.93567,0.85907,
-5.92957,0.848389,
-5.92804,0.843811,
-5.92194,0.849915,
-5.91278,0.854492,
-5.91125,0.857544,
-5.90973,0.845337,
-5.90515,0.846863,
-5.9021,0.85144,
-5.9021,0.857544,
-5.90515,0.85907,
-5.9021,0.848389,
-5.90057,0.837708,
-5.89752,0.85144,
-5.89752,0.856018,
-5.89752,0.856018,
-5.9021,0.846863,
-5.896,0.846863,
-5.89294,0.842285,
-5.89142,0.869751,
-5.89294,0.866699,
-5.89752,0.848389,
-5.9021,0.843811,
-5.90668,0.856018,
-5.9082,0.856018,
-5.90668,0.857544,
-5.91125,0.849915,
-5.91431,0.846863,
-5.91583,0.846863,
-5.91278,0.85144,
-5.91583,0.849915,
-5.91736,0.846863,
-5.91888,0.845337,
-5.92194,0.840759,
-5.93262,0.846863,
-5.93262,0.85907,
-5.93719,0.843811,
-5.93872,0.842285,
-5.94635,0.85144,
-5.9494,0.846863,
-5.95551,0.849915,
-5.95856,0.843811,
-5.96313,0.837708,
-5.96313,0.848389,
-5.96619,0.85144,
-5.96771,0.849915,
-5.97229,0.846863,
-5.97382,0.849915,
-5.97839,0.843811,
-5.98297,0.856018,
-5.9845,0.857544,
-5.98907,0.845337,
-5.99213,0.843811,
-5.99213,0.85144,
-5.9906,0.848389,
-5.99365,0.856018,
-5.99518,0.846863,
-6.00128,0.845337,
-6.00128,0.85144,
-6.00739,0.854492,
-6.01196,0.857544,
-6.01654,0.846863,
-6.01501,0.843811,
-6.01654,0.854492,
-6.02264,0.854492,
-6.02264,0.857544,
-6.02722,0.846863,
-6.03027,0.845337,
-6.04248,0.85144,
-6.04553,0.854492,
-6.04401,0.857544,
-6.04858,0.846863,
-6.05011,0.845337,
-6.05316,0.846863,
-6.05927,0.848389,
-6.06537,0.85907,
-6.06689,0.843811,
-6.073,0.842285,
-6.07758,0.854492,
-6.08368,0.849915,
-6.08826,0.856018,
-6.09436,0.846863,
-6.09283,0.860596,
-6.10199,0.846863,
-6.10352,0.85144,
-6.10046,0.848389,
-6.10352,0.842285,
-6.10657,0.845337,
-6.10962,0.842285,
-6.11572,0.849915,
-6.11572,0.854492,
-6.11572,0.840759,
-6.11877,0.840759,
-6.12488,0.848389,
-6.13098,0.843811,
-6.12946,0.854492,
-6.13403,0.856018,
-6.13403,0.842285,
-6.13556,0.85144,
-6.13861,0.857544,
-6.14319,0.85144,
-6.14471,0.848389,
-6.14929,0.843811,
-6.15692,0.85144,
-6.15387,0.846863,
-6.15692,0.85907,
-6.16455,0.845337,
-6.16455,0.842285,
-6.16913,0.848389,
-6.17218,0.854492,
-6.17676,0.85907,
-6.17981,0.845337,
-6.18286,0.843811,
-6.18286,0.849915,
-6.19202,0.85144,
-6.19354,0.856018,
-6.19812,0.846863,
-6.20117,0.840759,
-6.20422,0.849915,
-6.2088,0.849915,
-6.21033,0.85144,
-6.21185,0.846863,
-6.2149,0.840759,
-6.21643,0.845337,
-6.22253,0.85144,
-6.22559,0.849915,
-6.23016,0.842285,
-6.23474,0.845337,
-6.2439,0.842285,
-6.2439,0.845337,
-6.24542,0.854492,
-6.25,0.840759,
-6.25153,0.840759,
-6.25763,0.857544,
-6.25916,0.831604,
-6.26068,0.85144,
-6.26526,0.846863,
-6.27594,0.836182,
-6.27899,0.846863,
-6.28357,0.849915,
-6.28662,0.839233,
-6.28662,0.842285,
-6.29272,0.843811,
-6.29578,0.845337,
-6.30188,0.856018,
-6.30951,0.856018,
-6.31409,0.848389,
-6.31561,0.843811,
-6.31866,0.848389,
-6.32172,0.857544,
-6.32782,0.854492,
-6.33392,0.845337,
-6.34003,0.843811,
-6.34155,0.849915,
-6.35071,0.846863,
-6.35071,0.857544,
-6.35376,0.840759,
-6.36139,0.839233,
-6.36597,0.849915,
-6.36902,0.840759,
-6.37512,0.848389,
-6.3797,0.842285,
-6.38428,0.834656,
-6.39038,0.848389,
-6.39038,0.85144,
-6.39343,0.846863,
-6.39496,0.840759,
-6.39648,0.840759,
-6.39954,0.845337,
-6.40411,0.85144,
-6.40717,0.849915,
-6.40869,0.836182,
-6.41937,0.837708,
-6.4209,0.85144,
-6.42395,0.840759,
-6.427,0.85144,
-6.427,0.842285,
-6.43616,0.836182,
-6.43921,0.848389,
-6.44073,0.85144,
-6.44989,0.849915,
-6.45447,0.842285,
-6.45905,0.840759,
-6.46362,0.846863,
-6.4682,0.849915,
-6.47278,0.854492,
-6.47278,0.840759,
-6.47736,0.840759,
-6.47888,0.846863,
-6.47278,0.846863,
-6.47583,0.854492,
-6.47583,0.842285,
-6.46973,0.840759,
-6.46667,0.848389,
-6.4682,0.849915,
-6.46362,0.85144,
-6.45294,0.839233,
-6.45142,0.840759,
-6.43616,0.85144,
-6.42853,0.849915,
-6.41479,0.848389,
-6.40106,0.842285,
-6.38428,0.839233,
-6.3736,0.846863,
-6.36139,0.843811,
-6.34613,0.846863,
-6.3385,0.845337,
-6.32477,0.840759,
-6.31104,0.843811,
-6.30188,0.846863,
-6.2851,0.85144,
-6.27441,0.836182,
-6.26221,0.834656,
-6.25153,0.85144,
-6.24084,0.840759,
-6.23169,0.846863,
-6.22559,0.842285,
-6.21643,0.83313,
-6.20728,0.842285,
-6.20422,0.846863,
-6.19507,0.845337,
-6.19507,0.842285,
-6.18744,0.839233,
-6.18591,0.842285,
-6.17828,0.846863,
-6.17828,0.854492,
-6.17218,0.840759,
-6.16913,0.839233,
-6.16455,0.845337,
-6.15997,0.843811,
-6.15692,0.845337,
-6.15845,0.845337,
-6.1615,0.836182,
-6.15845,0.849915,
-6.15845,0.845337,
-6.15845,0.848389,
-6.15845,0.842285,
-6.15387,0.842285,
-6.15387,0.849915,
-6.15387,0.848389,
-6.15692,0.846863,
-6.15692,0.843811,
-6.15387,0.837708,
-6.15845,0.845337,
-6.15845,0.845337,
-6.15692,0.85144,
-6.15997,0.839233,
-6.1615,0.839233,
-6.16455,0.845337,
-6.16608,0.843811,
-6.16608,0.85144,
-6.17065,0.837708,
-6.17065,0.837708,
-6.17523,0.846863,
-6.17828,0.842285,
-6.17981,0.848389,
-6.17981,0.840759,
-6.18134,0.837708,
-6.18134,0.843811,
-6.18134,0.845337,
-6.18286,0.846863,
-6.18286,0.839233,
-6.17981,0.836182,
-6.18591,0.843811,
-6.18134,0.843811,
-6.18134,0.848389,
-6.18134,0.83313,
-6.17828,0.837708,
-6.17676,0.845337,
-6.17371,0.842285,
-6.17218,0.849915,
-6.17218,0.836182,
-6.17218,0.840759,
-6.17371,0.849915,
-6.17065,0.848389,
-6.1676,0.848389,
-6.16913,0.845337,
-6.16913,0.837708,
-6.16455,0.843811,
-6.17065,0.848389,
-6.16608,0.848389,
-6.16608,0.843811,
-6.1615,0.837708,
-6.16302,0.842285,
-6.16608,0.848389,
-6.16608,0.846863,
-6.16302,0.840759,
-6.1676,0.834656,
-6.1676,0.842285,
-6.16913,0.840759,
-6.17065,0.848389,
-6.1676,0.837708,
-6.17218,0.831604,
-6.17065,0.845337,
-6.17065,0.839233,
-6.1676,0.843811,
-6.16608,0.842285,
-6.17065,0.830078,
-6.17371,0.839233,
-6.17218,0.845337,
-6.17065,0.848389,
-6.16455,0.836182,
-6.1676,0.837708,
-6.16608,0.836182,
-6.17218,0.839233,
-6.17371,0.846863,
-6.17218,0.839233,
-6.16913,0.827026,
-6.17371,0.846863,
-6.17828,0.840759,
-6.17676,0.846863,
-6.17676,0.840759,
-6.17981,0.836182,
-6.18134,0.839233,
-6.18744,0.845337,
-6.18896,0.843811,
-6.19202,0.839233,
-6.19354,0.837708,
-6.19049,0.842285,
-6.18744,0.846863,
-6.18744,0.839233,
-6.18286,0.843811,
-6.18286,0.836182,
-6.17981,0.843811,
-6.19049,0.842285,
-6.18896,0.849915,
-6.19659,0.83313,
-6.19965,0.837708,
-6.2027,0.840759,
-6.2027,0.842285,
-6.20422,0.854492,
-6.2088,0.837708,
-6.21033,0.83313,
-6.21643,0.839233,
-6.2149,0.837708,
-6.21948,0.846863,
-6.22253,0.839233,
-6.22711,0.830078,
-6.22711,0.839233,
-6.23322,0.845337,
-6.24084,0.840759,
-6.24084,0.839233,
-6.24542,0.834656,
-6.24542,0.834656,
-6.24847,0.842285,
-6.25,0.845337,
-6.25305,0.834656,
-6.25,0.831604,
-6.25305,0.842285,
-6.25305,0.834656,
-6.25458,0.848389,
-6.25763,0.839233,
-6.25763,0.830078,
-6.25916,0.843811,
-6.2561,0.842285,
-6.25305,0.845337,
-6.25153,0.837708,
-6.25305,0.837708,
-6.2561,0.839233,
-6.2561,0.845337,
-6.25763,0.846863,
-6.25916,0.839233,
-6.26068,0.836182,
-6.26526,0.837708,
-6.26221,0.845337,
-6.26678,0.854492,
-6.26526,0.839233,
-6.26678,0.836182,
-6.27289,0.828552,
-6.27594,0.840759,
-6.27899,0.85144,
-6.28052,0.836182,
-6.28204,0.828552,
-6.2851,0.843811,
-6.28815,0.842285,
-6.28662,0.869751,
-6.2912,0.830078,
-6.29272,0.836182,
-6.2973,0.840759,
-6.29578,0.848389,
-6.30341,0.840759,
-6.29883,0.83313,
-6.30341,0.831604,
-6.30493,0.834656,
-6.31256,0.840759,
-6.31409,0.849915,
-6.31714,0.83313,
-6.31866,0.830078,
-6.32019,0.837708,
-6.32172,0.840759,
-6.32477,0.843811,
-6.32782,0.836182,
-6.33392,0.828552,
-6.33392,0.840759,
-6.3385,0.846863,
-6.34308,0.843811,
-6.34613,0.839233,
-6.35071,0.834656,
-6.35223,0.836182,
-6.35681,0.842285,
-6.36139,0.85144,
-6.36292,0.836182,
-6.36749,0.83313,
-6.36902,0.846863,
-6.36902,0.842285,
-6.37512,0.840759,
-6.37512,0.85144,
-6.37665,0.837708,
-6.37512,0.842285,
-6.3736,0.840759,
-6.37817,0.848389,
-6.37817,0.836182,
-6.37817,0.831604,
-6.37665,0.839233,
-6.37665,0.83313,
-6.37512,0.845337,
-6.37817,0.837708,
-6.37817,0.831604,
-6.38275,0.836182,
-6.3858,0.842285,
-6.39343,0.843811,
-6.39496,0.836182,
-6.39496,0.836182,
-6.40106,0.834656,
-6.39954,0.839233,
-6.40869,0.846863,
-6.41022,0.830078,
-6.41174,0.828552,
-6.41479,0.837708,
-6.41937,0.831604,
-6.41785,0.843811,
-6.41785,0.839233,
-6.41937,0.830078,
-6.42395,0.839233,
-6.43311,0.842285,
-6.43463,0.842285,
-6.44073,0.836182,
-6.44684,0.834656,
-6.44989,0.837708,
-6.45294,0.837708,
-6.45905,0.846863,
-6.4621,0.837708,
-6.46362,0.830078,
-6.46515,0.839233,
-6.4682,0.842285,
-6.46973,0.846863,
-6.4682,0.836182,
-6.47583,0.83313,
-6.48193,0.839233,
-6.48651,0.839233,
-6.49109,0.845337,
-6.49414,0.837708,
-6.50024,0.83313,
-6.50177,0.839233,
-6.50482,0.839233,
-6.51245,0.843811,
-6.51398,0.837708,
-6.51398,0.831604,
-6.51855,0.83313,
-6.51855,0.842285,
-6.5155,0.845337,
-6.52008,0.834656,
-6.52161,0.83313,
-6.52618,0.83313,
-6.53076,0.843811,
-6.53534,0.842285,
-6.53687,0.837708,
-6.53381,0.831604,
-6.53687,0.830078,
-6.53687,0.845337,
-6.53687,0.843811,
-6.53076,0.837708,
-6.52924,0.83313,
-6.52466,0.839233,
-6.51703,0.843811,
-6.51093,0.845337,
-6.49872,0.837708,
-6.48956,0.830078,
-6.48041,0.842285,
-6.46515,0.840759,
-6.45599,0.842285,
-6.44226,0.837708,
-6.43005,0.831604,
-6.41785,0.837708,
-6.40869,0.840759,
-6.39496,0.843811,
-6.38123,0.83313,
-6.36444,0.834656,
-6.35223,0.842285,
-6.3385,0.842285,
-6.3324,0.845337,
-6.32324,0.836182,
-6.31256,0.83313,
-6.30341,0.839233,
-6.29425,0.837708,
-6.28967,0.837708,
-6.28662,0.836182,
-6.28052,0.834656,
-6.28052,0.836182,
-6.27441,0.842285,
-6.27441,0.840759,
-6.26678,0.831604,
-6.26373,0.831604,
-6.26068,0.836182,
-6.25458,0.836182,
-6.24847,0.843811,
-6.2439,0.830078,
-6.24542,0.827026,
-6.23932,0.836182,
-6.23779,0.840759,
-6.23474,0.836182,
-6.23322,0.837708,
-6.23169,0.83313,
-6.23169,0.837708,
-6.23169,0.839233,
-6.23016,0.843811,
-6.22864,0.834656,
-6.23016,0.83313,
-6.22711,0.837708,
-6.22711,0.837708,
-6.22864,0.839233,
-6.22559,0.836182,
-6.22406,0.828552,
-6.22559,0.83313,
-6.22559,0.842285,
-6.22559,0.840759,
-6.21948,0.836182,
-6.21796,0.831604,
-6.21796,0.836182,
-6.22101,0.840759,
-6.22101,0.840759,
-6.21948,0.836182,
-6.21948,0.83313,
-6.22406,0.837708,
-6.22559,0.843811,
-6.22711,0.840759,
-6.22864,0.836182,
-6.23016,0.83313,
-6.23322,0.839233,
-6.23016,0.842285,
-6.23169,0.843811,
-6.23169,0.837708,
-6.22864,0.831604,
-6.23322,0.839233,
-6.23474,0.845337,
-6.23627,0.836182,
-6.23932,0.840759,
-6.23779,0.836182,
-6.23627,0.837708,
-6.23322,0.842285,
-6.23474,0.845337,
-6.23627,0.830078,
-6.22864,0.834656,
-6.22864,0.836182,
-6.22253,0.827026,
-6.21796,0.839233,
-6.21185,0.837708,
-6.2027,0.828552,
-6.19812,0.837708,
-6.19965,0.840759,
-6.19202,0.840759,
-6.18286,0.85907,
-6.17981,0.827026,
-6.17828,0.834656,
-6.18286,0.840759,
-6.17676,0.842285,
-6.17371,0.83313,
-6.17523,0.828552,
-6.17218,0.834656,
-6.16913,0.839233,
-6.16913,0.839233,
-6.16455,0.840759,
-6.16608,0.83313,
-6.1615,0.834656,
-6.16455,0.839233,
-6.15845,0.842285,
-6.15845,0.834656,
-6.15845,0.831604,
-6.1615,0.836182,
-6.1615,0.842285,
-6.16608,0.840759,
-6.1676,0.836182,
-6.17065,0.831604,
-6.17065,0.837708,
-6.1676,0.845337,
-6.16455,0.843811,
-6.16455,0.836182,
-6.16455,0.836182,
-6.16608,0.839233,
-6.16455,0.837708,
-6.16455,0.842285,
-6.16455,0.836182,
-6.1615,0.830078,
-6.1615,0.840759,
-6.16302,0.840759,
-6.16608,0.837708,
-6.1676,0.834656,
-6.16608,0.834656,
-6.16455,0.834656,
-6.16608,0.840759,
-6.16302,0.843811,
-6.1615,0.83313,
-6.15997,0.834656,
-6.15845,0.840759,
-6.15692,0.840759,
-6.15387,0.840759,
-6.15845,0.840759,
-6.15387,0.830078,
-6.15234,0.836182,
-6.15082,0.842285,
-6.15082,0.839233,
-6.14777,0.837708,
-6.14777,0.83313,
-6.14624,0.837708,
-6.14624,0.839233,
-6.15082,0.843811,
-6.15234,0.836182,
-6.15234,0.83313,
-6.15082,0.839233,
-6.15234,0.846863,
-6.15082,0.843811,
-6.15387,0.831604,
-6.15692,0.837708,
-6.16302,0.837708,
-6.16302,0.840759,
-6.1615,0.845337,
-6.1615,0.839233,
-6.16455,0.83313,
-6.16608,0.842285,
-6.17218,0.839233,
-6.17523,0.839233,
-6.17676,0.837708,
-6.18591,0.834656,
-6.19049,0.83313,
-6.19507,0.843811,
-6.19812,0.840759,
-6.19659,0.831604,
-6.2027,0.834656,
-6.20728,0.837708,
-6.2149,0.839233,
-6.21185,0.840759,
-6.21948,0.837708,
-6.22253,0.83313,
-6.22559,0.837708,
-6.22559,0.843811,
-6.22864,0.840759,
-6.22711,0.836182,
-6.22711,0.836182,
-6.22406,0.839233,
-6.22406,0.842285,
-6.22559,0.843811,
-6.22864,0.837708,
-6.22711,0.836182,
-6.22711,0.842285,
-6.22864,0.846863,
-6.23016,0.843811,
-6.23016,0.837708,
-6.23322,0.840759,
-6.23779,0.843811,
-6.23779,0.843811,
-6.23627,0.846863,
-6.23779,0.840759,
-6.23932,0.834656,
-6.24542,0.839233,
-6.2439,0.849915,
-6.24695,0.843811,
-6.24847,0.839233,
-6.24847,0.836182,
-6.24542,0.819397,
-6.2439,0.839233,
-6.24542,0.843811,
-6.24542,0.834656,
-6.24695,0.834656,
-6.25,0.842285,
-6.25,0.842285,
-6.24847,0.842285,
-6.25305,0.831604,
-6.25153,0.839233,
-6.25,0.837708,
-6.25,0.849915,
-6.24847,0.842285,
-6.2439,0.836182,
-6.24542,0.840759,
-6.24542,0.842285,
-6.2439,0.848389,
-6.24695,0.845337,
-6.24695,0.840759,
-6.24695,0.839233,
-6.24542,0.842285,
-6.25,0.85144,
-6.25153,0.846863,
-6.25305,0.840759,
-6.25305,0.839233,
-6.25763,0.842285,
-6.25916,0.840759,
-6.26221,0.846863,
-6.26221,0.840759,
-6.26526,0.834656,
-6.26831,0.845337,
-6.26984,0.849915,
-6.26984,0.840759,
-6.27747,0.837708,
-6.28052,0.823975,
-6.28204,0.831604,
-6.28662,0.846863,
-6.2912,0.843811,
-6.29272,0.834656,
-6.28967,0.836182,
-6.2973,0.830078,
-6.2973,0.843811,
-6.30646,0.839233,
-6.30341,0.836182,
-6.31104,0.834656,
-6.31104,0.839233,
-6.31256,0.842285,
-6.31256,0.845337,
-6.31409,0.837708,
-6.31409,0.839233,
-6.31409,0.842285,
-6.31561,0.846863,
-6.31714,0.846863,
-6.31714,0.840759,
-6.31866,0.839233,
-6.31714,0.837708,
-6.31866,0.849915,
-6.32324,0.848389,
-6.32782,0.836182,
-6.33087,0.842285,
-6.33392,0.843811,
-6.33698,0.842285,
-6.34003,0.846863,
-6.34308,0.842285,
-6.34155,0.834656,
-6.3446,0.845337,
-6.34766,0.849915,
-6.35223,0.840759,
-6.35376,0.839233,
-6.36292,0.83313,
-6.36444,0.839233,
-6.36749,0.845337,
-6.37054,0.843811,
-6.37512,0.834656,
-6.38123,0.83313,
-6.38428,0.837708,
-6.39191,0.839233,
-6.39496,0.846863,
-6.39801,0.840759,
-6.39954,0.837708,
-6.39648,0.839233,
-6.39038,0.846863,
-6.38275,0.843811,
-6.37817,0.842285,
-6.37054,0.834656,
-6.36292,0.846863,
-6.35376,0.846863,
-6.34155,0.845337,
-6.32629,0.837708,
-6.31561,0.834656,
-6.30646,0.837708,
-6.2912,0.840759,
-6.27594,0.840759,
-6.26221,0.837708,
-6.24695,0.834656,
-6.23474,0.839233,
-6.22406,0.849915,
-6.21033,0.840759,
-6.19659,0.837708,
-6.18591,0.840759,
-6.16913,0.839233,
-6.14624,0.846863,
-6.13403,0.840759,
-6.11725,0.839233,
-6.10504,0.843811,
-6.08978,0.839233,
-6.07758,0.845337,
-6.06537,0.843811,
-6.05621,0.837708,
-6.05469,0.834656,
-6.04401,0.842285,
-6.0379,0.843811,
-6.03333,0.843811,
-6.02722,0.842285,
-6.02264,0.837708,
-6.01654,0.842285,
-6.00739,0.849915,
-6.00586,0.842285,
-6.00128,0.83313,
-5.99823,0.8255,
-5.99365,0.839233,
-5.9906,0.848389,
-5.9906,0.845337,
-5.99365,0.843811,
-5.9906,0.837708,
-5.9845,0.837708,
-5.97992,0.849915,
-5.97534,0.840759,
-5.97534,0.836182,
-5.97534,0.834656,
-5.97382,0.843811,
-5.97076,0.842285,
-5.97076,0.840759,
-5.96619,0.839233,
-5.96924,0.830078,
-5.96771,0.842285,
-5.96924,0.85144,
-5.97076,0.839233,
-5.97229,0.836182,
-5.97076,0.834656,
-5.97076,0.837708,
-5.97382,0.846863,
-5.97229,0.846863,
-5.97534,0.840759,
-5.97229,0.837708,
-5.97229,0.840759,
-5.97382,0.848389,
-5.96924,0.843811,
-5.96619,0.840759,
-5.96161,0.837708,
-5.96466,0.843811,
-5.96313,0.848389,
-5.96008,0.843811,
-5.96466,0.840759,
-5.96466,0.83313,
-5.95856,0.842285,
-5.95703,0.848389,
-5.95551,0.834656,
-5.95398,0.837708,
-5.95703,0.834656,
-5.95551,0.834656,
-5.95398,0.843811,
-5.94635,0.845337,
-5.94635,0.837708,
-5.94635,0.831604,
-5.94177,0.842285,
-5.93414,0.843811,
-5.93567,0.842285,
-5.93262,0.846863,
-5.92651,0.8255,
-5.92651,0.842285,
-5.92041,0.845337,
-5.91888,0.840759,
-5.91583,0.837708,
-5.91125,0.83313,
-5.90363,0.83313,
-5.90057,0.845337,
-5.89294,0.843811,
-5.88989,0.839233,
-5.88531,0.834656,
-5.87921,0.842285,
-5.87921,0.85144,
-5.87769,0.846863,
-5.87158,0.836182,
-5.87311,0.834656,
-5.867,0.840759,
-5.86395,0.845337,
-5.86853,0.845337,
-5.87158,0.839233,
-5.87158,0.831604,
-5.87311,0.836182,
-5.87463,0.845337,
-5.87158,0.834656,
-5.87616,0.836182,
-5.87769,0.834656,
-5.87769,0.836182,
-5.87769,0.843811,
-5.87921,0.843811,
-5.87769,0.836182,
-5.87921,0.831604,
-5.87921,0.83313,
-5.88226,0.846863,
-5.88531,0.842285,
-5.88531,0.836182,
-5.88684,0.834656,
-5.89142,0.839233,
-5.89294,0.848389,
-5.89294,0.843811,
-5.89905,0.837708,
-5.89905,0.837708,
-5.89752,0.837708,
-5.89752,0.846863,
-5.90057,0.843811,
-5.9021,0.837708,
-5.90515,0.834656,
-5.90668,0.837708,
-5.90973,0.845337,
-5.91431,0.83313,
-5.91431,0.836182,
-5.92041,0.834656,
-5.92194,0.839233,
-5.92804,0.843811,
-5.93109,0.837708,
-5.92957,0.836182,
-5.93262,0.83313,
-5.93719,0.836182,
-5.94025,0.845337,
-5.9433,0.840759,
-5.9433,0.842285,
-5.9433,0.834656,
-5.94635,0.840759,
-5.94177,0.846863,
-5.94482,0.840759,
-5.94635,0.842285,
-5.9494,0.836182,
-5.9494,0.837708,
-5.95093,0.845337,
-5.95703,0.842285,
-5.96313,0.836182,
-5.96313,0.83313,
-5.96924,0.837708,
-5.97076,0.854492,
-5.97687,0.843811,
-5.97382,0.839233,
-5.97687,0.834656,
-5.97839,0.836182,
-5.97687,0.848389,
-5.98297,0.840759,
-5.98297,0.837708,
-5.98602,0.834656,
-5.98907,0.834656,
-5.98907,0.848389,
-5.98755,0.843811,
-5.98907,0.837708,
-5.98755,0.834656,
-5.98755,0.837708,
-5.98602,0.846863,
-5.98907,0.846863,
-5.99213,0.831604,
-5.99365,0.83313,
-5.99823,0.839233,
-5.99823,0.843811,
-5.99976,0.842285,
-6.00128,0.837708,
-6.00433,0.830078,
-6.00586,0.837708,
-6.00586,0.849915,
-6.00891,0.836182,
-6.00739,0.836182,
-6.01196,0.83313,
-6.01501,0.831604,
-6.01959,0.843811,
-6.01807,0.842285,
-6.02417,0.83313,
-6.02264,0.828552,
-6.02264,0.836182,
-6.02722,0.846863,
-6.02722,0.840759,
-6.02264,0.840759,
-6.02112,0.83313,
-6.02112,0.836182,
-6.01959,0.849915,
-6.01959,0.846863,
-6.02417,0.843811,
-6.02264,0.827026,
-6.02722,0.840759,
-6.03485,0.843811,
-6.04248,0.843811,
-6.04401,0.834656,
-6.04706,0.831604,
-6.05164,0.843811,
-6.05621,0.846863,
-6.05927,0.843811,
-6.06384,0.836182,
-6.06537,0.83313,
-6.06537,0.837708,
-6.07452,0.846863,
-6.0791,0.834656,
-6.0791,0.837708,
-6.0791,0.831604,
-6.08521,0.834656,
-6.08978,0.839233,
-6.09894,0.840759,
-6.09589,0.842285,
-6.10657,0.83313,
-6.10657,0.837708,
-6.11267,0.842285,
-6.11572,0.843811,
-6.1203,0.839233,
-6.13098,0.83313,
-6.13556,0.834656,
-6.14014,0.849915,
-6.14166,0.845337,
-6.14319,0.837708,
-6.14471,0.839233,
-6.14929,0.836182,
-6.15234,0.843811,
-6.15234,0.842285,
-6.15692,0.836182,
-6.16608,0.83313,
-6.17065,0.839233,
-6.17371,0.85144,
-6.17523,0.836182,
-6.17828,0.837708,
-6.17828,0.836182,
-6.17676,0.834656,
-6.18591,0.843811,
-6.18134,0.839233,
-6.18744,0.839233,
-6.18744,0.830078,
-6.19202,0.836182,
-6.19659,0.848389,
-6.19965,0.842285,
-6.2027,0.840759,
-6.20728,0.836182,
-6.21185,0.837708,
-6.21796,0.848389,
-6.22711,0.843811,
-6.22559,0.837708,
-6.22711,0.834656,
-6.22559,0.839233,
-6.22864,0.843811,
-6.22559,0.839233,
-6.22559,0.837708,
-6.22711,0.834656,
-6.22406,0.834656,
-6.22711,0.846863,
-6.22559,0.842285,
-6.22864,0.837708,
-6.23016,0.83313,
-6.22864,0.840759,
-6.22864,0.849915,
-6.22406,0.837708,
-6.22559,0.837708,
-6.22253,0.831604,
-6.22101,0.836182,
-6.21948,0.849915,
-6.2149,0.845337,
-6.20728,0.839233,
-6.20575,0.834656,
-6.19659,0.837708,
-6.19049,0.849915,
-6.18134,0.842285,
-6.17065,0.849915,
-6.1615,0.830078,
-6.15692,0.834656,
-6.14166,0.856018,
-6.12793,0.843811,
-6.11877,0.834656,
-6.10046,0.834656,
-6.08521,0.863647,
-6.07452,0.83313,
-6.06079,0.845337,
-6.04401,0.842285,
-6.03027,0.8255,
-6.00891,0.831604,
-5.99976,0.849915,
-5.9906,0.839233,
-5.97687,0.8255,
-5.96008,0.830078,
-5.94635,0.836182,
-5.93262,0.846863,
-5.92041,0.843811,
-5.90973,0.834656,
-5.9021,0.830078,
-5.896,0.837708,
-5.88379,0.846863,
-5.87463,0.842285,
-5.867,0.839233,
-5.8548,0.83313,
-5.84869,0.837708,
-5.84259,0.848389,
-5.83344,0.845337,
-5.82733,0.837708,
-5.82275,0.831604,
-5.81818,0.836182,
-5.81207,0.857544,
-5.80902,0.842285,
-5.80292,0.837708,
-5.79376,0.83313,
-5.78766,0.834656,
-5.78003,0.848389,
-5.77545,0.840759,
-5.77393,0.839233,
-5.77087,0.834656,
-5.77087,0.839233,
-5.76782,0.836182,
-5.7663,0.843811,
-5.76172,0.839233,
-5.75867,0.831604,
-5.75714,0.836182,
-5.75562,0.849915,
-5.75256,0.840759,
-5.74799,0.836182,
-5.74799,0.831604,
-5.74799,0.837708,
-5.74493,0.848389,
-5.74493,0.842285,
-5.74188,0.840759,
-5.74188,0.834656,
-5.74799,0.834656,
-5.74646,0.849915,
-5.75256,0.842285,
-5.75562,0.836182,
-5.76019,0.837708,
-5.76172,0.837708,
-5.76019,0.843811,
-5.76324,0.839233,
-5.76324,0.840759,
-5.75867,0.827026,
-5.75562,0.834656,
-5.75409,0.849915,
-5.75256,0.837708,
-5.75104,0.839233,
-5.74799,0.836182,
-5.74646,0.834656,
-5.74646,0.846863,
-5.74188,0.843811,
-5.74493,0.840759,
-5.74036,0.834656,
-5.74188,0.837708,
-5.73578,0.849915,
-5.73273,0.842285,
-5.72968,0.842285,
-5.72815,0.836182,
-5.72815,0.839233,
-5.72205,0.85144,
-5.71747,0.840759,
-5.71594,0.842285,
-5.70984,0.836182,
-5.70679,0.83313,
-5.70221,0.849915,
-5.69611,0.840759,
-5.68848,0.842285,
-5.6839,0.834656,
-5.67932,0.837708,
-5.67627,0.848389,
-5.67322,0.842285,
-5.67017,0.839233,
-5.66864,0.837708,
-5.66101,0.836182,
-5.65796,0.846863,
-5.65491,0.842285,
-5.65033,0.839233,
-5.65338,0.83313,
-5.65338,0.843811,
-5.65338,0.85144,
-5.65338,0.843811,
-5.65338,0.845337,
-5.65338,0.836182,
-5.65643,0.840759,
-5.65643,0.854492,
-5.65033,0.843811,
-5.65186,0.843811,
-5.65186,0.836182,
-5.65338,0.836182,
-5.65033,0.856018,
-5.65338,0.843811,
-5.65643,0.840759,
-5.65796,0.839233,
-5.66406,0.839233,
-5.66711,0.845337,
-5.66711,0.846863,
-5.66711,0.843811,
-5.66711,0.834656,
-5.67017,0.840759,
-5.67169,0.854492,
-5.66864,0.840759,
-5.67169,0.843811,
-5.67474,0.836182,
-5.68237,0.840759,
-5.68695,0.85144,
-5.69305,0.846863,
-5.70221,0.843811,
-5.70526,0.837708,
-5.70831,0.840759,
-5.71289,0.848389,
-5.71594,0.848389,
-5.72205,0.845337,
-5.72662,0.842285,
-5.72815,0.840759,
-5.72968,0.854492,
-5.73273,0.846863,
-5.7312,0.846863,
-5.72968,0.837708,
-5.7312,0.839233,
-5.7312,0.856018,
-5.7373,0.848389,
-5.73883,0.843811,
-5.73578,0.840759,
-5.74341,0.856018,
-5.74341,0.85144,
-5.74493,0.845337,
-5.75256,0.845337,
-5.75562,0.839233,
-5.75714,0.843811,
-5.75562,0.85907,
-5.75562,0.848389,
-5.75867,0.842285,
-5.75867,0.843811,
-5.76019,0.843811,
-5.76324,0.856018,
-5.76477,0.85144,
-5.76935,0.846863,
-5.76782,0.843811,
-5.76935,0.85144,
-5.77545,0.857544,
-5.78156,0.849915,
-5.78308,0.849915,
-5.78613,0.846863,
-5.78918,0.843811,
-5.79224,0.857544,
-5.79529,0.854492,
-5.79529,0.846863,
-5.79681,0.845337,
-5.79224,0.846863,
-5.79529,0.857544,
-5.79376,0.849915,
-5.79681,0.849915,
-5.79529,0.840759,
-5.79987,0.843811,
-5.80444,0.860596,
-5.81055,0.85144,
-5.8136,0.85144,
-5.81055,0.848389,
-5.81055,0.849915,
-5.8136,0.862122,
-5.81818,0.856018,
-5.8197,0.85144,
-5.82428,0.849915,
-5.82733,0.845337,
-5.82886,0.85907,
-5.82886,0.856018,
-5.83038,0.849915,
-5.82886,0.848389,
-5.83038,0.846863,
-5.82733,0.85907,
-5.82733,0.857544,
-5.83038,0.854492,
-5.83038,0.846863,
-5.83191,0.854492,
-5.83801,0.863647,
-5.83496,0.85907,
-5.83801,0.856018,
-5.83954,0.856018,
-5.83954,0.857544,
-5.84412,0.862122,
-5.84564,0.862122,
-5.84717,0.856018,
-5.84869,0.849915,
-5.8548,0.856018,
-5.85785,0.865173,
-5.8609,0.862122,
-5.86243,0.85907,
-5.87158,0.849915,
-5.87311,0.857544,
-5.87769,0.862122,
-5.88531,0.862122,
-5.88837,0.862122,
-5.89294,0.85144,
-5.89752,0.857544,
-5.90515,0.866699,
-5.90515,0.860596,
-5.90973,0.85144,
-5.91278,0.857544,
-5.91736,0.854492,
-5.91888,0.854492,
-5.92651,0.862122,
-5.93414,0.865173,
-5.93719,0.849915,
-5.9433,0.863647,
-5.95398,0.869751,
-5.95551,0.866699,
-5.96161,0.860596,
-5.96161,0.863647,
-5.97229,0.857544,
-5.98297,0.871277,
-5.98755,0.871277,
-5.9906,0.866699,
-6.00128,0.857544,
-6.00128,0.860596,
-6.00891,0.871277,
-6.01196,0.862122,
-6.01501,0.866699,
-6.01654,0.860596,
-6.01959,0.857544,
-6.02112,0.872803,
-6.0257,0.868225,
-6.03027,0.868225,
-6.03333,0.85907,
-6.03638,0.869751,
-6.04401,0.871277,
-6.04858,0.866699,
-6.05164,0.866699,
-6.05316,0.863647,
-6.05774,0.866699,
-6.05774,0.869751,
-6.06689,0.869751,
-6.06689,0.866699,
-6.073,0.862122,
-6.07452,0.868225,
-6.07758,0.87738,
-6.0791,0.869751,
-6.08063,0.866699,
-6.08215,0.863647,
-6.08063,0.865173,
-6.08368,0.874329,
-6.07758,0.869751,
-6.07452,0.868225,
-6.07452,0.863647,
-6.07147,0.869751,
-6.06689,0.875854,
-6.05774,0.872803,
-6.05011,0.872803,
-6.04095,0.868225,
-6.03027,0.872803,
-6.02112,0.875854,
-6.00891,0.883484,
-5.9967,0.880432,
-5.98602,0.871277,
-5.97076,0.875854,
-5.95551,0.87738,
-5.93719,0.87738,
-5.92194,0.868225,
-5.90515,0.872803,
-5.88379,0.869751,
-5.86853,0.897217,
-5.85175,0.880432,
-5.83496,0.871277,
-5.82275,0.871277,
-5.81207,0.875854,
-5.79987,0.888062,
-5.78766,0.883484,
-5.77393,0.869751,
-5.76019,0.872803,
-5.74799,0.875854,
-5.73578,0.889587,
-5.72968,0.878906,
-5.71594,0.872803,
-5.70679,0.874329,
-5.69458,0.872803,
-5.68848,0.889587,
-5.6778,0.88501,
-5.67322,0.883484,
-5.66864,0.878906,
-5.66864,0.880432,
-5.65796,0.891113,
-5.65338,0.87738,
-5.6488,0.878906,
-5.64423,0.878906,
-5.63965,0.883484,
-5.63812,0.883484,
-5.63812,0.888062,
-5.63507,0.878906,
-5.62439,0.87738,
-5.62286,0.880432,
-5.62286,0.892639,
-5.62286,0.88501,
-5.61523,0.880432,
-5.61829,0.880432,
-5.61523,0.888062,
-5.61523,0.894165,
-5.61218,0.889587,
-5.61523,0.889587,
-5.61523,0.875854,
-5.61523,0.875854,
-5.61371,0.892639,
-5.61371,0.889587,
-5.61371,0.886536,
-5.61371,0.880432,
-5.61676,0.889587,
-5.61829,0.889587,
-5.62134,0.907898,
-5.62439,0.886536,
-5.62439,0.883484,
-5.62439,0.886536,
-5.62439,0.892639,
-5.62897,0.889587,
-5.62744,0.892639,
-5.62286,0.880432,
-5.62134,0.888062,
-5.62592,0.897217,
-5.62897,0.894165,
-5.62744,0.889587,
-5.63049,0.888062,
-5.62897,0.892639,
-5.62744,0.897217,
-5.62897,0.894165,
-5.63049,0.891113,
-5.62744,0.888062,
-5.62439,0.894165,
-5.62439,0.892639,
-5.62439,0.895691,
-5.62439,0.894165,
-5.62134,0.886536,
-5.62134,0.894165,
-5.61829,0.901794,
-5.61218,0.892639,
-5.60913,0.891113,
-5.60608,0.891113,
-5.60608,0.891113,
-5.59845,0.898743,
-5.59692,0.897217,
-5.59845,0.891113,
-5.59387,0.889587,
-5.58624,0.895691,
-5.58167,0.897217,
-5.58014,0.895691,
-5.57251,0.898743,
-5.56641,0.888062,
-5.56183,0.895691,
-5.56183,0.901794,
-5.55725,0.901794,
-5.55573,0.897217,
-5.55267,0.895691,
-5.55115,0.90332,
-5.54962,0.901794,
-5.54657,0.900269,
-5.5481,0.900269,
-5.54657,0.895691,
-5.54657,0.901794,
-5.55267,0.901794,
-5.55267,0.900269,
-5.55267,0.900269,
-5.55267,0.897217,
-5.55267,0.900269,
-5.55573,0.901794,
-5.55573,0.90332,
-5.55573,0.901794,
-5.55115,0.894165,
-5.54962,0.901794,
-5.54657,0.90332,
-5.54352,0.90332,
-5.54657,0.895691,
-5.54657,0.894165,
-5.5481,0.90332,
-5.5481,0.907898,
-5.54962,0.889587,
-5.54962,0.900269,
-5.55115,0.898743,
-5.5542,0.904846,
-5.55267,0.914001,
-5.55878,0.907898,
-5.56488,0.900269,
-5.56641,0.898743,
-5.56641,0.904846,
-5.56793,0.907898,
-5.56946,0.904846,
-5.57098,0.90332,
-5.57861,0.897217,
-5.58319,0.907898,
-5.58624,0.907898,
-5.58929,0.90332,
-5.59235,0.904846,
-5.59692,0.898743,
-5.59845,0.901794,
-5.60455,0.914001,
-5.6076,0.914001,
-5.60913,0.901794,
-5.60913,0.900269,
-5.61218,0.912476,
-5.61218,0.909424,
-5.61371,0.909424,
-5.61371,0.901794,
-5.61066,0.904846,
-5.60913,0.909424,
-5.60913,0.917053,
-5.61371,0.917053,
-5.61981,0.907898,
-5.62286,0.904846,
-5.63049,0.912476,
-5.63507,0.918579,
-5.6366,0.914001,
-5.63812,0.907898,
-5.64117,0.904846,
-5.64728,0.909424,
-5.65338,0.915527,
-5.66101,0.907898,
-5.66559,0.907898,
-5.66864,0.904846,
-5.67322,0.912476,
-5.67932,0.914001,
-5.68085,0.917053,
-5.68695,0.914001,
-5.68848,0.907898,
-5.68848,0.915527,
-5.69458,0.918579,
-5.69916,0.917053,
-5.70221,0.912476,
-5.70526,0.906372,
-5.71289,0.914001,
-5.71442,0.917053,
-5.71899,0.918579,
-5.72357,0.909424,
-5.7251,0.906372,
-5.72968,0.920105,
-5.73425,0.915527,
-5.7373,0.918579,
-5.74036,0.912476,
-5.74646,0.907898,
-5.75104,0.921631,
-5.75256,0.917053,
-5.75562,0.917053,
-5.75867,0.915527,
-5.76019,0.914001,
-5.76477,0.918579,
-5.76477,0.921631,
-5.7724,0.920105,
-5.77393,0.915527,
-5.77393,0.909424,
-5.77545,0.926208,
-5.78003,0.921631,
-5.78156,0.920105,
-5.78766,0.918579,
-5.78918,0.915527,
-5.78613,0.918579,
-5.79071,0.924683,
-5.78918,0.923157,
-5.79529,0.914001,
-5.79529,0.912476,
-5.79834,0.921631,
-5.79987,0.918579,
-5.80597,0.920105,
-5.80902,0.918579,
-5.81665,0.907898,
-5.82275,0.920105,
-5.82581,0.921631,
-5.83496,0.920105,
-5.84564,0.917053,
-5.85175,0.917053,
-5.8609,0.920105,
-5.86243,0.920105,
-5.87006,0.920105,
-5.87311,0.920105,
-5.87158,0.920105,
-5.87769,0.920105,
-5.88074,0.926208,
-5.88074,0.923157,
-5.88226,0.920105,
-5.88684,0.917053,
-5.89294,0.923157,
-5.89905,0.923157,
-5.90057,0.926208,
-5.90363,0.920105,
-5.90668,0.915527,
-5.91278,0.923157,
-5.91888,0.924683,
-5.92957,0.924683,
-5.93109,0.918579,
-5.93872,0.917053,
-5.94635,0.927734,
-5.9494,0.924683,
-5.95398,0.924683,
-5.96313,0.921631,
-5.96771,0.918579,
-5.96771,0.924683,
-5.97382,0.926208,
-5.97534,0.927734,
-5.97839,0.921631,
-5.98297,0.918579,
-5.9845,0.926208,
-5.99213,0.926208,
-5.99365,0.926208,
-5.99976,0.924683,
-5.99976,0.918579,
-6.00586,0.926208,
-6.00739,0.927734,
-6.00891,0.924683,
-6.01959,0.918579,
-6.02417,0.917053,
-6.03027,0.923157,
-6.03638,0.923157,
-6.04095,0.927734,
-6.04401,0.918579,
-6.05164,0.917053,
-6.05316,0.927734,
-6.05774,0.926208,
-6.06079,0.926208,
-6.06232,0.921631,
-6.07147,0.921631,
-6.07605,0.927734,
-6.08063,0.924683,
-6.08063,0.92926,
-6.08368,0.921631,
-6.08673,0.921631,
-6.08826,0.930786,
-6.09131,0.92926,
-6.09283,0.926208,
-6.09131,0.923157,
-6.09436,0.920105,
-6.08826,0.926208,
-6.08368,0.918579,
-6.0791,0.92926,
-6.07147,0.915527,
-6.06232,0.914001,
-6.05621,0.92926,
-6.04858,0.914001,
-6.03638,0.9552,
-6.02264,0.909424,
-6.00586,0.923157,
-5.99213,0.92926,
-5.97687,0.930786,
-5.96313,0.92926,
-5.9494,0.921631,
-5.93719,0.920105,
-5.92194,0.917053,
-5.9082,0.930786,
-5.89294,0.927734,
-5.88074,0.920105,
-5.87006,0.924683,
-5.85785,0.927734,
-5.84564,0.926208,
-5.83344,0.927734,
-5.82428,0.906372,
-5.81512,0.921631,
-5.79987,0.927734,
-5.79071,0.92926,
-5.78308,0.927734,
-5.77087,0.924683,
-5.76172,0.926208,
-5.75562,0.92926,
-5.74493,0.932312,
-5.7373,0.930786,
-5.72205,0.924683,
-5.71594,0.926208,
-5.71136,0.92926,
-5.70526,0.938416,
-5.70068,0.921631,
-5.69,0.924683,
-5.6839,0.926208,
-5.67932,0.92926,
-5.67474,0.926208,
-5.67474,0.935364,
-5.67322,0.920105,
-5.67322,0.921631,
-5.67017,0.924683,
-5.66711,0.926208,
-5.66101,0.950623,
-5.65948,0.927734,
-5.66101,0.924683,
-5.65491,0.930786,
-5.65338,0.92926,
-5.65186,0.933838,
-5.65033,0.927734,
-5.64575,0.921631,
-5.6427,0.927734,
-5.64423,0.930786,
-5.6427,0.927734,
-5.63812,0.926208,
-5.63812,0.923157,
-5.63507,0.924683,
-5.63049,0.932312,
-5.63049,0.92926,
-5.63049,0.921631,
-5.63049,0.923157,
-5.63354,0.932312,
-5.63049,0.927734,
-5.63354,0.930786,
-5.6366,0.926208,
-5.6366,0.926208,
-5.6366,0.930786,
-5.63812,0.926208,
-5.63965,0.933838,
-5.63965,0.927734,
-5.64117,0.923157,
-5.64423,0.92926,
-5.6427,0.930786,
-5.64423,0.930786,
-5.64575,0.927734,
-5.64117,0.927734,
-5.64117,0.927734,
-5.64575,0.938416,
-5.64117,0.935364,
-5.63965,0.924683,
-5.64117,0.924683,
-5.63812,0.930786,
-5.63507,0.930786,
-5.63354,0.933838,
-5.62744,0.927734,
-5.62286,0.924683,
-5.62286,0.930786,
-5.61829,0.930786,
-5.61829,0.935364,
-5.61981,0.924683,
-5.61981,0.923157,
-5.62286,0.927734,
-5.61981,0.932312,
-5.61829,0.92926,
-5.61829,0.926208,
-5.61981,0.92926,
-5.61981,0.92926,
-5.61523,0.933838,
-5.61523,0.933838,
-5.61676,0.924683,
-5.61523,0.926208,
-5.61218,0.930786,
-5.61676,0.92926,
-5.61523,0.933838,
-5.61523,0.927734,
-5.61676,0.924683,
-5.61371,0.933838,
-5.61523,0.935364,
-5.61371,0.938416,
-5.61523,0.926208,
-5.61523,0.927734,
-5.61829,0.933838,
-5.62592,0.933838,
-5.62134,0.932312,
-5.62439,0.924683,
-5.62439,0.927734,
-5.62439,0.927734,
-5.62897,0.92926,
-5.63049,0.93689,
-5.6366,0.926208,
-5.6366,0.924683,
-5.64117,0.932312,
-5.64117,0.930786,
-5.6427,0.933838,
-5.64575,0.924683,
-5.64575,0.927734,
-5.64117,0.932312,
-5.64117,0.92926,
-5.64728,0.935364,
-5.64728,0.926208,
-5.65033,0.926208,
-5.65186,0.938416,
-5.65338,0.932312,
-5.65948,0.933838,
-5.66559,0.926208,
-5.67017,0.926208,
-5.66864,0.926208,
-5.67169,0.932312,
-5.67322,0.93689,
-5.67627,0.926208,
-5.68237,0.926208,
-5.6839,0.932312,
-5.68848,0.932312,
-5.69305,0.933838,
-5.69611,0.930786,
-5.69458,0.924683,
-5.69611,0.932312,
-5.69916,0.932312,
-5.70068,0.927734,
-5.70221,0.920105,
-5.70068,0.926208,
-5.70221,0.935364,
-5.70526,0.939941,
-5.70374,0.933838,
-5.70526,0.935364,
-5.70374,0.938416,
-5.70374,0.93689,
-5.70679,0.927734,
-5.70831,0.933838,
-5.70984,0.926208,
-5.71594,0.923157,
-5.71747,0.935364,
-5.71747,0.92926,
-5.72205,0.93689,
-5.72815,0.930786,
-5.72968,0.924683,
-5.73425,0.935364,
-5.73425,0.932312,
-5.7373,0.938416,
-5.73883,0.932312,
-5.74188,0.926208,
-5.74036,0.930786,
-5.74493,0.933838,
-5.74341,0.93689,
-5.74799,0.92926,
-5.75256,0.930786,
-5.75409,0.921631,
-5.75714,0.920105,
-5.76019,0.935364,
-5.75867,0.923157,
-5.76477,0.924683,
-5.76324,0.930786,
-5.7663,0.933838,
-5.76935,0.956726,
-5.77393,0.930786,
-5.78003,0.92926,
-5.78613,0.935364,
-5.79071,0.932312,
-5.79224,0.93689,
-5.79834,0.930786,
-5.80444,0.924683,
-5.81207,0.92926,
-5.81818,0.935364,
-5.82123,0.933838,
-5.82428,0.927734,
-5.83191,0.924683,
-5.84106,0.932312,
-5.84564,0.932312,
-5.85327,0.933838,
-5.8609,0.92926,
-5.86395,0.926208,
-5.87158,0.930786,
-5.87921,0.926208,
-5.88379,0.935364,
-5.88989,0.930786,
-5.896,0.92926,
-5.89905,0.927734,
-5.90515,0.924683,
-5.90973,0.952148,
-5.91125,0.93689,
-5.91278,0.927734,
-5.91583,0.933838,
-5.91888,0.938416,
-5.92499,0.933838,
-5.92651,0.92926,
-5.93262,0.92926,
-5.93719,0.926208,
-5.94482,0.935364,
-5.94788,0.938416,
-5.95703,0.926208,
-5.96161,0.924683,
-5.96466,0.933838,
-5.97229,0.932312,
-5.97839,0.93689,
-5.98907,0.926208,
-5.99518,0.927734,
-6.00433,0.932312,
-6.00891,0.93689,
-6.01501,0.938416,
-6.01959,0.930786,
-6.0257,0.923157,
-6.02875,0.927734,
-6.03485,0.938416,
-6.0379,0.935364,
-6.04553,0.926208,
-6.05011,0.930786,
-6.05469,0.926208,
-6.05927,0.930786,
-6.05927,0.938416,
-6.05621,0.926208,
-6.05927,0.923157,
-6.06232,0.930786,
-6.06079,0.935364,
-6.06232,0.935364,
-6.06384,0.930786,
-6.06232,0.926208,
-6.06384,0.932312,
-6.06079,0.930786,
-6.06384,0.938416,
-6.06995,0.92926,
-6.07147,0.927734,
-6.07452,0.92926,
-6.0791,0.932312,
-6.08673,0.930786,
-6.08673,0.927734,
-6.08673,0.918579,
-6.09131,0.92926,
-6.09436,0.932312,
-6.10199,0.935364,
-6.10352,0.923157,
-6.10352,0.926208,
-6.11115,0.926208,
-6.11725,0.932312,
-6.11725,0.930786,
-6.12335,0.92926,
-6.12183,0.927734,
-6.12335,0.930786,
-6.12946,0.932312,
-6.13098,0.935364,
-6.13403,0.927734,
-6.13251,0.924683,
-6.12946,0.927734,
-6.12946,0.932312,
-6.12183,0.92926,
-6.1203,0.930786,
-6.11267,0.924683,
-6.11115,0.924683,
-6.10504,0.930786,
-6.09589,0.932312,
-6.08673,0.926208,
-6.08368,0.924683,
-6.06995,0.92926,
-6.05927,0.932312,
-6.04858,0.930786,
-6.03485,0.935364,
-6.0257,0.92926,
-6.01349,0.92926,
-5.99823,0.932312,
-5.98602,0.935364,
-5.97687,0.933838,
-5.96161,0.921631,
-5.95093,0.920105,
-5.93567,0.932312,
-5.92804,0.930786,
-5.91888,0.92926,
-5.90973,0.924683,
-5.9021,0.926208,
-5.89142,0.935364,
-5.88226,0.938416,
-5.87158,0.92926,
-5.86243,0.921631,
-5.85327,0.930786,
-5.85175,0.933838,
-5.84412,0.927734,
-5.84106,0.949097,
-5.83191,0.924683,
-5.83038,0.927734,
-5.82428,0.927734,
-5.8197,0.930786,
-5.81665,0.92926,
-5.8136,0.926208,
-5.81207,0.932312,
-5.80444,0.930786,
-5.80597,0.932312,
-5.80139,0.927734,
-5.79681,0.926208,
-5.79376,0.927734,
-5.79376,0.930786,
-5.79529,0.933838,
-5.79529,0.926208,
-5.79224,0.923157,
-5.79529,0.927734,
-5.79224,0.930786,
-5.79376,0.933838,
-5.79376,0.930786,
-5.79834,0.926208,
-5.79987,0.92926,
-5.80139,0.92926,
-5.80139,0.932312,
-5.80292,0.927734,
-5.79987,0.920105,
-5.79834,0.927734,
-5.79681,0.927734,
-5.79681,0.924683,
-5.79529,0.930786,
-5.79987,0.917053,
-5.79681,0.924683,
-5.79681,0.924683,
-5.79681,0.932312,
-5.79529,0.926208,
-5.79376,0.920105,
-5.79681,0.932312,
-5.79376,0.930786,
-5.79224,0.932312,
-5.79224,0.926208,
-5.79224,0.923157,
-5.79224,0.926208,
-5.79071,0.924683,
-5.78918,0.933838,
-5.79376,0.930786,
-5.79071,0.918579,
-5.79071,0.926208,
-5.79376,0.92926,
-5.79071,0.930786,
-5.78918,0.924683,
-5.78918,0.921631,
-5.78461,0.926208,
-5.77698,0.927734,
-5.7724,0.932312,
-5.7663,0.906372,
-5.76324,0.923157,
-5.75714,0.926208,
-5.75714,0.927734,
-5.75104,0.932312,
-5.74799,0.924683,
-5.74493,0.921631,
-5.7373,0.927734,
-5.7373,0.927734,
-5.73578,0.935364,
-5.7373,0.926208,
-5.73273,0.920105,
-5.72662,0.921631,
-5.72815,0.92926,
-5.72662,0.927734,
-5.72815,0.921631,
-5.73273,0.921631,
-5.7312,0.917053,
-5.7373,0.926208,
-5.73425,0.932312,
-5.73578,0.923157,
-5.73425,0.920105,
-5.7373,0.924683,
-5.74188,0.92926,
-5.73883,0.932312,
-5.74188,0.924683,
-5.74646,0.923157,
-5.75104,0.927734,
-5.75409,0.92926,
-5.75562,0.933838,
-5.75714,0.926208,
-5.76172,0.918579,
-5.76477,0.924683,
-5.76019,0.927734,
-5.76477,0.926208,
-5.77087,0.926208,
-5.76935,0.921631,
-5.7724,0.923157,
-5.78003,0.924683,
-5.78156,0.92926,
-5.78003,0.924683,
-5.78461,0.918579,
-5.79071,0.926208,
-5.78918,0.927734,
-5.79071,0.92926,
-5.79224,0.924683,
-5.79681,0.918579,
-5.79834,0.924683,
-5.80292,0.927734,
-5.81207,0.933838,
-5.80597,0.921631,
-5.80292,0.917053,
-5.80292,0.920105,
-5.80597,0.926208,
-5.81512,0.930786,
-5.8136,0.923157,
-5.81818,0.918579,
-5.8197,0.917053,
-5.82275,0.923157,
-5.82428,0.92926,
-5.82733,0.924683,
-5.83191,0.917053,
-5.83954,0.921631,
-5.84106,0.924683,
-5.84259,0.92926,
-5.84717,0.926208,
-5.85022,0.915527,
-5.85022,0.926208,
-5.8548,0.926208,
-5.85785,0.930786,
-5.8609,0.926208,
-5.867,0.915527,
-5.87158,0.924683,
-5.87616,0.917053,
-5.88074,0.92926,
-5.88684,0.92926,
-5.88684,0.920105,
-5.89142,0.915527,
-5.896,0.923157,
-5.896,0.92926,
-5.90057,0.924683,
-5.90515,0.898743,
-5.9082,0.920105,
-5.90973,0.924683,
-5.91278,0.926208,
-5.91583,0.926208,
-5.91736,0.917053,
-5.92499,0.923157,
-5.93109,0.926208,
-5.92957,0.933838,
-5.93414,0.918579,
-5.93719,0.915527,
-5.93719,0.921631,
-5.94177,0.927734,
-5.94482,0.926208,
-5.94788,0.927734,
-5.95093,0.918579,
-5.95703,0.917053,
-5.96313,0.921631,
-5.96771,0.92926,
-5.97076,0.923157,
-5.97534,0.915527,
-5.97687,0.921631,
-5.98907,0.926208,
-5.98907,0.927734,
-5.9967,0.926208,
-5.9967,0.917053,
-5.99823,0.920105,
-6.00433,0.921631,
-6.00891,0.930786,
-6.01196,0.926208,
-6.01654,0.909424,
-6.02264,0.924683,
-6.02875,0.923157,
-6.0318,0.921631,
-6.0318,0.921631,
-6.03333,0.915527,
-6.03485,0.917053,
-6.03485,0.920105,
-6.04248,0.927734,
-6.04401,0.921631,
-6.04858,0.909424,
-6.05011,0.918579,
-6.05774,0.921631,
-6.06232,0.926208,
-6.06079,0.920105,
-6.06384,0.915527,
-6.06689,0.921631,
-6.07147,0.923157,
-6.06995,0.92926,
-6.07758,0.924683,
-6.0791,0.914001,
-6.0791,0.921631,
-6.08063,0.918579,
-6.08215,0.920105,
-6.08215,0.921631,
-6.08521,0.918579,
-6.08368,0.914001,
-6.08368,0.915527,
-6.08521,0.924683,
-6.08978,0.92926,
-6.09283,0.917053,
-6.09283,0.918579,
-6.09436,0.923157,
-6.10046,0.923157,
-6.10504,0.915527,
-6.10809,0.917053,
-6.11115,0.917053,
-6.11725,0.917053,
-6.11877,0.926208,
-6.12488,0.920105,
-6.12946,0.912476,
-6.13403,0.914001,
-6.13708,0.923157,
-6.14014,0.924683,
-6.14319,0.918579,
-6.14777,0.914001,
-6.15387,0.915527,
-6.15692,0.921631,
-6.15997,0.923157,
-6.1615,0.914001,
-6.16608,0.915527,
-6.16302,0.918579,
-6.16608,0.914001,
-6.16608,0.926208,
-6.17065,0.917053,
-6.17523,0.912476,
-6.17523,0.917053,
-6.17523,0.917053,
-6.17828,0.923157,
-6.17981,0.914001,
-6.18744,0.907898,
-6.19354,0.914001,
-6.19354,0.920105,
-6.19659,0.923157,
-6.2027,0.917053,
-6.20117,0.915527,
-6.20422,0.915527,
-6.20728,0.918579,
-6.21796,0.924683,
-6.22101,0.917053,
-6.22253,0.906372,
-6.22864,0.914001,
-6.23016,0.917053,
-6.23322,0.923157,
-6.23322,0.915527,
-6.23474,0.909424,
-6.23779,0.915527,
-6.23932,0.914001,
-6.22864,0.923157,
-6.22559,0.918579,
-6.21796,0.904846,
-6.20728,0.909424,
-6.19659,0.924683,
-6.17981,0.909424,
-6.16913,0.915527,
-6.15387,0.907898,
-6.14014,0.914001,
-6.12183,0.915527,
-6.10657,0.921631,
-6.08826,0.935364,
-6.06689,0.909424,
-6.05011,0.915527,
-6.02875,0.920105,
-6.00891,0.924683,
-5.98907,0.909424,
-5.96924,0.909424,
-5.95551,0.915527,
-5.93872,0.895691,
-5.92651,0.917053,
-5.90973,0.915527,
-5.89752,0.90332,
-5.88226,0.909424,
-5.86853,0.917053,
-5.85022,0.921631,
-5.84106,0.915527,
-5.82733,0.907898,
-5.8136,0.915527,
-5.80292,0.917053,
-5.79529,0.920105,
-5.78308,0.920105,
-5.78308,0.907898,
-5.77393,0.912476,
-5.76782,0.915527,
-5.76477,0.920105,
-5.76019,0.917053,
-5.75409,0.907898,
-5.74799,0.909424,
-5.74646,0.912476,
-5.74493,0.920105,
-5.74188,0.915527,
-5.74341,0.909424,
-5.73578,0.915527,
-5.72968,0.915527,
-5.72357,0.921631,
-5.72357,0.921631,
-5.72357,0.904846,
-5.71747,0.907898,
-5.71747,0.915527,
-5.71594,0.917053,
-5.71136,0.917053,
-5.71289,0.907898,
-5.71289,0.909424,
-5.71289,0.912476,
-5.71136,0.920105,
-5.71442,0.914001,
-5.71136,0.897217,
-5.70831,0.914001,
-5.70526,0.914001,
-5.69763,0.917053,
-5.70068,0.915527,
-5.69916,0.909424,
-5.69763,0.909424,
-5.69916,0.912476,
-5.69916,0.918579,
-5.70374,0.915527,
-5.70374,0.90332,
-5.70068,0.907898,
-5.70221,0.912476,
-5.70221,0.912476,
-5.69611,0.912476,
-5.69763,0.904846,
-5.69611,0.892639,
-5.68848,0.932312,
-5.6839,0.914001,
-5.68542,0.915527,
-5.68085,0.904846,
-5.67474,0.907898,
-5.67322,0.909424,
-5.66864,0.917053,
-5.65948,0.906372,
-5.65796,0.909424,
-5.65796,0.90332,
-5.65186,0.907898,
-5.65033,0.909424,
-5.6488,0.914001,
-5.64423,0.900269,
-5.64117,0.904846,
-5.6366,0.907898,
-5.62744,0.912476,
-5.62286,0.906372,
-5.61523,0.904846,
-5.60913,0.904846,
-5.60608,0.904846,
-5.6015,0.914001,
-5.59845,0.914001,
-5.59692,0.904846,
-5.59082,0.901794,
-5.59235,0.906372,
-5.58777,0.909424,
-5.58472,0.907898,
-5.57861,0.900269,
-5.57098,0.906372,
-5.56335,0.906372,
-5.56335,0.914001,
-5.55725,0.909424,
-5.5542,0.897217,
-5.55115,0.901794,
-5.54657,0.907898,
-5.53894,0.912476,
-5.54199,0.909424,
-5.53894,0.901794,
-5.54047,0.901794,
-5.54352,0.920105,
-5.54352,0.907898,
-5.5481,0.906372,
-5.54962,0.901794,
-5.54657,0.90332,
-5.5481,0.90332,
-5.55267,0.914001,
-5.55573,0.906372,
-5.56183,0.900269,
-5.56641,0.904846,
-5.56641,0.90332,
-5.56641,0.909424,
-5.56946,0.909424,
-5.56641,0.898743,
-5.56793,0.907898,
-5.56793,0.906372,
-5.57098,0.912476,
-5.57098,0.901794,
-5.57556,0.898743,
-5.57098,0.901794,
-5.57251,0.90332,
-5.57709,0.909424,
-5.57861,0.90332,
-5.57709,0.897217,
-5.57556,0.897217,
-5.57861,0.90332,
-5.58167,0.907898,
-5.58167,0.900269,
-5.58472,0.898743,
-5.58319,0.90332,
-5.58319,0.906372,
-5.58472,0.894165,
-5.59082,0.90332,
-5.59082,0.90332,
-5.59387,0.900269,
-5.59692,0.901794,
-5.59692,0.909424,
-5.6015,0.907898,
-5.6076,0.892639,
-5.60913,0.898743,
-5.60913,0.90332,
-5.61218,0.904846,
-5.61371,0.901794,
-5.61829,0.895691,
-5.62286,0.895691,
-5.62286,0.900269,
-5.62897,0.915527,
-5.63354,0.90332,
-5.63049,0.892639,
-5.6366,0.904846,
-5.63507,0.907898,
-5.6366,0.909424,
-5.63812,0.901794,
-5.64117,0.898743,
-5.6427,0.904846,
-5.64575,0.897217,
-5.64728,0.907898,
-5.65033,0.90332,
-5.65338,0.894165,
-5.65948,0.891113,
-5.66101,0.904846,
-5.67017,0.904846,
-5.67169,0.906372,
-5.68237,0.894165,
-5.69,0.90332,
-5.69,0.894165,
-5.69763,0.906372,
-5.70526,0.901794,
-5.70679,0.895691,
-5.70984,0.898743,
-5.71442,0.897217,
-5.71747,0.907898,
-5.72205,0.898743,
-5.72205,0.900269,
-5.72968,0.898743,
-5.7312,0.898743,
-5.7312,0.90332,
-5.73425,0.900269,
-5.73578,0.891113,
-5.73425,0.898743,
-5.7373,0.900269,
-5.7373,0.904846,
-5.74341,0.904846,
-5.74188,0.895691,
-5.74493,0.901794,
-5.75104,0.900269,
-5.75256,0.90332,
-5.75409,0.904846,
-5.76019,0.889587,
-5.76477,0.897217,
-5.76782,0.895691,
-5.7724,0.904846,
-5.77698,0.88501,
-5.78308,0.892639,
-5.78766,0.892639,
-5.78766,0.898743,
-5.79224,0.90332,
-5.79681,0.90332,
-5.80139,0.901794,
-5.81055,0.886536,
-5.81818,0.900269,
-5.82123,0.906372,
-5.82275,0.904846,
-5.83038,0.889587,
-5.83801,0.898743,
-5.84259,0.900269,
-5.84869,0.900269,
-5.85175,0.888062,
-5.85175,0.88501,
-5.85632,0.889587,
-5.86395,0.895691,
-5.87158,0.901794,
-5.87921,0.895691,
-5.88074,0.889587,
-5.88989,0.895691,
-5.89752,0.894165,
-5.89905,0.90332,
-5.90515,0.898743,
-5.90973,0.892639,
-5.91278,0.895691,
-5.91736,0.891113,
-5.92651,0.900269,
-5.93109,0.880432,
-5.93567,0.891113,
-5.93872,0.891113,
-5.94635,0.898743,
-5.94788,0.90332,
-5.95398,0.897217,
-5.96161,0.888062,
-5.96008,0.897217,
-5.96161,0.895691,
-5.96466,0.897217,
-5.96924,0.897217,
-5.96771,0.891113,
-5.96771,0.888062,
-5.96771,0.895691,
-5.97076,0.901794,
-5.97839,0.895691,
-5.97687,0.88501,
-5.97534,0.87738,
-5.97839,0.894165,
-5.9845,0.897217,
-5.98907,0.901794,
-5.99365,0.886536,
-5.99518,0.886536,
-5.99976,0.892639,
-6.00281,0.894165,
-6.00128,0.891113,
-6.00891,0.889587,
-6.01654,0.888062,
-6.02112,0.894165,
-6.02417,0.901794,
-6.03027,0.897217,
-6.03485,0.891113,
-6.04095,0.891113,
-6.04858,0.898743,
-6.05316,0.898743,
-6.05469,0.892639,
-6.05927,0.888062,
-6.05927,0.889587,
-6.06079,0.892639,
-6.05774,0.897217,
-6.06537,0.894165,
-6.06232,0.883484,
-6.06232,0.886536,
-6.06079,0.895691,
-6.05774,0.895691,
-6.05316,0.891113,
-6.05011,0.886536,
-6.04858,0.888062,
-6.04095,0.892639,
-6.0318,0.894165,
-6.02264,0.895691,
-6.01349,0.886536,
-5.99976,0.888062,
-5.9906,0.894165,
-5.97534,0.894165,
-5.96466,0.889587,
-5.9494,0.88501,
-5.93109,0.883484,
-5.91583,0.891113,
-5.90057,0.894165,
-5.88074,0.894165,
-5.867,0.878906,
-5.85175,0.88501,
-5.84259,0.892639,
-5.83038,0.894165,
-5.8136,0.891113,
-5.80444,0.886536,
-5.79376,0.889587,
-5.78613,0.895691,
-5.77087,0.891113,
-5.76172,0.889587,
-5.75256,0.883484,
-5.74188,0.88501,
-5.73425,0.891113,
-5.72662,0.897217,
-5.71747,0.892639,
-5.70984,0.892639,
-5.70374,0.880432,
-5.70221,0.892639,
-5.69458,0.894165,
-5.69763,0.892639,
-5.69458,0.880432,
-5.69305,0.88501,
-5.68695,0.891113,
-5.68542,0.90332,
-5.67932,0.895691,
-5.68085,0.878906,
-5.67932,0.880432,
-5.67474,0.894165,
-5.67322,0.891113,
-5.67627,0.888062,
-5.6778,0.883484,
-5.67322,0.880432,
-5.66864,0.892639,
-5.66864,0.895691,
-5.66711,0.892639,
-5.67017,0.880432,
-5.67169,0.886536,
-5.67322,0.889587,
-5.67322,0.891113,
-5.67322,0.888062,
-5.67474,0.891113,
-5.67169,0.88501,
-5.67474,0.878906,
-5.67627,0.880432,
-5.68085,0.892639,
-5.68085,0.878906,
-5.68237,0.888062,
-5.68848,0.88501,
-5.69305,0.888062,
-5.69305,0.888062,
-5.69611,0.883484,
-5.70068,0.87738,
-5.70831,0.883484,
-5.70984,0.891113,
-5.70984,0.888062,
-5.70984,0.883484,
-5.71136,0.880432,
-5.70984,0.889587,
-5.71289,0.895691,
-5.70984,0.880432,
-5.70984,0.886536,
-5.70984,0.880432,
-5.70831,0.888062,
-5.70984,0.889587,
-5.70679,0.889587,
-5.70984,0.880432,
-5.70831,0.87738,
-5.70526,0.886536,
-5.70374,0.888062,
-5.69916,0.891113,
-5.69611,0.883484,
-5.69458,0.880432,
-5.69305,0.880432,
-5.69,0.891113,
-5.69458,0.886536,
-5.68848,0.888062,
-5.68848,0.875854,
-5.68848,0.875854,
-5.68695,0.901794,
-5.68542,0.892639,
-5.68695,0.878906,
-5.6839,0.878906,
-5.6839,0.880432,
-5.68542,0.888062,
-5.68237,0.880432,
-5.68237,0.878906,
-5.6839,0.874329,
-5.68542,0.883484,
-5.68237,0.886536,
-5.68085,0.888062,
-5.68237,0.878906,
-5.68237,0.875854,
-5.67932,0.889587,
-5.6839,0.888062,
-5.68695,0.888062,
-5.68542,0.878906,
-5.68237,0.87738,
-5.68237,0.886536,
-5.68237,0.886536,
-5.68695,0.880432,
-5.68542,0.87738,
-5.68542,0.880432,
-5.68848,0.878906,
-5.69,0.880432,
-5.69,0.88501,
-5.69458,0.875854,
-5.69763,0.878906,
-5.69763,0.883484,
-5.70068,0.889587,
-5.70526,0.886536,
-5.70679,0.87738,
-5.70679,0.880432,
-5.71289,0.888062,
-5.71594,0.883484,
-5.72205,0.889587,
-5.71899,0.874329,
-5.72357,0.875854,
-5.72968,0.880432,
-5.73578,0.886536,
-5.74341,0.878906,
-5.74493,0.874329,
-5.74799,0.87738,
-5.75409,0.88501,
-5.75867,0.886536,
-5.76324,0.874329,
-5.7663,0.880432,
-5.76782,0.875854,
-5.77087,0.883484,
-5.77698,0.88501,
-5.77698,0.88501,
-5.78156,0.871277,
-5.78308,0.87738,
-5.78613,0.883484,
-5.78766,0.880432,
-5.78918,0.883484,
-5.79681,0.875854,
-5.79834,0.869751,
-5.79834,0.880432,
-5.79834,0.883484,
-5.80292,0.888062,
-5.80444,0.875854,
-5.81055,0.87738,
-5.80902,0.880432,
-5.81055,0.886536,
-5.81512,0.883484,
-5.81055,0.872803,
-5.81818,0.871277,
-5.8197,0.900269,
-5.82581,0.878906,
-5.82733,0.878906,
-5.83801,0.869751,
-5.83954,0.871277,
-5.84259,0.87738,
-5.84106,0.886536,
-5.84717,0.878906,
-5.84869,0.862122,
-5.85175,0.869751,
-5.85327,0.88501,
-5.85938,0.883484,
-5.8609,0.878906,
-5.87006,0.87738,
-5.87311,0.872803,
-5.87921,0.883484,
-5.87769,0.878906,
-5.88074,0.878906,
-5.88379,0.875854,
-5.88379,0.871277,
-5.88379,0.869751,
-5.88379,0.880432,
-5.88989,0.87738,
-5.89142,0.871277,
-5.89752,0.866699,
-5.89752,0.875854,
-5.89905,0.87738,
-5.89905,0.874329,
-5.89752,0.875854,
-5.89752,0.875854,
-5.89905,0.878906,
-5.89905,0.880432,
-5.90057,0.883484,
-5.9021,0.874329,
-5.90363,0.875854,
-5.90668,0.875854,
-5.9082,0.888062,
-5.91431,0.875854,
-5.91583,0.871277,
-5.92651,0.869751,
-5.93567,0.875854,
-5.94177,0.872803,
-5.94482,0.875854,
-5.94635,0.869751,
-5.95551,0.868225,
-5.95856,0.87738,
-5.96008,0.880432,
-5.96771,0.875854,
-5.96771,0.868225,
-5.97687,0.869751,
-5.97687,0.883484,
-5.97992,0.878906,
-5.98755,0.875854,
-5.9906,0.869751,
-5.9967,0.871277,
-5.99823,0.87738,
-5.99976,0.878906,
-5.99823,0.874329,
-5.99823,0.866699,
-6.00739,0.869751,
-6.00891,0.878906,
-6.01807,0.883484,
-6.02417,0.874329,
-6.02875,0.869751,
-6.03485,0.869751,
-6.03638,0.875854,
-6.04401,0.878906,
-6.05164,0.878906,
-6.05774,0.869751,
-6.05621,0.871277,
-6.06232,0.874329,
-6.06537,0.875854,
-6.06537,0.866699,
-6.07147,0.874329,
-6.0791,0.865173,
-6.08215,0.875854,
-6.08215,0.878906,
-6.08826,0.872803,
-6.09283,0.868225,
-6.09283,0.872803,
-6.09894,0.874329,
-6.10199,0.874329,
-6.10504,0.886536,
-6.10962,0.869751,
-6.11877,0.868225,
-6.1203,0.874329,
-6.12488,0.880432,
-6.12946,0.875854,
-6.13708,0.868225,
-6.13861,0.888062,
-6.14166,0.862122,
-6.14624,0.875854,
-6.15082,0.874329,
-6.15234,0.869751,
-6.15845,0.865173,
-6.1615,0.875854,
-6.1676,0.878906,
-6.16913,0.872803,
-6.1676,0.869751,
-6.17371,0.866699,
-6.17523,0.875854,
-6.17523,0.872803,
-6.17523,0.865173,
-6.17981,0.871277,
-6.17981,0.869751,
-6.18591,0.869751,
-6.18286,0.875854,
-6.18134,0.869751,
-6.17676,0.857544,
-6.17523,0.865173,
-6.17676,0.874329,
-6.17371,0.872803,
-6.16608,0.85907,
-6.15845,0.868225,
-6.14777,0.860596,
-6.13861,0.874329,
-6.12946,0.872803,
-6.11725,0.872803,
-6.10199,0.869751,
-6.08826,0.866699,
-6.073,0.878906,
-6.05927,0.878906,
-6.04706,0.871277,
-6.0318,0.871277,
-6.01807,0.866699,
-6.00128,0.868225,
-5.98755,0.874329,
-5.97382,0.872803,
-5.96161,0.863647,
-5.94788,0.866699,
-5.93719,0.872803,
-5.92651,0.874329,
-5.91583,0.869751,
-5.90363,0.868225,
-5.89294,0.866699,
-5.88226,0.875854,
-5.86395,0.872803,
-5.85785,0.871277,
-5.84717,0.866699,
-5.83954,0.866699,
-5.82886,0.874329,
-5.82123,0.875854,
-5.81512,0.869751,
-5.81055,0.866699,
-5.80292,0.869751,
-5.79987,0.868225,
-5.79681,0.871277,
-5.79681,0.868225,
-5.79376,0.865173,
-5.79376,0.866699,
-5.78461,0.868225,
-5.78156,0.875854,
-5.78156,0.866699,
-5.77698,0.868225,
-5.77698,0.866699,
-5.78308,0.872803,
-5.78461,0.87738,
-5.78613,0.871277,
-5.78613,0.865173,
-5.78918,0.863647,
-5.79224,0.871277,
-5.79071,0.87738,
-5.79681,0.860596,
-5.80139,0.85907,
-5.80597,0.863647,
-5.80597,0.869751,
-5.8136,0.872803,
-5.81665,0.869751,
-5.81665,0.866699,
-5.8197,0.865173,
-5.82275,0.871277,
-5.82123,0.874329,
-5.82428,0.866699,
-5.82733,0.865173,
-5.82886,0.865173,
-5.83038,0.872803,
-5.83496,0.869751,
-5.83496,0.866699,
-5.84106,0.862122,
-5.84106,0.85907,
-5.84259,0.868225,
-5.84106,0.871277,
-5.84259,0.863647,
-5.84259,0.865173,
-5.84259,0.865173,
-5.83496,0.872803,
-5.83191,0.872803,
-5.83344,0.862122,
-5.83344,0.871277,
-5.82886,0.866699,
-5.82275,0.868225,
-5.81665,0.874329,
-5.80597,0.865173,
-5.80292,0.863647,
-5.79987,0.863647,
-5.79529,0.871277,
-5.79376,0.871277,
-5.78918,0.865173,
-5.78461,0.862122,
-5.78003,0.860596,
-5.78156,0.868225,
-5.78003,0.869751,
-5.78003,0.869751,
-5.77698,0.865173,
-5.77393,0.862122,
-5.77393,0.871277,
-5.76477,0.872803,
-5.76172,0.866699,
-5.75714,0.866699,
-5.75409,0.865173,
-5.75256,0.863647,
-5.75104,0.868225,
-5.74493,0.862122,
-5.74341,0.85907,
-5.74341,0.85144,
-5.74493,0.866699,
-5.74341,0.868225,
-5.74493,0.862122,
-5.75104,0.862122,
-5.74341,0.862122,
-5.74493,0.866699,
-5.74493,0.869751,
-5.74799,0.869751,
-5.75104,0.865173,
-5.75256,0.865173,
-5.75409,0.869751,
-5.75867,0.868225,
-5.76172,0.860596,
-5.76782,0.854492,
-5.77545,0.860596,
-5.77545,0.862122,
-5.78156,0.868225,
-5.78613,0.865173,
-5.78766,0.860596,
-5.79071,0.860596,
-5.78766,0.871277,
-5.79224,0.872803,
-5.79224,0.863647,
-5.79224,0.860596,
-5.79681,0.862122,
-5.79376,0.866699,
-5.79681,0.862122,
-5.80292,0.862122,
-5.80139,0.85907,
-5.80139,0.886536,
-5.80444,0.865173,
-5.80902,0.871277,
-5.81512,0.85907,
-5.81512,0.856018,
-5.81512,0.857544,
-5.81512,0.85907,
-5.81818,0.871277,
-5.82123,0.848389,
-5.82581,0.862122,
-5.83038,0.857544,
-5.83344,0.863647,
-5.83954,0.868225,
-5.84564,0.854492,
-5.84564,0.860596,
-5.84564,0.860596,
-5.84412,0.856018,
-5.84412,0.869751,
-5.84259,0.862122,
-5.84717,0.860596,
-5.84869,0.857544,
-5.84717,0.866699,
-5.84564,0.874329,
-5.84259,0.860596,
-5.84564,0.866699,
-5.84717,0.85907,
-5.85022,0.868225,
-5.8548,0.866699,
-5.85632,0.860596,
-5.85632,0.857544,
-5.85938,0.856018,
-5.86243,0.872803,
-5.86853,0.871277,
-5.86853,0.862122,
-5.87158,0.860596,
-5.87769,0.857544,
-5.88379,0.866699,
-5.88837,0.868225,
-5.88989,0.860596,
-5.896,0.857544,
-5.89905,0.857544,
-5.90515,0.869751,
-5.9082,0.866699,
-5.91278,0.862122,
-5.91736,0.846863,
-5.91736,0.857544,
-5.91888,0.868225,
-5.91736,0.863647,
-5.91431,0.865173,
-5.91888,0.863647,
-5.92041,0.85907,
-5.91888,0.866699,
-5.92041,0.868225,
-5.92041,0.860596,
-5.92194,0.863647,
-5.92499,0.85907,
-5.92651,0.868225,
-5.92499,0.872803,
-5.92804,0.863647,
-5.92957,0.857544,
-5.92957,0.854492,
-5.93414,0.862122,
-5.93414,0.862122,
-5.93719,0.860596,
-5.93719,0.85907,
-5.93719,0.860596,
-5.94177,0.866699,
-5.94177,0.87738,
-5.94635,0.857544,
-5.9494,0.85144,
-5.94788,0.854492,
-5.95703,0.85907,
-5.96008,0.869751,
-5.96619,0.862122,
-5.96771,0.862122,
-5.96771,0.857544,
-5.97534,0.866699,
-5.97839,0.869751,
-5.9845,0.856018,
-5.9906,0.860596,
-5.9906,0.85907,
-5.99518,0.865173,
-5.99823,0.869751,
-5.99976,0.856018,
-6.00586,0.85907,
-6.00739,0.856018,
-6.01349,0.863647,
-6.01654,0.868225,
-6.01959,0.85907,
-6.02722,0.863647,
-6.02875,0.860596,
-6.03638,0.863647,
-6.04095,0.863647,
-6.04401,0.85907,
-6.04858,0.85907,
-6.04706,0.854492,
-6.05469,0.863647,
-6.05927,0.866699,
-6.06079,0.862122,
-6.06537,0.857544,
-6.06995,0.854492,
-6.073,0.868225,
-6.07605,0.863647,
-6.07758,0.862122,
-6.0791,0.860596,
-6.08215,0.849915,
-6.08215,0.866699,
-6.08521,0.863647,
-6.08826,0.862122,
-6.09131,0.85144,
-6.09589,0.849915,
-6.10199,0.863647,
-6.10504,0.863647,
-6.10809,0.860596,
-6.11725,0.860596,
-6.12946,0.85907,
-6.13556,0.860596,
-6.13708,0.865173,
-6.14166,0.863647,
-6.14624,0.848389,
-6.14929,0.857544,
-6.15692,0.865173,
-6.1615,0.866699,
-6.16608,0.860596,
-6.17371,0.85907,
-6.17981,0.848389,
-6.18591,0.860596,
-6.18591,0.87738,
-6.19507,0.85907,
-6.19965,0.857544,
-6.20575,0.857544,
-6.20728,0.862122,
-6.21185,0.865173,
-6.21796,0.857544,
-6.22559,0.854492,
-6.22559,0.85907,
-6.22864,0.85144,
-6.22559,0.869751,
-6.21948,0.857544,
-6.21796,0.85907,
-6.20728,0.854492,
-6.19965,0.862122,
-6.19049,0.868225,
-6.18591,0.854492,
-6.17676,0.85907,
-6.16608,0.856018,
-6.15082,0.862122,
-6.13861,0.866699,
-6.12335,0.860596,
-6.10962,0.85907,
-6.08978,0.854492,
-6.08063,0.85907,
-6.06079,0.863647,
-6.04706,0.854492,
-6.0318,0.862122,
-6.01959,0.856018,
-6.00128,0.863647,
-5.98755,0.863647,
-5.97076,0.857544,
-5.95398,0.857544,
-5.94177,0.848389,
-5.92957,0.865173,
-5.92041,0.866699,
-5.90363,0.85907,
-5.896,0.862122,
-5.88531,0.85144,
-5.87769,0.863647,
-5.86395,0.860596,
-5.85785,0.857544,
-5.84869,0.85907,
-5.84412,0.849915,
-5.84106,0.868225,
-5.83496,0.862122,
-5.83038,0.860596,
-5.82275,0.856018,
-5.81665,0.848389,
-5.8136,0.860596,
-5.81207,0.857544,
-5.80902,0.862122,
-5.80597,0.860596,
-5.80444,0.856018,
-5.80139,0.866699,
-5.80597,0.863647,
-5.81055,0.85907,
-5.81055,0.85144,
-5.8136,0.846863,
-5.81512,0.866699,
-5.8136,0.85907,
-5.81665,0.860596,
-5.81665,0.85907,
-5.81818,0.856018,
-5.81665,0.85907,
-5.81665,0.862122,
-5.82123,0.85907,
-5.82123,0.85144,
-5.82275,0.848389,
-5.82581,0.866699,
-5.82428,0.865173,
-5.82581,0.860596,
-5.82581,0.848389,
-5.82733,0.85144,
-5.83038,0.860596,
-5.83038,0.862122,
-5.83344,0.860596,
-5.83496,0.854492,
-5.83344,0.85144,
-5.83191,0.863647,
-5.83038,0.865173,
-5.83191,0.860596,
-5.83344,0.849915,
-5.83344,0.85144,
-5.84106,0.85907,
-5.83801,0.860596,
-5.83344,0.860596,
-5.83344,0.854492,
-5.82886,0.854492,
-5.82428,0.862122,
-5.82275,0.863647,
-5.82428,0.85144,
-5.82123,0.856018,
-5.81818,0.85144,
-5.81818,0.857544,
-5.8136,0.868225,
-5.81512,0.85907,
-5.8136,0.854492,
-5.81055,0.849915,
-5.81207,0.860596,
-5.80902,0.863647,
-5.80597,0.85144,
-5.80139,0.854492,
-5.79834,0.85144,
-5.79681,0.856018,
-5.79224,0.875854,
-5.79071,0.868225,
-5.78613,0.849915,
-5.78308,0.849915,
-5.78308,0.854492,
-5.78003,0.862122,
-5.77393,0.849915,
-5.77087,0.857544,
-5.7724,0.849915,
-5.77393,0.843811,
-5.77698,0.865173,
-5.77087,0.857544,
-5.76782,0.849915,
-5.76477,0.846863,
-5.76324,0.856018,
-5.75714,0.865173,
-5.75562,0.856018,
-5.74799,0.85907,
-5.74799,0.85144,
-5.74493,0.85907,
-5.74493,0.863647,
-5.74493,0.856018,
-5.74646,0.854492,
-5.74646,0.845337,
-5.75256,0.85907,
-5.75562,0.866699,
-5.76324,0.862122,
-5.76172,0.856018,
-5.76324,0.848389,
-5.7663,0.857544,
-5.76782,0.857544,
-5.77087,0.85907,
-5.77087,0.849915,
-5.78003,0.845337,
-5.78461,0.857544,
-5.78766,0.863647,
-5.79376,0.863647,
-5.79529,0.856018,
-5.80139,0.848389,
-5.80444,0.854492,
-5.80902,0.860596,
-5.81512,0.85907,
-5.81818,0.85144,
-5.81818,0.848389,
-5.82123,0.863647,
-5.82275,0.85907,
-5.82428,0.85907,
-5.83344,0.85907,
-5.83954,0.845337,
-5.84412,0.857544,
-5.85022,0.860596,
-5.84717,0.856018,
-5.8548,0.848389,
-5.8548,0.848389,
-5.85632,0.854492,
-5.85785,0.860596,
-5.86395,0.85907,
-5.87006,0.845337,
-5.87158,0.845337,
-5.87311,0.85907,
-5.87311,0.857544,
-5.87616,0.860596,
-5.87616,0.854492,
-5.88226,0.85144,
-5.88684,0.85144,
-5.88226,0.85907,
-5.88684,0.856018,
-5.88684,0.85144,
-5.89142,0.85144,
-5.88989,0.857544,
-5.88684,0.862122,
-5.88684,0.848389,
-5.88837,0.846863,
-5.89142,0.854492,
-5.89294,0.854492,
-5.896,0.85144,
-5.89752,0.856018,
-5.89905,0.845337,
-5.89905,0.854492,
-5.9021,0.85907,
-5.90363,0.863647,
-5.90668,0.856018,
-5.91125,0.848389,
-5.91583,0.849915,
-5.92194,0.857544,
-5.92499,0.865173,
-5.92804,0.849915,
-5.92804,0.836182,
-5.92957,0.848389,
-5.93567,0.857544,
-5.93567,0.860596,
-5.93719,0.849915,
-5.93872,0.846863,
-5.94025,0.854492,
-5.94788,0.856018,
-5.94788,0.865173,
-5.95398,0.85144,
-5.95398,0.846863,
-5.95856,0.845337,
-5.96161,0.857544,
-5.96619,0.857544,
-5.96466,0.848389,
-5.97229,0.854492,
-5.97229,0.849915,
-5.97534,0.857544,
-5.97992,0.857544,
-5.98602,0.856018,
-5.9906,0.85144,
-5.99365,0.846863,
-5.99518,0.846863,
-5.9906,0.863647,
-5.99365,0.85144,
-5.99213,0.846863,
-5.99518,0.846863,
-5.99823,0.860596,
-5.99976,0.856018,
-5.99976,0.846863,
-6.00739,0.849915,
-6.00586,0.846863,
-6.00891,0.860596,
-6.01807,0.85907,
-6.01807,0.854492,
-6.02112,0.85144,
-6.02417,0.845337,
-6.02875,0.856018,
-6.03485,0.854492,
-6.03485,0.854492,
-6.04401,0.848389,
-6.04706,0.846863,
-6.05011,0.865173,
-6.05316,0.85907,
-6.05927,0.857544,
-6.06079,0.842285,
-6.06689,0.846863,
-6.07452,0.85144,
-6.08215,0.85144,
-6.08521,0.85144,
-6.08673,0.85144,
-6.09283,0.854492,
-6.09589,0.85907,
-6.09894,0.857544,
-6.10046,0.857544,
-6.10657,0.842285,
-6.10504,0.849915,
-6.10809,0.848389,
-6.10962,0.85907,
-6.10962,0.857544,
-6.11267,0.849915,
-6.11572,0.849915,
-6.11572,0.856018,
-6.11725,0.856018,
-6.12335,0.848389,
-6.12793,0.843811,
-6.13251,0.85144,
-6.13098,0.85907,
-6.13556,0.857544,
-6.14166,0.854492,
-6.14624,0.843811,
-6.14777,0.846863,
-6.15082,0.857544,
-6.15387,0.860596,
-6.15387,0.854492,
-6.15997,0.839233,
-6.16455,0.85144,
-6.16913,0.857544,
-6.17218,0.860596,
-6.17371,0.85144,
-6.17371,0.843811,
-6.17828,0.857544,
-6.17676,0.839233,
-6.17523,0.865173,
-6.17828,0.860596,
-6.17218,0.845337,
-6.17218,0.846863,
-6.16455,0.854492,
-6.1615,0.856018,
-6.15234,0.849915,
-6.14014,0.846863,
-6.13251,0.848389,
-6.1203,0.854492,
-6.10504,0.862122,
-6.08826,0.854492,
-6.07452,0.854492,
-6.05927,0.843811,
-6.04401,0.857544,
-6.03027,0.857544,
-6.01654,0.843811,
-5.99823,0.854492,
-5.98602,0.85144,
-5.97076,0.85907,
-5.95856,0.857544,
-5.94482,0.85144,
-5.93262,0.846863,
-5.92194,0.843811,
-5.91125,0.860596,
-5.90363,0.85907,
-5.88837,0.856018,
-5.87769,0.849915,
-5.867,0.840759,
-5.8609,0.860596,
-5.85022,0.85144,
-5.84564,0.854492,
-5.83496,0.848389,
-5.83038,0.845337,
-5.82428,0.860596,
-5.82275,0.85907,
-5.81665,0.856018,
-5.81207,0.849915,
-5.80444,0.848389,
-5.80292,0.857544,
-5.80292,0.85144,
-5.80597,0.843811,
-5.80292,0.848389,
-5.80292,0.848389,
-5.79529,0.857544,
-5.79224,0.854492,
-5.78766,0.854492,
-5.78613,0.839233,
-5.78461,0.848389,
-5.78918,0.85144,
-5.78613,0.85907,
-5.78461,0.87738,
-5.78308,0.848389,
-5.77698,0.848389,
-5.77698,0.857544,
-5.77698,0.856018,
-5.77393,0.85144,
-5.77698,0.845337,
-5.77393,0.849915,
-5.77545,0.865173,
-5.77393,0.85907,
-5.78003,0.856018,
-5.78461,0.848389,
-5.79071,0.854492,
-5.79224,0.857544,
-5.79376,0.854492,
-5.79071,0.854492,
-5.79529,0.845337,
-5.79224,0.85144,
-5.79224,0.860596,
-5.79071,0.860596,
-5.78766,0.856018,
-5.78308,0.845337,
-5.78461,0.85144,
-5.78461,0.854492,
-5.77545,0.857544,
-5.78003,0.85144,
-5.77698,0.846863,
-5.77698,0.85144,
-5.7724,0.85907,
-5.7663,0.856018,
-5.76477,0.854492,
-5.76324,0.845337,
-5.75867,0.849915,
-5.75714,0.85144,
-5.75104,0.862122,
-5.75104,0.857544,
-5.74493,0.848389,
-5.74493,0.85144,
-5.74188,0.857544,
-5.73883,0.856018,
-5.73883,0.846863,
-5.73425,0.845337,
-5.7312,0.856018,
-5.72815,0.854492,
-5.72357,0.860596,
-5.72662,0.856018,
-5.72662,0.845337,
-5.7251,0.85144,
-5.7251,0.856018,
-5.72357,0.856018,
-5.7251,0.854492,
-5.72357,0.849915,
-5.72815,0.854492,
-5.7312,0.857544,
-5.72815,0.860596,
-5.72662,0.857544,
-5.72357,0.849915,
-5.71899,0.846863,
-5.71899,0.857544,
-5.72205,0.857544,
-5.72357,0.849915,
-5.71899,0.848389,
-5.72205,0.854492,
-5.7251,0.857544,
-5.72815,0.860596,
-5.72968,0.857544,
-5.73578,0.849915,
-5.73425,0.843811,
-5.73273,0.854492,
-5.73273,0.860596,
-5.73578,0.854492,
-5.73425,0.834656,
-5.7373,0.85144,
-5.74341,0.85907,
-5.74493,0.857544,
-5.74646,0.854492,
-5.75562,0.848389,
-5.75714,0.845337,
-5.76019,0.856018,
-5.76935,0.860596,
-5.76782,0.85144,
-5.76935,0.849915,
-5.7724,0.857544,
-5.77698,0.857544,
-5.77393,0.85907,
-5.77698,0.856018,
-5.77698,0.854492,
-5.78461,0.848389,
-5.78766,0.85907,
-5.78918,0.868225,
-5.79224,0.860596,
-5.79987,0.85144,
-5.80139,0.849915,
-5.80597,0.860596,
-5.81207,0.854492,
-5.81665,0.854492,
-5.82123,0.848389,
-5.82581,0.846863,
-5.82581,0.862122,
-5.83191,0.863647,
-5.83344,0.857544,
-5.84259,0.849915,
-5.84412,0.849915,
-5.84869,0.860596,
-5.85175,0.854492,
-5.85327,0.854492,
-5.85938,0.846863,
-5.86243,0.848389,
-5.867,0.860596,
-5.86853,0.862122,
-5.86853,0.860596,
-5.87158,0.849915,
-5.87463,0.849915,
-5.88074,0.862122,
-5.88837,0.857544,
-5.89294,0.857544,
-5.90363,0.846863,
-5.91278,0.856018,
-5.91431,0.860596,
-5.92194,0.880432,
-5.92499,0.854492,
-5.92651,0.849915,
-5.92804,0.854492,
-5.92651,0.860596,
-5.92957,0.860596,
-5.92957,0.857544,
-5.93109,0.849915,
-5.93567,0.856018,
-5.93719,0.854492,
-5.9433,0.862122,
-5.94635,0.857544,
-5.95093,0.845337,
-5.9494,0.85144,
-5.95398,0.860596,
-5.95398,0.857544,
-5.95856,0.85907,
-5.95703,0.85144,
-5.95856,0.856018,
-5.96008,0.85907,
-5.96466,0.85144,
-5.96619,0.85907,
-5.97687,0.845337,
-5.97839,0.878906,
-5.98602,0.860596,
-5.98755,0.860596,
-5.9906,0.862122,
-5.99518,0.85144,
-5.99518,0.854492,
-5.99823,0.85907,
-5.99823,0.860596,
-5.99823,0.863647,
-5.99823,0.846863,
-5.99518,0.85907,
-5.9967,0.863647,
-5.99823,0.865173,
-6.00128,0.863647,
-6.00433,0.848389,
-6.00739,0.863647,
-6.00739,0.854492,
-6.00586,0.849915,
-6.01349,0.857544,
-6.01654,0.846863,
-6.02112,0.857544,
-6.02112,0.85907,
-6.02417,0.865173,
-6.02722,0.862122,
-6.02722,0.843811,
-6.02875,0.85907,
-6.02875,0.857544,
-6.03027,0.856018,
-6.02875,0.860596,
-6.03333,0.848389,
-6.03638,0.860596,
-6.03638,0.862122,
-6.04248,0.860596,
-6.04553,0.862122,
-6.05164,0.848389,
-6.05621,0.85907,
-6.06384,0.854492,
-6.06384,0.862122,
-6.073,0.862122,
-6.07758,0.848389,
-6.08063,0.85907,
-6.08521,0.860596,
-6.08826,0.863647,
-6.08978,0.85907,
-6.09131,0.849915,
-6.09283,0.857544,
-6.09283,0.85907,
-6.09283,0.865173,
-6.09436,0.860596,
-6.09283,0.849915,
-6.09283,0.85907,
-6.10199,0.862122,
-6.10657,0.860596,
-6.10657,0.857544,
-6.1142,0.848389,
-6.11572,0.856018,
-6.1203,0.85907,
-6.12793,0.866699,
-6.13403,0.863647,
-6.13708,0.857544,
-6.13556,0.862122,
-6.14166,0.860596,
-6.14319,0.845337,
-6.14624,0.854492,
-6.14929,0.854492,
-6.15845,0.85144,
-6.1615,0.854492,
-6.17065,0.874329,
-6.17065,0.862122,
-6.17218,0.872803,
-6.17828,0.85907,
-6.18134,0.862122,
-6.17981,0.866699,
-6.17828,0.860596,
-6.17523,0.849915,
-6.17371,0.85907,
-6.17218,0.863647,
-6.1676,0.869751,
-6.16302,0.863647,
-6.15692,0.85144,
-6.14319,0.854492,
-6.13098,0.863647,
-6.11877,0.865173,
-6.10809,0.856018,
-6.09436,0.854492,
-6.08063,0.860596,
-6.07147,0.860596,
-6.05774,0.868225,
-6.04401,0.860596,
-6.03027,0.85144,
-6.01959,0.85907,
-6.00281,0.860596,
-5.9906,0.865173,
-5.97687,0.862122,
-5.96313,0.854492,
-5.95093,0.85907,
-5.93719,0.862122,
-5.92499,0.866699,
-5.91125,0.863647,
-5.89752,0.854492,
-5.88684,0.856018,
-5.88074,0.863647,
-5.87311,0.868225,
-5.86853,0.860596,
-5.867,0.857544,
-5.8609,0.863647,
-5.85785,0.865173,
-5.85632,0.868225,
-5.8548,0.862122,
-5.85632,0.85144,
-5.85327,0.85907,
-5.85327,0.848389,
-5.85327,0.869751,
-5.85175,0.871277,
-5.85327,0.869751,
-5.85327,0.85907,
-5.8548,0.85144,
-5.85327,0.872803,
-5.85785,0.862122,
-5.85938,0.85144,
-5.86395,0.843811,
-5.867,0.865173,
-5.87006,0.872803,
-5.86853,0.85907,
-5.867,0.85907,
-5.867,0.854492,
-5.86395,0.865173,
-5.86243,0.865173,
-5.86395,0.865173,
-5.86395,0.854492,
-5.87006,0.857544,
-5.87158,0.868225,
-5.87921,0.869751,
-5.87463,0.865173,
-5.87921,0.856018,
-5.87311,0.857544,
-5.87616,0.866699,
-5.87463,0.872803,
-5.87616,0.862122,
-5.88074,0.857544,
-5.88226,0.863647,
-5.88531,0.866699,
-5.88531,0.869751,
-5.88837,0.866699,
-5.88989,0.85144,
-5.896,0.854492,
-5.896,0.863647,
-5.89294,0.863647,
-5.89752,0.869751,
-5.89294,0.854492,
-5.89142,0.85907,
-5.88684,0.865173,
-5.88531,0.866699,
-5.88379,0.862122,
-5.87921,0.848389,
-5.88074,0.860596,
-5.88531,0.863647,
-5.88379,0.863647,
-5.88531,0.868225,
-5.88684,0.856018,
-5.88074,0.860596,
-5.87616,0.863647,
-5.87311,0.865173,
-5.86853,0.866699,
-5.86243,0.849915,
-5.85632,0.863647,
-5.85022,0.866699,
-5.84412,0.857544,
-5.83954,0.888062,
-5.83954,0.85144,
-5.83038,0.857544,
-5.82581,0.862122,
-5.81818,0.863647,
-5.81512,0.865173,
-5.8136,0.849915,
-5.8136,0.85907,
-5.81207,0.863647,
-5.81207,0.866699,
-5.81207,0.866699,
-5.81512,0.85144,
-5.81207,0.85907,
-5.81207,0.860596,
-5.81512,0.862122,
-5.81512,0.863647,
-5.81665,0.848389,
-5.82428,0.85907,
-5.82886,0.863647,
-5.82886,0.869751,
-5.83038,0.866699,
-5.83191,0.85144,
-5.83801,0.85907,
-5.83801,0.85907,
-5.83954,0.862122,
-5.84717,0.866699,
-5.85022,0.848389,
-5.84869,0.863647,
-5.85632,0.862122,
-5.85785,0.872803,
-5.85785,0.863647,
-5.85938,0.85144,
-5.85785,0.860596,
-5.85785,0.857544,
-5.86243,0.869751,
-5.85938,0.863647,
-5.86243,0.848389,
-5.86395,0.85907,
-5.86395,0.863647,
-5.867,0.871277,
-5.87006,0.865173,
-5.87158,0.848389,
-5.87463,0.860596,
-5.87311,0.85907,
-5.88074,0.868225,
-5.88226,0.865173,
-5.88379,0.85144,
-5.88379,0.860596,
-5.88989,0.862122,
-5.88989,0.871277,
-5.89294,0.862122,
-5.90057,0.854492,
-5.9021,0.860596,
-5.90363,0.857544,
-5.90973,0.871277,
-5.91278,0.866699,
-5.91583,0.854492,
-5.92194,0.860596,
-5.92804,0.860596,
-5.92957,0.869751,
-5.93872,0.862122,
-5.94025,0.85144,
-5.9433,0.85907,
-5.94788,0.857544,
-5.94788,0.865173,
-5.95703,0.871277,
-5.95703,0.854492,
-5.96161,0.860596,
-5.96466,0.862122,
-5.96771,0.869751,
-5.96771,0.857544,
-5.96771,0.874329,
-5.96771,0.860596,
-5.96771,0.857544,
-5.96924,0.871277,
-5.97076,0.865173,
-5.97687,0.85144,
-5.97992,0.866699,
-5.9845,0.862122,
-5.9845,0.865173,
-5.98755,0.849915,
-5.9906,0.85144,
-5.99213,0.860596,
-5.9967,0.863647,
-5.9967,0.874329,
-5.9967,0.865173,
-6.00128,0.854492,
-5.99518,0.883484,
-5.99823,0.854492,
-5.99976,0.868225,
-6.00281,0.860596,
-6.00586,0.85144,
-6.00586,0.862122,
-6.00891,0.860596,
-6.01501,0.872803,
-6.02417,0.866699,
-6.02417,0.854492,
-6.0257,0.85907,
-6.0318,0.860596,
-6.0379,0.868225,
-6.04248,0.862122,
-6.04401,0.854492,
-6.04553,0.85907,
-6.04248,0.862122,
-6.04248,0.872803,
-6.04095,0.868225,
-6.03485,0.856018,
-6.04095,0.857544,
-6.04248,0.863647,
-6.04095,0.869751,
-6.04553,0.865173,
-6.04706,0.862122,
-6.04553,0.865173,
-6.05164,0.863647,
-6.05469,0.860596,
-6.05927,0.892639,
-6.05621,0.85144,
-6.05927,0.854492,
-6.05927,0.860596,
-6.06232,0.869751,
-6.06689,0.860596,
-6.07452,0.849915,
-6.0791,0.862122,
-6.08063,0.862122,
-6.08215,0.871277,
-6.08368,0.866699,
-6.08521,0.854492,
-6.08521,0.85144,
-6.09436,0.860596,
-6.09131,0.871277,
-6.10199,0.862122,
-6.10352,0.860596,
-6.11115,0.862122,
-6.11572,0.866699,
-6.12183,0.869751,
-6.12793,0.865173,
-6.13098,0.849915,
-6.13556,0.856018,
-6.14319,0.862122,
-6.14624,0.868225,
-6.15234,0.865173,
-6.15082,0.857544,
-6.15997,0.863647,
-6.16302,0.863647,
-6.1676,0.871277,
-6.16455,0.869751,
-6.1676,0.85144,
-6.17218,0.856018,
-6.17065,0.865173,
-6.17523,0.869751,
-6.17371,0.866699,
-6.17828,0.85144,
-6.18744,0.85907,
-6.18744,0.866699,
-6.19354,0.869751,
-6.19659,0.865173,
-6.19507,0.854492,
-6.19659,0.856018,
-6.19659,0.865173,
-6.19202,0.874329,
-6.19049,0.865173,
-6.17981,0.85907,
-6.17218,0.862122,
-6.16455,0.869751,
-6.15234,0.869751,
-6.14777,0.865173,
-6.14166,0.85144,
-6.13556,0.85907,
-6.12183,0.868225,
-6.1142,0.871277,
-6.10657,0.868225,
-6.09894,0.856018,
-6.08826,0.857544,
-6.08063,0.862122,
-6.06689,0.872803,
-6.05469,0.868225,
-6.04553,0.854492,
-6.03333,0.857544,
-6.0257,0.868225,
-6.01959,0.871277,
-6.00891,0.868225,
-6.00281,0.85907,
-5.9967,0.860596,
-5.98907,0.865173,
-5.98297,0.866699,
-5.97992,0.868225,
-5.97534,0.856018,
-5.97839,0.85907,
-5.97992,0.865173,
-5.97992,0.871277,
-5.97992,0.868225,
-5.9845,0.856018,
-5.97839,0.863647,
-5.9845,0.866699,
-5.97992,0.868225,
-5.98297,0.868225,
-5.9845,0.857544,
-5.9845,0.85907,
-5.98755,0.868225,
-5.99365,0.869751,
-5.99213,0.871277,
-5.99823,0.857544,
-5.9967,0.862122,
-5.9967,0.866699,
-5.9967,0.868225,
-5.99365,0.866699,
-5.98907,0.856018,
-5.99213,0.854492,
-5.98755,0.869751,
-5.98907,0.874329,
-5.98755,0.869751,
-5.98602,0.856018,
-5.98602,0.865173,
-5.9906,0.862122,
-5.99213,0.856018,
-5.99365,0.865173,
-5.99213,0.854492,
-5.9906,0.862122,
-5.99365,0.862122,
-5.99365,0.869751,
-5.99365,0.871277,
-5.99365,0.857544,
-5.99365,0.85907,
-5.99518,0.868225,
-5.99365,0.868225,
-5.99365,0.869751,
-5.9906,0.854492,
-5.98907,0.863647,
-5.98907,0.866699,
-5.98907,0.872803,
-5.99213,0.872803,
-5.99213,0.857544,
-5.99518,0.860596,
-5.99976,0.868225,
-6.00281,0.868225,
-6.00281,0.872803,
-6.00739,0.88501,
-6.00433,0.860596,
-6.00891,0.869751,
-6.00739,0.874329,
-6.01501,0.871277,
-6.01349,0.857544,
-6.01807,0.866699,
-6.01654,0.869751,
-6.01349,0.868225,
-6.00739,0.871277,
-6.00281,0.863647,
-6.00128,0.863647,
-5.99823,0.866699,
-5.99518,0.868225,
-5.99213,0.872803,
-5.9906,0.854492,
-5.98755,0.878906,
-5.98602,0.865173,
-5.97992,0.868225,
-5.98297,0.871277,
-5.97839,0.862122,
-5.97534,0.866699,
-5.97229,0.869751,
-5.97534,0.895691,
-5.97534,0.860596,
-5.97382,0.856018,
-5.97382,0.865173,
-5.97382,0.869751,
-5.97382,0.871277,
-5.97534,0.880432,
-5.97687,0.856018,
-5.98297,0.88501,
-5.98602,0.872803,
-5.9906,0.872803,
-5.99213,0.871277,
-5.99823,0.854492,
-5.99823,0.866699,
-6.00281,0.869751,
-6.00281,0.872803,
-6.00586,0.875854,
-6.00739,0.862122,
-6.00739,0.869751,
-6.00891,0.868225,
-6.01349,0.875854,
-6.01349,0.869751,
-6.01654,0.85907,
-6.01501,0.871277,
-6.01654,0.872803,
-6.01501,0.874329,
-6.01501,0.878906,
-6.01959,0.862122,
-6.01959,0.868225,
-6.02264,0.872803,
-6.02112,0.871277,
-6.02112,0.875854,
-6.02112,0.854492,
-6.02112,0.869751,
-6.02112,0.872803,
-6.0257,0.878906,
-6.02417,0.878906,
-6.02112,0.85907,
-6.02112,0.872803,
-6.01959,0.871277,
-6.01807,0.865173,
-6.01501,0.869751,
-6.01349,0.857544,
-6.01349,0.871277,
-6.01807,0.874329,
-6.02112,0.875854,
-6.01959,0.87738,
-6.02112,0.878906,
-6.02417,0.871277,
-6.02112,0.871277,
-6.02417,0.875854,
-6.02722,0.875854,
-6.02875,0.857544,
-6.03485,0.869751,
-6.04095,0.874329,
-6.04401,0.874329,
-6.04706,0.878906,
-6.04706,0.860596,
-6.05316,0.874329,
-6.05316,0.869751,
-6.05164,0.874329,
-6.05469,0.874329,
-6.05621,0.85907,
-6.05621,0.87738,
-6.05774,0.874329,
-6.05621,0.87738,
-6.05164,0.875854,
-6.05469,0.863647,
-6.05316,0.875854,
-6.05316,0.863647,
-6.05469,0.88501,
-6.05316,0.87738,
-6.05621,0.860596,
-6.05774,0.874329,
-6.06079,0.875854,
-6.06995,0.878906,
-6.06537,0.880432,
-6.07147,0.860596,
-6.07452,0.875854,
-6.0791,0.868225,
-6.08215,0.880432,
-6.08521,0.87738,
-6.08978,0.863647,
-6.09131,0.874329,
-6.09436,0.880432,
-6.10046,0.883484,
-6.10504,0.87738,
-6.10962,0.863647,
-6.11877,0.872803,
-6.12183,0.868225,
-6.12793,0.880432,
-6.12946,0.880432,
-6.12946,0.863647,
-6.13556,0.872803,
-6.13708,0.869751,
-6.14166,0.878906,
-6.14777,0.872803,
-6.14777,0.863647,
-6.15387,0.874329,
-6.15692,0.872803,
-6.15997,0.88501,
-6.16302,0.88501,
-6.1676,0.868225,
-6.1676,0.874329,
-6.17371,0.869751,
-6.17523,0.878906,
-6.17828,0.869751,
-6.17981,0.862122,
-6.18591,0.872803,
-6.17981,0.871277,
-6.18591,0.88501,
-6.19049,0.880432,
-6.19659,0.863647,
-6.19965,0.872803,
-6.2027,0.869751,
-6.20728,0.871277,
-6.20728,0.871277,
-6.2149,0.869751,
-6.21948,0.875854,
-6.22101,0.872803,
-6.22711,0.880432,
-6.23169,0.87738,
-6.23474,0.868225,
-6.23627,0.880432,
-6.23474,0.875854,
-6.23779,0.88501,
-6.23627,0.87738,
-6.23627,0.869751,
-6.22864,0.87738,
-6.22101,0.880432,
-6.21643,0.880432,
-6.20575,0.87738,
-6.20117,0.866699,
-6.19202,0.872803,
-6.18591,0.878906,
-6.17523,0.88501,
-6.1676,0.87738,
-6.15692,0.872803,
-6.14471,0.875854,
-6.13861,0.878906,
-6.12335,0.883484,
-6.11572,0.880432,
-6.10352,0.866699,
-6.09894,0.871277,
-6.09131,0.883484,
-6.08215,0.88501,
-6.07452,0.898743,
-6.06079,0.875854,
-6.05164,0.875854,
-6.04553,0.880432,
-6.03638,0.886536,
-6.03027,0.880432,
-6.02417,0.865173,
-6.01959,0.871277,
-6.01501,0.88501,
-6.01196,0.888062,
-6.00739,0.883484,
-5.99976,0.872803,
-6.00128,0.874329,
-5.99518,0.883484,
-5.9906,0.875854,
-5.98907,0.88501,
-5.98755,0.868225,
-5.97992,0.872803,
-5.97687,0.883484,
-5.97076,0.886536,
-5.97076,0.888062,
-5.96771,0.871277,
-5.96771,0.87738,
-5.96771,0.888062,
-5.96466,0.880432,
-5.96466,0.883484,
-5.96313,0.871277,
-5.96161,0.871277,
-5.95856,0.883484,
-5.95856,0.886536,
-5.95398,0.883484,
-5.95093,0.872803,
-5.9494,0.875854,
-5.94788,0.87738,
-5.94788,0.883484,
-5.9494,0.886536,
-5.95093,0.872803,
-5.9494,0.874329,
-5.95398,0.88501,
-5.95551,0.88501,
-5.95703,0.886536,
-5.96008,0.874329,
-5.96161,0.883484,
-5.96466,0.883484,
-5.96466,0.88501,
-5.96771,0.888062,
-5.97076,0.87738,
-5.97382,0.875854,
-5.97687,0.880432,
-5.98297,0.888062,
-5.97992,0.88501,
-5.97839,0.871277,
-5.98602,0.878906,
-5.98755,0.883484,
-5.98907,0.886536,
-5.99213,0.88501,
-5.98907,0.874329,
-5.9906,0.875854,
-5.98755,0.880432,
-5.98907,0.888062,
-5.98907,0.88501,
-5.98602,0.874329,
-5.98297,0.87738,
-5.97992,0.883484,
-5.97687,0.888062,
-5.97687,0.886536,
-5.97534,0.872803,
-5.97229,0.878906,
-5.97229,0.880432,
-5.97076,0.889587,
-5.97076,0.888062,
-5.96619,0.874329,
-5.96313,0.880432,
-5.96313,0.88501,
-5.96619,0.889587,
-5.96619,0.886536,
-5.96619,0.875854,
-5.96771,0.87738,
-5.96924,0.886536,
-5.97229,0.888062,
-5.97076,0.888062,
-5.97687,0.874329,
-5.97687,0.87738,
-5.97839,0.883484,
-5.98297,0.88501,
-5.98755,0.888062,
-5.99213,0.875854,
-5.99365,0.872803,
-5.99518,0.888062,
-6.00128,0.888062,
-6.00128,0.888062,
-6.00281,0.874329,
-6.00128,0.878906,
-6.00433,0.886536,
-6.00281,0.883484,
-6.00586,0.891113,
-6.00433,0.878906,
-6.00433,0.883484,
-6.00433,0.888062,
-6.01196,0.888062,
-6.00891,0.892639,
-6.01196,0.869751,
-6.01807,0.878906,
-6.01501,0.880432,
-6.01654,0.888062,
-6.01654,0.891113,
-6.02112,0.87738,
-6.02112,0.883484,
-6.02722,0.886536,
-6.03333,0.889587,
-6.03333,0.888062,
-6.0379,0.875854,
-6.04248,0.880432,
-6.0379,0.88501,
-6.04248,0.886536,
-6.04706,0.888062,
-6.04858,0.878906,
-6.05011,0.883484,
-6.05164,0.883484,
-6.05621,0.889587,
-6.05927,0.891113,
-6.06079,0.875854,
-6.06232,0.880432,
-6.06537,0.886536,
-6.06537,0.889587,
-6.06537,0.888062,
-6.06995,0.875854,
-6.07147,0.886536,
-6.06995,0.883484,
-6.073,0.889587,
-6.07452,0.891113,
-6.07147,0.872803,
-6.06689,0.880432,
-6.07605,0.888062,
-6.07605,0.891113,
-6.07758,0.891113,
-6.07452,0.875854,
-6.0791,0.883484,
-6.08215,0.88501,
-6.08215,0.891113,
-6.08521,0.891113,
-6.08673,0.87738,
-6.08978,0.886536,
-6.09283,0.889587,
-6.09894,0.892639,
-6.10046,0.891113,
-6.10046,0.87738,
-6.10352,0.880432,
-6.09894,0.88501,
-6.09589,0.886536,
-6.09589,0.888062,
-6.09589,0.878906,
-6.09894,0.886536,
-6.09436,0.888062,
-6.09894,0.892639,
-6.10504,0.891113,
-6.10657,0.874329,
-6.10962,0.880432,
-6.1142,0.891113,
-6.11877,0.889587,
-6.12335,0.889587,
-6.12946,0.87738,
-6.13098,0.888062,
-6.13251,0.888062,
-6.13403,0.891113,
-6.13861,0.889587,
-6.14319,0.875854,
-6.14777,0.883484,
-6.15082,0.883484,
-6.15997,0.889587,
-6.16455,0.891113,
-6.16913,0.874329,
-6.17065,0.88501,
-6.17523,0.888062,
-6.17523,0.889587,
-6.17828,0.888062,
-6.18134,0.87738,
-6.18744,0.880432,
-6.19354,0.886536,
-6.19659,0.888062,
-6.19965,0.891113,
-6.20575,0.874329,
-6.20728,0.886536,
-6.2088,0.886536,
-6.21643,0.892639,
-6.21948,0.886536,
-6.22253,0.875854,
-6.22864,0.886536,
-6.23627,0.88501,
-6.24542,0.891113,
-6.24695,0.891113,
-6.25305,0.883484,
-6.26068,0.895691,
-6.26373,0.880432,
-6.26984,0.889587,
-6.28052,0.88501,
-6.28204,0.875854,
-6.28967,0.883484,
-6.28967,0.886536,
-6.29425,0.891113,
-6.2973,0.872803,
-6.30188,0.878906,
-6.30646,0.875854,
-6.30646,0.886536,
-6.30646,0.888062,
-6.31104,0.888062,
-6.30951,0.874329,
-6.30951,0.912476,
-6.30951,0.889587,
-6.30646,0.894165,
-6.30493,0.889587,
-6.29883,0.87738,
-6.29578,0.880432,
-6.29425,0.888062,
-6.2851,0.894165,
-6.27747,0.883484,
-6.27441,0.883484,
-6.26526,0.88501,
-6.25153,0.888062,
-6.2439,0.892639,
-6.23322,0.891113,
-6.22253,0.878906,
-6.21185,0.88501,
-6.20422,0.886536,
-6.19202,0.891113,
-6.17828,0.886536,
-6.17218,0.87738,
-6.16455,0.880432,
-6.1615,0.892639,
-6.15387,0.894165,
-6.14471,0.906372,
-6.13861,0.880432,
-6.13708,0.888062,
-6.13251,0.888062,
-6.12183,0.891113,
-6.11877,0.88501,
-6.11572,0.875854,
-6.10962,0.886536,
-6.10809,0.88501,
-6.10504,0.892639,
-6.10046,0.892639,
-6.10046,0.880432,
-6.09894,0.883484,
-6.09589,0.88501,
-6.09283,0.898743,
-6.09283,0.874329,
-6.08826,0.880432,
-6.08673,0.880432,
-6.08826,0.886536,
-6.08368,0.895691,
-6.08215,0.892639,
-6.0791,0.878906,
-6.08368,0.878906,
-6.08063,0.889587,
-6.08063,0.889587,
-6.07758,0.883484,
-6.07605,0.878906,
-6.07605,0.888062,
-6.073,0.889587,
-6.07452,0.891113,
-6.073,0.888062,
-6.0791,0.875854,
-6.0791,0.878906,
-6.0791,0.889587,
-6.08215,0.894165,
-6.08521,0.886536,
-6.08368,0.88501,
-6.08521,0.88501,
-6.08673,0.888062,
-6.08521,0.892639,
-6.08826,0.888062,
-6.08826,0.880432,
-6.09131,0.880432,
-6.08978,0.888062,
-6.08826,0.891113,
-6.09131,0.886536,
-6.08521,0.874329,
-6.09131,0.880432,
-6.09131,0.891113,
-6.09436,0.889587,
-6.09894,0.88501,
-6.10046,0.878906,
-6.10352,0.868225,
-6.10352,0.891113,
-6.10809,0.889587,
-6.10657,0.888062,
-6.11267,0.878906,
-6.10962,0.88501,
-6.11115,0.888062,
-6.11267,0.888062,
-6.10962,0.888062,
-6.10809,0.87738,
-6.10352,0.880432,
-6.10352,0.889587,
-6.10199,0.892639,
-6.10046,0.889587,
-6.10199,0.87738,
-6.10352,0.878906,
-6.10046,0.88501,
-6.09436,0.88501,
-6.09131,0.894165,
-6.09436,0.878906,
-6.08978,0.886536,
-6.09283,0.892639,
-6.09283,0.889587,
-6.09283,0.888062,
-6.09436,0.875854,
-6.09894,0.878906,
-6.09894,0.889587,
-6.10352,0.888062,
-6.10199,0.892639,
-6.10504,0.880432,
-6.10962,0.874329,
-6.1142,0.889587,
-6.11572,0.889587,
-6.11877,0.878906,
-6.12488,0.87738,
-6.12335,0.875854,
-6.13251,0.891113,
-6.13098,0.88501,
-6.13861,0.891113,
-6.14166,0.880432,
-6.14319,0.897217,
-6.14319,0.891113,
-6.14624,0.889587,
-6.14929,0.889587,
-6.15997,0.87738,
-6.16302,0.878906,
-6.16455,0.888062,
-6.1615,0.889587,
-6.16455,0.883484,
-6.16608,0.87738,
-6.1676,0.87738,
-6.17065,0.892639,
-6.17065,0.891113,
-6.17218,0.889587,
-6.17218,0.880432,
-6.17371,0.880432,
-6.17371,0.886536,
-6.17523,0.889587,
-6.17828,0.888062,
-6.17828,0.880432,
-6.17828,0.883484,
-6.17981,0.889587,
-6.18134,0.891113,
-6.18134,0.88501,
-6.18744,0.87738,
-6.18896,0.878906,
-6.18896,0.889587,
-6.19202,0.888062,
-6.19507,0.888062,
-6.2027,0.880432,
-6.2088,0.883484,
-6.21643,0.886536,
-6.2149,0.886536,
-6.21948,0.888062,
-6.22101,0.87738,
-6.22101,0.883484,
-6.22101,0.88501,
-6.22711,0.888062,
-6.23016,0.886536,
-6.23322,0.874329,
-6.23932,0.883484,
-6.24847,0.888062,
-6.25153,0.888062,
-6.25916,0.914001,
-6.26221,0.875854,
-6.26678,0.886536,
-6.27289,0.886536,
-6.26984,0.891113,
-6.27289,0.880432,
-6.27441,0.880432,
-6.27747,0.88501,
-6.28357,0.888062,
-6.28204,0.886536,
-6.2851,0.889587,
-6.2912,0.87738,
-6.2912,0.889587,
-6.29272,0.886536,
-6.29272,0.888062,
-6.29883,0.886536,
-6.29578,0.875854,
-6.29578,0.87738,
-6.30646,0.880432,
-6.30951,0.889587,
-6.31256,0.886536,
-6.32172,0.880432,
-6.32477,0.88501,
-6.32782,0.886536,
-6.33392,0.891113,
-6.3385,0.886536,
-6.34155,0.880432,
-6.34766,0.880432,
-6.35071,0.888062,
-6.35376,0.888062,
-6.36139,0.886536,
-6.36292,0.880432,
-6.36902,0.883484,
-6.37054,0.886536,
-6.37665,0.891113,
-6.37817,0.883484,
-6.3797,0.878906,
-6.3858,0.88501,
-6.3858,0.886536,
-6.38885,0.894165,
-6.3858,0.888062,
-6.38885,0.878906,
-6.39648,0.88501,
-6.39801,0.888062,
-6.40106,0.891113,
-6.41022,0.88501,
-6.41174,0.883484,
-6.41785,0.883484,
-6.4209,0.88501,
-6.42395,0.891113,
-6.427,0.888062,
-6.43463,0.880432,
-6.43616,0.878906,
-6.43768,0.886536,
-6.44073,0.891113,
-6.44226,0.889587,
-6.44226,0.878906,
-6.44836,0.88501,
-6.44684,0.880432,
-6.44989,0.892639,
-6.44836,0.888062,
-6.45142,0.883484,
-6.45447,0.880432,
-6.45142,0.88501,
-6.45142,0.891113,
-6.45752,0.883484,
-6.45905,0.880432,
-6.46362,0.886536,
-6.46362,0.88501,
-6.46667,0.889587,
-6.46667,0.886536,
-6.47125,0.886536,
-6.47736,0.88501,
-6.48041,0.87738,
-6.48193,0.891113,
-6.48193,0.88501,
-6.48193,0.883484,
-6.47888,0.88501,
-6.47736,0.889587,
-6.47888,0.889587,
-6.47125,0.886536,
-6.4682,0.878906,
-6.46515,0.880432,
-6.45752,0.892639,
-6.45142,0.90332,
-6.44836,0.88501,
-6.44226,0.88501,
-6.43768,0.88501,
-6.42853,0.889587,
-6.42395,0.889587,
-6.41785,0.87738,
-6.40869,0.883484,
-6.39954,0.878906,
-6.39038,0.886536,
-6.3797,0.892639,
-6.3736,0.889587,
-6.36444,0.886536,
-6.35223,0.88501,
-6.35223,0.892639,
-6.3446,0.888062,
-6.3385,0.886536,
-6.33392,0.883484,
-6.3324,0.888062,
-6.32629,0.892639,
-6.32782,0.892639,
-6.32477,0.880432,
-6.32477,0.883484,
-6.32324,0.888062,
-6.32324,0.888062,
-6.31866,0.888062,
-6.31714,0.888062,
-6.31256,0.888062,
-6.31561,0.883484,
-6.31714,0.891113,
-6.32019,0.880432,
-6.32172,0.892639,
-6.32019,0.880432,
-6.32019,0.883484,
-6.31714,0.886536,
-6.32019,0.889587,
-6.31866,0.886536,
-6.32019,0.88501,
-6.32019,0.889587,
-6.32172,0.888062,
-6.32782,0.894165,
-6.33087,0.889587,
-6.33392,0.883484,
-6.34003,0.889587,
-6.3446,0.891113,
-6.34918,0.891113,
-6.34918,0.886536,
-6.35071,0.874329,
-6.35681,0.88501,
-6.35681,0.889587,
-6.35376,0.894165,
-6.36444,0.889587,
-6.36292,0.883484,
-6.36749,0.883484,
-6.37207,0.909424,
-6.37512,0.894165,
-6.37665,0.891113,
-6.37512,0.88501,
-6.37817,0.889587,
-6.38123,0.892639,
-6.37665,0.888062,
-6.3797,0.891113,
-6.3797,0.878906,
-6.37817,0.88501,
-6.3797,0.888062,
-6.3797,0.891113,
-6.3797,0.892639,
-6.37817,0.883484,
-6.37817,0.888062,
-6.38275,0.891113,
-6.38428,0.892639,
-6.38885,0.891113,
-6.39038,0.88501,
-6.38885,0.891113,
-6.38885,0.892639,
-6.38885,0.892639,
-6.39038,0.892639,
-6.38885,0.888062,
-6.38428,0.888062,
-6.3797,0.895691,
-6.38123,0.892639,
-6.37665,0.889587,
-6.3736,0.878906,
-6.3736,0.872803,
-6.3736,0.888062,
-6.37665,0.898743,
-6.3736,0.889587,
-6.37817,0.874329,
-6.37512,0.892639,
-6.37512,0.88501,
-6.3736,0.920105,
-6.37054,0.878906,
-6.3736,0.889587,
-6.37054,0.889587,
-6.37054,0.892639,
-6.37054,0.892639,
-6.37054,0.891113,
-6.37054,0.889587,
-6.3736,0.892639,
-6.37207,0.892639,
-6.37512,0.894165,
-6.37512,0.889587,
-6.37207,0.886536,
-6.37207,0.889587,
-6.37512,0.895691,
-6.37817,0.897217,
-6.3797,0.889587,
-6.3797,0.880432,
-6.38885,0.889587,
-6.39343,0.886536,
-6.39954,0.894165,
-6.40411,0.892639,
-6.40869,0.88501,
-6.41174,0.891113,
-6.41479,0.892639,
-6.41785,0.897217,
-6.42242,0.889587,
-6.42548,0.886536,
-6.43005,0.891113,
-6.43158,0.891113,
-6.43768,0.90332,
-6.43768,0.897217,
-6.43463,0.888062,
-6.43463,0.892639,
-6.43768,0.891113,
-6.44073,0.897217,
-6.44226,0.888062,
-6.44989,0.888062,
-6.44836,0.894165,
-6.45447,0.892639,
-6.45447,0.897217,
-6.45599,0.894165,
-6.46057,0.888062,
-6.46057,0.889587,
-6.46667,0.892639,
-6.47125,0.898743,
-6.47278,0.891113,
-6.47125,0.889587,
-6.47583,0.88501,
-6.47278,0.889587,
-6.48041,0.897217,
-6.48041,0.895691,
-6.48041,0.888062,
-6.47736,0.891113,
-6.47583,0.894165,
-6.48193,0.90332,
-6.48193,0.895691,
-6.48193,0.889587,
-6.48651,0.892639,
-6.48651,0.895691,
-6.49414,0.900269,
-6.49261,0.894165,
-6.49567,0.888062,
-6.49872,0.892639,
-6.50482,0.892639,
-6.50024,0.898743,
-6.50482,0.891113,
-6.50787,0.888062,
-6.5094,0.889587,
-6.51245,0.895691,
-6.51703,0.900269,
-6.51703,0.900269,
-6.51855,0.891113,
-6.52008,0.892639,
-6.52313,0.894165,
-6.52618,0.898743,
-6.52618,0.891113,
-6.52466,0.886536,
-6.52771,0.895691,
-6.52618,0.897217,
-6.52771,0.90332,
-6.52466,0.891113,
-6.53076,0.891113,
-6.53381,0.888062,
-6.53381,0.894165,
-6.53839,0.897217,
-6.53687,0.889587,
-6.54144,0.894165,
-6.54297,0.892639,
-6.54755,0.898743,
-6.54755,0.898743,
-6.55212,0.892639,
-6.5567,0.894165,
-6.56281,0.888062,
-6.56891,0.897217,
-6.56586,0.898743,
-6.57043,0.889587,
-6.57501,0.889587,
-6.57654,0.891113,
-6.57806,0.897217,
-6.58264,0.898743,
-6.58722,0.894165,
-6.58875,0.889587,
-6.59332,0.895691,
-6.60248,0.889587,
-6.60706,0.898743,
-6.61163,0.889587,
-6.61621,0.889587,
-6.62537,0.892639,
-6.633,0.897217,
-6.63757,0.891113,
-6.64215,0.898743,
-6.64978,0.891113,
-6.64978,0.888062,
-6.65283,0.895691,
-6.65741,0.897217,
-6.65588,0.895691,
-6.65894,0.888062,
-6.65741,0.892639,
-6.65588,0.898743,
-6.65588,0.898743,
-6.65588,0.892639,
-6.65894,0.891113,
-6.66046,0.891113,
-6.66046,0.895691,
-6.65894,0.901794,
-6.65894,0.889587,
-6.65894,0.898743,
-6.65588,0.897217,
-6.65283,0.889587,
-6.65283,0.883484,
-6.65131,0.892639,
-6.64673,0.891113,
-6.6452,0.892639,
-6.64063,0.891113,
-6.633,0.90332,
-6.62689,0.894165,
-6.61774,0.894165,
-6.61163,0.88501,
-6.59943,0.895691,
-6.59332,0.895691,
-6.58417,0.894165,
-6.57349,0.891113,
-6.56433,0.889587,
-6.55518,0.900269,
-6.54449,0.906372,
-6.53076,0.892639,
-6.52466,0.897217,
-6.51245,0.892639,
-6.50482,0.895691,
-6.49261,0.895691,
-6.48346,0.892639,
-6.47736,0.892639,
-6.46667,0.871277,
-6.45905,0.898743,
-6.45294,0.898743,
-6.44684,0.897217,
-6.44379,0.892639,
-6.43463,0.894165,
-6.43311,0.895691,
-6.427,0.897217,
-6.4209,0.894165,
-6.41785,0.892639,
-6.41479,0.892639,
-6.41022,0.898743,
-6.41022,0.897217,
-6.40869,0.900269,
-6.40717,0.891113,
-6.40869,0.894165,
-6.40869,0.898743,
-6.40869,0.897217,
-6.40869,0.897217,
-6.41022,0.894165,
-6.41022,0.895691,
-6.41174,0.895691,
-6.41479,0.888062,
-6.41327,0.898743,
-6.41327,0.891113,
-6.41174,0.894165,
-6.41174,0.901794,
-6.41785,0.883484,
-6.4209,0.897217,
-6.4209,0.886536,
-6.41785,0.895691,
-6.41785,0.897217,
-6.41479,0.897217,
-6.41479,0.897217,
-6.41327,0.880432,
-6.41479,0.891113,
-6.41327,0.897217,
-6.4209,0.897217,
-6.42242,0.898743,
-6.41937,0.891113,
-6.42395,0.894165,
-6.42395,0.897217,
-6.42548,0.898743,
-6.42242,0.897217,
-6.42395,0.888062,
-6.42548,0.892639,
-6.427,0.900269,
-6.42548,0.895691,
-6.42853,0.889587,
-6.42548,0.892639,
-6.42853,0.894165,
-6.43005,0.900269,
-6.43005,0.90332,
-6.43463,0.895691,
-6.43768,0.886536,
-6.43921,0.894165,
-6.43921,0.895691,
-6.44073,0.897217,
-6.44684,0.897217,
-6.44379,0.894165,
-6.44684,0.891113,
-6.44684,0.895691,
-6.44073,0.898743,
-6.44073,0.897217,
-6.44073,0.891113,
-6.44073,0.891113,
-6.43921,0.898743,
-6.43921,0.898743,
-6.43921,0.898743,
-6.43463,0.892639,
-6.43463,0.891113,
-6.43768,0.897217,
-6.43463,0.897217,
-6.43463,0.892639,
-6.43158,0.894165,
-6.43005,0.892639,
-6.42853,0.894165,
-6.42853,0.897217,
-6.42548,0.895691,
-6.42395,0.894165,
-6.42242,0.897217,
-6.41785,0.897217,
-6.41327,0.897217,
-6.41785,0.891113,
-6.4209,0.888062,
-6.41785,0.892639,
-6.41937,0.90332,
-6.4209,0.898743,
-6.4209,0.894165,
-6.42242,0.888062,
-6.42242,0.895691,
-6.42853,0.892639,
-6.42548,0.898743,
-6.427,0.894165,
-6.42548,0.886536,
-6.42853,0.895691,
-6.43005,0.900269,
-6.43158,0.897217,
-6.427,0.894165,
-6.42548,0.892639,
-6.42548,0.894165,
-6.42548,0.894165,
-6.427,0.897217,
-6.42395,0.895691,
-6.427,0.886536,
-6.42853,0.895691,
-6.42853,0.897217,
-6.43311,0.900269,
-6.43768,0.898743,
-6.43921,0.889587,
-6.44073,0.892639,
-6.44379,0.894165,
-6.44836,0.894165,
-6.44989,0.895691,
-6.44989,0.886536,
-6.45142,0.892639,
-6.45599,0.897217,
-6.45905,0.897217,
-6.46515,0.892639,
-6.46667,0.872803,
-6.46973,0.895691,
-6.4682,0.894165,
-6.4682,0.895691,
-6.4682,0.895691,
-6.46515,0.886536,
-6.4621,0.897217,
-6.46057,0.897217,
-6.4621,0.897217,
-6.46362,0.894165,
-6.4621,0.889587,
-6.46515,0.892639,
-6.46515,0.892639,
-6.46515,0.898743,
-6.46667,0.897217,
-6.46362,0.889587,
-6.46515,0.892639,
-6.4621,0.897217,
-6.4621,0.898743,
-6.45905,0.891113,
-6.45905,0.886536,
-6.45905,0.894165,
-6.46057,0.891113,
-6.4621,0.898743,
-6.4621,0.892639,
-6.4621,0.889587,
-6.46515,0.894165,
-6.46362,0.895691,
-6.46362,0.897217,
-6.46515,0.892639,
-6.4682,0.88501,
-6.4682,0.895691,
-6.47125,0.891113,
-6.47125,0.898743,
-6.47278,0.892639,
-6.47278,0.891113,
-6.47583,0.895691,
-6.47888,0.894165,
-6.47736,0.898743,
-6.48193,0.892639,
-6.48499,0.872803,
-6.48041,0.88501,
-6.48193,0.892639,
-6.48193,0.894165,
-6.48193,0.897217,
-6.48346,0.889587,
-6.48041,0.895691,
-6.48193,0.897217,
-6.48346,0.897217,
-6.48346,0.889587,
-6.48956,0.88501,
-6.48956,0.888062,
-6.49261,0.892639,
-6.49567,0.900269,
-6.49872,0.891113,
-6.49872,0.888062,
-6.50177,0.889587,
-6.5094,0.897217,
-6.50787,0.898743,
-6.51245,0.891113,
-6.51093,0.883484,
-6.51245,0.892639,
-6.51093,0.888062,
-6.5094,0.895691,
-6.50787,0.894165,
-6.50177,0.886536,
-6.50482,0.895691,
-6.50024,0.897217,
-6.50177,0.897217,
-6.50787,0.888062,
-6.5094,0.892639,
-6.5155,0.895691,
-6.51703,0.886536,
-6.52466,0.898743,
-6.52924,0.894165,
-6.53381,0.889587,
-6.53687,0.892639,
-6.54144,0.894165,
-6.54755,0.90332,
-6.54907,0.889587,
-6.55212,0.888062,
-6.5506,0.889587,
-6.55518,0.892639,
-6.55823,0.90332,
-6.55518,0.891113,
-6.55823,0.888062,
-6.56738,0.889587,
-6.56586,0.894165,
-6.57043,0.898743,
-6.57043,0.889587,
-6.57196,0.889587,
-6.56738,0.888062,
-6.56586,0.892639,
-6.55975,0.900269,
-6.54907,0.891113,
-6.54755,0.88501,
-6.53839,0.889587,
-6.53534,0.892639,
-6.52466,0.895691,
-6.5155,0.88501,
-6.50177,0.889587,
-6.49261,0.891113,
-6.48346,0.892639,
-6.47125,0.897217,
-6.46057,0.891113,
-6.45142,0.892639,
-6.43463,0.88501,
-6.42395,0.895691,
-6.41785,0.895691,
-6.40564,0.889587,
-6.39343,0.889587,
-6.3797,0.891113,
-6.3736,0.892639,
-6.36444,0.897217,
-6.35529,0.892639,
-6.34613,0.88501,
-6.3385,0.888062,
-6.3324,0.894165,
-6.32324,0.900269,
-6.31714,0.88501,
-6.31256,0.888062,
-6.30493,0.888062,
-6.30798,0.897217,
-6.30493,0.895691,
-6.30493,0.886536,
-6.30493,0.886536,
-6.30188,0.88501,
-6.29883,0.894165,
-6.30188,0.895691,
-6.30798,0.888062,
-6.31104,0.888062,
-6.30951,0.891113,
-6.31104,0.897217,
-6.31256,0.895691,
-6.31714,0.889587,
-6.32019,0.886536,
-6.32172,0.88501,
-6.32324,0.895691,
-6.32324,0.894165,
-6.32324,0.894165,
-6.32477,0.889587,
-6.32629,0.891113,
-6.32782,0.894165,
-6.32629,0.891113,
-6.32629,0.888062,
-6.33087,0.889587,
-6.33392,0.883484,
-6.33698,0.895691,
-6.34003,0.898743,
-6.3446,0.888062,
-6.34766,0.889587,
-6.35223,0.88501,
-6.35681,0.895691,
-6.36292,0.892639,
-6.36444,0.886536,
-6.36749,0.886536,
-6.36902,0.886536,
-6.37054,0.900269,
-6.36902,0.894165,
-6.37207,0.888062,
-6.3736,0.888062,
-6.3736,0.88501,
-6.37665,0.892639,
-6.3736,0.892639,
-6.37207,0.889587,
-6.3736,0.886536,
-6.37054,0.880432,
-6.36749,0.895691,
-6.36444,0.889587,
-6.36292,0.889587,
-6.35681,0.888062,
-6.35071,0.888062,
-6.34766,0.894165,
-6.34003,0.891113,
-6.33392,0.891113,
-6.3324,0.88501,
-6.32019,0.888062,
-6.31866,0.897217,
-6.31409,0.895691,
-6.30798,0.888062,
-6.30951,0.886536,
-6.30493,0.88501,
-6.29883,0.889587,
-6.29578,0.889587,
-6.2973,0.889587,
-6.29272,0.888062,
-6.28967,0.886536,
-6.29425,0.895691,
-6.28967,0.892639,
-6.28815,0.891113,
-6.28967,0.883484,
-6.2851,0.883484,
-6.28357,0.891113,
-6.28357,0.888062,
-6.28052,0.889587,
-6.28052,0.888062,
-6.28204,0.886536,
-6.28204,0.891113,
-6.28204,0.889587,
-6.27747,0.88501,
-6.27747,0.880432,
-6.27899,0.883484,
-6.27747,0.892639,
-6.27594,0.886536,
-6.27594,0.888062,
-6.27899,0.88501,
-6.27441,0.886536,
-6.27441,0.892639,
-6.28052,0.889587,
-6.28052,0.886536,
-6.28204,0.87738,
-6.2851,0.878906,
-6.28662,0.892639,
-6.28662,0.892639,
-6.28967,0.891113,
-6.2912,0.88501,
-6.29272,0.888062,
-6.29272,0.888062,
-6.29578,0.900269,
-6.2973,0.889587,
-6.29883,0.87738,
-6.29883,0.886536,
-6.30341,0.889587,
-6.30341,0.891113,
-6.30646,0.888062,
-6.30951,0.888062,
-6.31256,0.878906,
-6.31409,0.880432,
-6.32019,0.883484,
-6.32019,0.889587,
-6.32782,0.874329,
-6.32629,0.88501,
-6.33392,0.891113,
-6.33698,0.891113,
-6.34155,0.898743,
-6.34308,0.883484,
-6.34766,0.883484,
-6.34766,0.889587,
-6.34613,0.892639,
-6.34613,0.886536,
-6.34918,0.878906,
-6.35071,0.883484,
-6.34918,0.891113,
-6.35376,0.889587,
-6.36444,0.889587,
-6.36749,0.880432,
-6.36902,0.88501,
-6.36749,0.889587,
-6.36749,0.892639,
-6.37054,0.888062,
-6.37054,0.875854,
-6.37512,0.88501,
-6.37512,0.889587,
-6.37512,0.891113,
-6.37665,0.897217,
-6.3797,0.883484,
-6.38123,0.875854,
-6.38123,0.90332,
-6.38275,0.889587,
-6.38275,0.886536,
-6.38275,0.874329,
-6.38123,0.878906,
-6.38123,0.892639,
-6.3797,0.886536,
-6.3797,0.888062,
-6.38275,0.880432,
-6.38123,0.880432,
-6.38428,0.88501,
-6.38885,0.889587,
-6.39038,0.883484,
-6.39343,0.87738,
-6.39496,0.88501,
-6.39648,0.892639,
-6.39191,0.891113,
-6.39343,0.888062,
-6.39343,0.878906,
-6.39496,0.880432,
-6.39496,0.878906,
-6.39954,0.888062,
-6.40411,0.88501,
-6.40259,0.875854,
-6.40564,0.886536,
-6.40869,0.888062,
-6.41022,0.891113,
-6.41174,0.897217,
-6.41479,0.878906,
-6.4209,0.883484,
-6.42548,0.883484,
-6.427,0.888062,
-6.43005,0.883484,
-6.42853,0.874329,
-6.43005,0.886536,
-6.43005,0.889587,
-6.43463,0.891113,
-6.43616,0.871277,
-6.44073,0.880432,
-6.44684,0.869751,
-6.45752,0.889587,
-6.46057,0.889587,
-6.4621,0.880432,
-6.46362,0.88501,
-6.46667,0.883484,
-6.4682,0.889587,
-6.47583,0.886536,
-6.47736,0.883484,
-6.48193,0.875854,
-6.48499,0.883484,
-6.48804,0.883484,
-6.48956,0.891113,
-6.49261,0.878906,
-6.49719,0.874329,
-6.49719,0.880432,
-6.49872,0.88501,
-6.50482,0.891113,
-6.50635,0.878906,
-6.50635,0.878906,
-6.51093,0.878906,
-6.51245,0.880432,
-6.51245,0.889587,
-6.51093,0.883484,
-6.51093,0.875854,
-6.51245,0.886536,
-6.51703,0.88501,
-6.52008,0.891113,
-6.52161,0.878906,
-6.52313,0.878906,
-6.52008,0.878906,
-6.51855,0.878906,
-6.51855,0.889587,
-6.52161,0.883484,
-6.5155,0.878906,
-6.5094,0.883484,
-6.50482,0.883484,
-6.49872,0.886536,
-6.49109,0.875854,
-6.48499,0.87738,
-6.47888,0.878906,
-6.46515,0.88501,
-6.45599,0.891113,
-6.44836,0.88501,
-6.43921,0.87738,
-6.427,0.87738,
-6.4209,0.88501,
-6.41174,0.883484,
-6.40106,0.872803,
-6.39038,0.872803,
-6.37665,0.883484,
-6.37054,0.88501,
-6.36292,0.886536,
-6.35223,0.87738,
-6.34155,0.875854,
-6.33698,0.87738,
-6.32477,0.880432,
-6.31866,0.888062,
-6.31104,0.87738,
-6.29883,0.875854,
-6.29272,0.878906,
-6.28662,0.886536,
-6.28204,0.886536,
-6.27594,0.878906,
-6.27899,0.875854,
-6.27747,0.883484,
-6.27899,0.883484,
-6.27747,0.88501,
-6.27441,0.87738,
-6.27441,0.872803,
-6.27289,0.88501,
-6.27289,0.87738,
-6.26831,0.88501,
-6.26984,0.878906,
-6.27289,0.875854,
-6.26831,0.87738,
-6.26678,0.878906,
-6.26678,0.886536,
-6.26831,0.874329,
-6.27441,0.874329,
-6.27289,0.880432,
-6.26678,0.880432,
-6.26984,0.888062,
-6.26984,0.878906,
-6.26678,0.875854,
-6.26831,0.878906,
-6.27747,0.88501,
-6.27441,0.886536,
-6.27747,0.875854,
-6.27441,0.874329,
-6.27594,0.878906,
-6.27747,0.87738,
-6.27747,0.888062,
-6.28204,0.880432,
-6.28357,0.874329,
-6.28815,0.880432,
-6.28967,0.88501,
-6.29272,0.883484,
-6.2912,0.874329,
-6.29425,0.871277,
-6.2973,0.875854,
-6.29883,0.878906,
-6.29883,0.889587,
-6.30493,0.87738,
-6.30798,0.874329,
-6.30646,0.87738,
-6.30798,0.878906,
-6.30646,0.883484,
-6.31104,0.869751,
-6.31256,0.87738,
-6.31256,0.868225,
-6.31104,0.878906,
-6.30951,0.886536,
-6.30798,0.87738,
-6.30951,0.874329,
-6.30951,0.875854,
-6.30646,0.88501,
-6.30798,0.88501,
-6.30646,0.87738,
-6.30341,0.872803,
-6.30493,0.875854,
-6.30646,0.874329,
-6.30188,0.880432,
-6.30341,0.878906,
-6.30188,0.874329,
-6.29578,0.880432,
-6.29578,0.883484,
-6.29883,0.868225,
-6.29883,0.869751,
-6.2973,0.875854,
-6.29578,0.87738,
-6.2973,0.875854,
-6.29578,0.886536,
-6.29425,0.866699,
-6.30188,0.894165,
-6.30493,0.883484,
-6.30341,0.87738,
-6.30188,0.880432,
-6.30188,0.874329,
-6.30188,0.875854,
-6.29578,0.878906,
-6.29425,0.875854,
-6.2973,0.88501,
-6.2973,0.87738,
-6.29578,0.874329,
-6.2912,0.886536,
-6.29425,0.883484,
-6.29425,0.883484,
-6.29272,0.875854,
-6.29272,0.871277,
-6.2912,0.875854,
-6.28967,0.87738,
-6.2912,0.880432,
-6.28815,0.878906,
-6.28967,0.866699,
-6.28967,0.878906,
-6.28662,0.878906,
-6.28815,0.883484,
-6.28662,0.875854,
-6.28967,0.869751,
-6.28815,0.875854,
-6.2912,0.874329,
-6.2973,0.88501,
-6.29578,0.874329,
-6.2973,0.874329,
-6.2973,0.883484,
-6.29883,0.883484,
-6.30188,0.883484,
-6.30188,0.872803,
-6.29578,0.871277,
-6.30188,0.875854,
-6.30188,0.872803,
-6.29883,0.883484,
-6.2973,0.875854,
-6.2973,0.875854,
-6.29883,0.87738,
-6.29578,0.880432,
-6.30188,0.880432,
-6.29883,0.869751,
-6.29883,0.872803,
-6.29883,0.878906,
-6.30341,0.874329,
-6.30341,0.888062,
-6.30646,0.878906,
-6.31256,0.880432,
-6.31104,0.878906,
-6.31714,0.880432,
-6.31866,0.88501,
-6.32019,0.874329,
-6.32324,0.869751,
-6.32782,0.871277,
-6.33087,0.872803,
-6.3324,0.889587,
-6.33392,0.878906,
-6.33087,0.875854,
-6.3324,0.87738,
-6.32782,0.880432,
-6.3324,0.88501,
-6.33545,0.872803,
-6.33698,0.874329,
-6.33392,0.875854,
-6.33698,0.87738,
-6.34003,0.886536,
-6.34308,0.87738,
-6.34308,0.875854,
-6.34613,0.87738,
-6.34613,0.87738,
-6.35376,0.886536,
-6.35223,0.874329,
-6.35986,0.875854,
-6.35986,0.87738,
-6.36292,0.875854,
-6.36444,0.888062,
-6.36139,0.87738,
-6.36597,0.875854,
-6.36444,0.878906,
-6.36597,0.883484,
-6.37207,0.886536,
-6.37207,0.875854,
-6.37054,0.875854,
-6.37512,0.878906,
-6.3736,0.87738,
-6.37512,0.889587,
-6.3736,0.87738,
-6.3736,0.878906,
-6.37512,0.875854,
-6.37512,0.880432,
-6.37512,0.886536,
-6.37817,0.871277,
-6.3797,0.875854,
-6.3858,0.871277,
-6.3858,0.87738,
-6.39191,0.888062,
-6.39191,0.878906,
-6.39191,0.875854,
-6.39343,0.875854,
-6.39648,0.878906,
-6.39954,0.875854,
-6.39496,0.872803,
-6.39648,0.875854,
-6.39801,0.878906,
-6.39648,0.880432,
-6.39648,0.888062,
-6.39496,0.878906,
-6.39496,0.883484,
-6.39954,0.878906,
-6.39496,0.87738,
-6.39496,0.891113,
-6.39648,0.87738,
-6.40106,0.875854,
-6.40106,0.883484,
-6.40259,0.88501,
-6.40564,0.891113,
-6.40564,0.883484,
-6.41174,0.878906,
-6.41785,0.872803,
-6.4209,0.878906,
-6.4209,0.897217,
-6.42548,0.878906,
-6.42395,0.871277,
-6.42548,0.88501,
-6.42548,0.883484,
-6.43158,0.894165,
-6.43311,0.886536,
-6.43616,0.880432,
-6.43921,0.87738,
-6.44379,0.883484,
-6.44379,0.888062,
-6.44684,0.880432,
-6.45294,0.880432,
-6.45142,0.88501,
-6.45447,0.888062,
-6.45599,0.892639,
-6.45752,0.880432,
-6.46667,0.883484,
-6.46667,0.880432,
-6.46515,0.88501,
-6.46973,0.892639,
-6.47278,0.883484,
-6.47888,0.886536,
-6.47888,0.88501,
-6.48346,0.891113,
-6.48346,0.900269,
-6.48041,0.886536,
-6.47583,0.880432,
-6.47583,0.880432,
-6.4682,0.886536,
-6.46362,0.894165,
-6.45447,0.886536,
-6.44684,0.886536,
-6.43463,0.88501,
-6.42548,0.892639,
-6.41174,0.892639,
-6.39801,0.888062,
-6.3858,0.883484,
-6.37512,0.897217,
-6.35681,0.889587,
-6.3446,0.897217,
-6.33392,0.883484,
-6.31866,0.888062,
-6.31256,0.888062,
-6.29425,0.892639,
-6.28815,0.895691,
-6.27594,0.888062,
-6.26678,0.889587,
-6.26221,0.880432,
-6.2561,0.891113,
-6.25305,0.897217,
-6.24695,0.889587,
-6.23932,0.894165,
-6.23322,0.892639,
-6.22559,0.894165,
-6.22559,0.898743,
-6.21796,0.894165,
-6.21643,0.891113,
-6.21033,0.88501,
-6.20575,0.897217,
-6.20728,0.90332,
-6.20575,0.892639,
-6.20728,0.892639,
-6.20728,0.891113,
-6.20575,0.897217,
-6.2088,0.898743,
-6.20575,0.892639,
-6.20728,0.892639,
-6.2088,0.889587,
-6.20728,0.895691,
-6.2088,0.901794,
-6.2088,0.892639,
-6.21033,0.894165,
-6.21185,0.895691,
-6.2149,0.897217,
-6.2088,0.923157,
-6.21033,0.891113,
-6.21033,0.895691,
-6.21033,0.889587,
-6.20728,0.895691,
-6.20728,0.90332,
-6.2088,0.897217,
-6.21185,0.892639,
-6.21185,0.894165,
-6.2149,0.897217,
-6.21033,0.906372,
-6.2088,0.897217,
-6.21033,0.894165,
-6.2088,0.892639,
-6.20422,0.897217,
-6.20728,0.906372,
-6.2088,0.897217,
-6.20575,0.898743,
-6.20575,0.900269,
-6.20575,0.898743,
-6.19965,0.904846,
-6.20117,0.906372,
-6.19812,0.895691,
-6.19659,0.897217,
-6.19659,0.904846,
-6.19965,0.907898,
-6.20117,0.90332,
-6.19965,0.901794,
-6.19659,0.901794,
-6.19965,0.901794,
-6.19202,0.907898,
-6.19202,0.904846,
-6.18896,0.901794,
-6.18896,0.895691,
-6.18134,0.898743,
-6.17981,0.912476,
-6.17523,0.900269,
-6.17218,0.901794,
-6.1676,0.90332,
-6.16608,0.897217,
-6.16455,0.912476,
-6.1615,0.907898,
-6.15997,0.900269,
-6.15387,0.901794,
-6.15387,0.90332,
-6.15234,0.907898,
-6.14929,0.901794,
-6.14777,0.900269,
-6.14929,0.901794,
-6.14471,0.904846,
-6.14471,0.915527,
-6.14166,0.909424,
-6.14319,0.904846,
-6.13861,0.900269,
-6.13251,0.906372,
-6.13251,0.912476,
-6.12793,0.904846,
-6.12335,0.906372,
-6.12335,0.909424,
-6.12488,0.912476,
-6.12488,0.917053,
-6.12488,0.912476,
-6.12335,0.906372,
-6.11877,0.90332,
-6.11725,0.909424,
-6.11877,0.920105,
-6.1203,0.909424,
-6.11877,0.909424,
-6.11725,0.909424,
-6.11877,0.914001,
-6.11572,0.920105,
-6.11725,0.918579,
-6.1203,0.909424,
-6.12335,0.906372,
-6.12335,0.917053,
-6.12335,0.920105,
-6.12488,0.909424,
-6.13708,0.909424,
-6.13708,0.912476,
-6.13556,0.915527,
-6.13861,0.923157,
-6.14014,0.918579,
-6.14166,0.909424,
-6.14777,0.909424,
-6.14929,0.915527,
-6.14929,0.921631,
-6.15387,0.914001,
-6.15997,0.912476,
-6.15997,0.915527,
-6.1676,0.915527,
-6.1676,0.92926,
-6.17523,0.917053,
-6.17371,0.912476,
-6.17523,0.915527,
-6.17676,0.918579,
-6.17981,0.930786,
-6.17981,0.918579,
-6.17828,0.917053,
-6.18744,0.920105,
-6.19049,0.918579,
-6.18744,0.927734,
-6.18896,0.921631,
-6.18896,0.915527,
-6.18744,0.917053,
-6.18591,0.920105,
-6.18744,0.921631,
-6.19049,0.918579,
-6.18896,0.920105,
-6.19049,0.921631,
-6.19049,0.918579,
-6.19049,0.932312,
-6.19049,0.923157,
-6.18744,0.914001,
-6.18896,0.921631,
-6.18896,0.923157,
-6.18591,0.926208,
-6.18134,0.920105,
-6.17828,0.918579,
-6.17981,0.921631,
-6.17981,0.921631,
-6.18134,0.930786,
-6.18286,0.926208,
-6.18591,0.921631,
-6.19049,0.923157,
-6.19202,0.926208,
-6.19354,0.927734,
-6.19659,0.921631,
-6.19507,0.920105,
-6.19812,0.923157,
-6.19965,0.920105,
-6.19659,0.932312,
-6.19812,0.932312,
-6.19965,0.923157,
-6.2027,0.924683,
-6.19812,0.927734,
-6.20117,0.930786,
-6.20422,0.926208,
-6.20728,0.921631,
-6.2149,0.930786,
-6.21643,0.926208,
-6.22253,0.933838,
-6.23016,0.92926,
-6.23169,0.923157,
-6.23322,0.926208,
-6.23932,0.930786,
-6.24847,0.933838,
-6.25153,0.926208,
-6.25763,0.921631,
-6.26221,0.92926,
-6.26984,0.927734,
-6.27594,0.93689,
-6.28204,0.933838,
-6.2851,0.926208,
-6.2851,0.933838,
-6.28662,0.923157,
-6.28967,0.961304,
-6.28815,0.930786,
-6.28967,0.923157,
-6.28967,0.930786,
-6.28967,0.924683,
-6.29272,0.938416,
-6.29578,0.933838,
-6.29883,0.926208,
-6.30341,0.932312,
-6.30646,0.932312,
-6.30951,0.938416,
-6.31561,0.938416,
-6.31561,0.927734,
-6.32019,0.92926,
-6.32477,0.930786,
-6.32629,0.942993,
-6.32629,0.935364,
-6.33087,0.924683,
-6.33392,0.933838,
-6.33698,0.939941,
-6.34003,0.946045,
-6.34308,0.93689,
-6.34613,0.92926,
-6.3446,0.927734,
-6.35223,0.920105,
-6.35529,0.93689,
-6.35681,0.939941,
-6.36139,0.926208,
-6.36139,0.935364,
-6.36444,0.938416,
-6.37054,0.939941,
-6.37207,0.942993,
-6.37512,0.92926,
-6.3797,0.93689,
-6.38275,0.933838,
-6.38885,0.942993,
-6.39038,0.938416,
-6.39343,0.926208,
-6.39496,0.93689,
-6.39648,0.944519,
-6.39496,0.942993,
-6.39801,0.944519,
-6.40106,0.930786,
-6.40259,0.938416,
-6.39954,0.939941,
-6.39801,0.942993,
-6.39038,0.942993,
-6.38428,0.927734,
-6.37665,0.939941,
-6.36902,0.947571,
-6.36292,0.947571,
-6.35376,0.947571,
-6.34308,0.933838,
-6.33545,0.938416,
-6.32324,0.939941,
-6.30646,0.947571,
-6.2912,0.942993,
-6.28052,0.927734,
-6.26678,0.938416,
-6.24695,0.947571,
-6.23474,0.946045,
-6.22253,0.952148,
-6.20728,0.93689,
-6.19354,0.939941,
-6.18134,0.947571,
-6.16913,0.944519,
-6.15234,0.944519,
-6.14014,0.933838,
-6.12793,0.93689,
-6.1203,0.949097,
-6.10352,0.944519,
-6.09436,0.950623,
-6.08978,0.938416,
-6.0791,0.939941,
-6.07605,0.947571,
-6.06384,0.947571,
-6.05621,0.946045,
-6.05164,0.932312,
-6.04248,0.939941,
-6.0379,0.947571,
-6.0318,0.949097,
-6.0257,0.949097,
-6.02417,0.942993,
-6.01959,0.942993,
-6.01807,0.952148,
-6.01959,0.952148,
-6.01654,0.947571,
-6.01196,0.933838,
-6.01349,0.942993,
-6.00739,0.947571,
-6.00281,0.947571,
-5.99823,0.956726,
-5.99365,0.939941,
-5.98907,0.944519,
-5.97992,0.949097,
-5.97382,0.950623,
-5.96771,0.950623,
-5.96619,0.93689,
-5.96008,0.942993,
-5.96161,0.949097,
-5.95398,0.949097,
-5.9494,0.952148,
-5.94635,0.942993,
-5.94788,0.947571,
-5.94788,0.953674,
-5.94788,0.9552,
-5.94788,0.952148,
-5.95093,0.939941,
-5.95093,0.942993,
-5.94788,0.9552,
-5.9494,0.949097,
-5.94788,0.952148,
-5.94635,0.944519,
-5.94635,0.944519,
-5.94788,0.956726,
-5.94788,0.9552,
-5.94788,0.9552,
-5.9494,0.942993,
-5.9433,0.946045,
-5.9433,0.950623,
-5.93872,0.950623,
-5.94025,0.950623,
-5.93567,0.944519,
-5.93567,0.950623,
-5.93262,0.956726,
-5.93262,0.956726,
-5.92804,0.953674,
-5.92499,0.944519,
-5.92651,0.946045,
-5.92194,0.9552,
-5.91888,0.952148,
-5.91431,0.952148,
-5.91125,0.947571,
-5.91278,0.946045,
-5.9082,0.950623,
-5.90668,0.9552,
-5.9021,0.952148,
-5.90363,0.947571,
-5.9021,0.946045,
-5.90363,0.9552,
-5.89905,0.953674,
-5.89752,0.952148,
-5.896,0.944519,
-5.88989,0.946045,
-5.89294,0.958252,
-5.88684,0.958252,
-5.89142,0.9552,
-5.88989,0.950623,
-5.88837,0.950623,
-5.88684,0.9552,
-5.88074,0.956726,
-5.88226,0.952148,
-5.88379,0.946045,
-5.88226,0.949097,
-5.88074,0.953674,
-5.87616,0.96283,
-5.87769,0.953674,
-5.87616,0.93689,
-5.87311,0.947571,
-5.87463,0.9552,
-5.87769,0.958252,
-5.87769,0.9552,
-5.88074,0.949097,
-5.88531,0.947571,
-5.88531,0.956726,
-5.88989,0.96283,
-5.89294,0.953674,
-5.89294,0.950623,
-5.896,0.956726,
-5.896,0.952148,
-5.89752,0.961304,
-5.896,0.9552,
-5.896,0.949097,
-5.89752,0.953674,
-5.89294,0.950623,
-5.896,0.961304,
-5.89905,0.956726,
-5.90057,0.950623,
-5.90057,0.956726,
-5.90363,0.956726,
-5.90363,0.96283,
-5.90515,0.946045,
-5.90515,0.935364,
-5.90515,0.9552,
-5.90973,0.952148,
-5.9082,0.964355,
-5.90668,0.942993,
-5.91125,0.949097,
-5.91125,0.9552,
-5.91125,0.935364,
-5.90973,0.964355,
-5.91278,0.958252,
-5.91583,0.950623,
-5.91583,0.9552,
-5.91431,0.961304,
-5.92041,0.964355,
-5.92499,0.949097,
-5.92499,0.950623,
-5.92194,0.956726,
-5.92804,0.9552,
-5.92651,0.967407,
-5.92804,0.965881,
-5.92804,0.942993,
-5.93262,0.9552,
-5.93567,0.959778,
-5.93872,0.964355,
-5.94025,0.9552,
-5.93872,0.946045,
-5.94177,0.956726,
-5.94177,0.956726,
-5.94482,0.964355,
-5.9494,0.958252,
-5.95398,0.950623,
-5.95703,0.956726,
-5.95703,0.9552,
-5.95856,0.96283,
-5.95856,0.958252,
-5.96008,0.950623,
-5.95856,0.956726,
-5.95856,0.9552,
-5.96008,0.964355,
-5.96161,0.961304,
-5.96313,0.947571,
-5.96466,0.958252,
-5.96313,0.964355,
-5.96466,0.967407,
-5.96313,0.959778,
-5.96771,0.946045,
-5.96771,0.953674,
-5.96771,0.959778,
-5.97382,0.9552,
-5.97534,0.98877,
-5.97992,0.946045,
-5.97839,0.961304,
-5.97992,0.958252,
-5.97839,0.96283,
-5.97839,0.958252,
-5.98297,0.953674,
-5.98602,0.958252,
-5.98907,0.946045,
-5.98755,0.9552,
-5.98602,0.964355,
-5.9845,0.949097,
-5.98602,0.961304,
-5.98602,0.956726,
-5.98755,0.964355,
-5.9906,0.961304,
-5.9906,0.952148,
-5.9906,0.959778,
-5.99365,0.958252,
-5.99518,0.965881,
-5.99823,0.964355,
-6.00128,0.949097,
-6.00433,0.959778,
-6.01196,0.96283,
-6.01349,0.965881,
-6.01959,0.961304,
-6.01807,0.949097,
-6.0257,0.956726,
-6.02417,0.9552,
-6.03027,0.96283,
-6.0379,0.96283,
-6.03638,0.949097,
-6.04095,0.958252,
-6.04248,0.964355,
-6.04248,0.964355,
-6.04095,0.964355,
-6.04553,0.947571,
-6.04401,0.9552,
-6.04401,0.9552,
-6.04858,0.956726,
-6.04553,0.965881,
-6.04553,0.950623,
-6.05011,0.958252,
-6.05316,0.959778,
-6.05621,0.96283,
-6.05621,0.961304,
-6.05621,0.950623,
-6.06079,0.958252,
-6.06537,0.953674,
-6.06995,0.961304,
-6.07147,0.96283,
-6.07452,0.947571,
-6.0791,0.958252,
-6.08215,0.959778,
-6.08521,0.964355,
-6.09283,0.964355,
-6.10199,0.952148,
-6.10504,0.9552,
-6.10657,0.9552,
-6.10809,0.965881,
-6.11115,0.961304,
-6.11115,0.950623,
-6.1142,0.958252,
-6.11267,0.961304,
-6.10809,0.965881,
-6.10657,0.964355,
-6.10199,0.947571,
-6.10046,0.964355,
-6.09283,0.9552,
-6.08521,0.959778,
-6.07147,0.961304,
-6.05774,0.949097,
-6.04858,0.958252,
-6.04095,0.953674,
-6.0257,0.968933,
-6.01196,0.964355,
-5.9967,0.952148,
-5.98602,0.9552,
-5.96924,0.958252,
-5.95856,0.964355,
-5.9494,0.96283,
-5.93567,0.949097,
-5.92651,0.956726,
-5.9082,0.961304,
-5.89752,0.961304,
-5.88837,0.964355,
-5.87921,0.950623,
-5.87311,0.9552,
-5.86395,0.956726,
-5.85785,0.959778,
-5.85022,0.961304,
-5.84564,0.949097,
-5.84106,0.953674,
-5.83344,0.961304,
-5.83191,0.959778,
-5.82733,0.964355,
-5.82428,0.950623,
-5.82123,0.956726,
-5.81818,0.961304,
-5.81512,0.961304,
-5.81207,0.959778,
-5.81055,0.949097,
-5.81055,0.956726,
-5.80292,0.959778,
-5.80597,0.959778,
-5.80597,0.964355,
-5.80444,0.9552,
-5.80292,0.956726,
-5.80139,0.961304,
-5.79681,0.959778,
-5.79224,0.9552,
-5.79224,0.952148,
-5.78766,0.953674,
-5.79224,0.959778,
-5.78918,0.958252,
-5.79224,0.964355,
-5.79529,0.953674,
-5.79224,0.958252,
-5.79681,0.950623,
-5.79376,0.961304,
-5.79529,0.964355,
-5.79529,0.947571,
-5.79529,0.956726,
-5.79376,0.958252,
-5.79681,0.961304,
-5.79681,0.965881,
-5.79681,0.953674,
-5.79681,0.958252,
-5.79224,0.96283,
-5.79529,0.967407,
-5.79224,0.9552,
-5.79376,0.949097,
-5.79376,0.952148,
-5.79071,0.9552,
-5.79071,0.959778,
-5.79224,0.96283,
-5.79071,0.953674,
-5.78766,0.956726,
-5.79224,0.9552,
-5.79376,0.961304,
-5.79224,0.961304,
-5.79376,0.947571,
-5.79987,0.9552,
-5.80139,0.959778,
-5.79987,0.958252,
-5.79987,0.96283,
-5.79529,0.953674,
-5.79834,0.9552,
-5.79681,0.967407,
-5.79529,0.959778,
-5.79529,0.959778,
-5.79376,0.947571,
-5.79681,0.949097,
-5.78918,0.958252,
-5.79529,0.959778,
-5.79681,0.96283,
-5.79376,0.950623,
-5.79071,0.956726,
-5.79224,0.958252,
-5.78766,0.96283,
-5.78613,0.961304,
-5.78766,0.949097,
-5.78461,0.949097,
-5.78766,0.956726,
-5.79224,0.956726,
-5.79224,0.959778,
-5.79376,0.968933,
-5.79529,0.953674,
-5.79529,0.958252,
-5.79529,0.964355,
-5.79529,0.96283,
-5.79376,0.950623,
-5.79529,0.9552,
