-2.53296,0.723267,
-2.54517,0.732422,
-2.56042,0.733948,
-2.56958,0.727844,
-2.58026,0.721741,
-2.58942,0.723267,
-2.6001,0.726318,
-2.61078,0.730896,
-2.62299,0.724792,
-2.63214,0.717163,
-2.64435,0.723267,
-2.65198,0.730896,
-2.66266,0.730896,
-2.67639,0.726318,
-2.68707,0.720215,
-2.69775,0.723267,
-2.71149,0.726318,
-2.72064,0.732422,
-2.7359,0.72937,
-2.74811,0.721741,
-2.76184,0.726318,
-2.77405,0.730896,
-2.78625,0.733948,
-2.80151,0.724792,
-2.81219,0.723267,
-2.82288,0.726318,
-2.82898,0.730896,
-2.84119,0.733948,
-2.85034,0.727844,
-2.85797,0.721741,
-2.87018,0.724792,
-2.87933,0.732422,
-2.88391,0.733948,
-2.89001,0.726318,
-2.89154,0.720215,
-2.88849,0.721741,
-2.88239,0.72937,
-2.87781,0.732422,
-2.85797,0.727844,
-2.83661,0.726318,
-2.81067,0.724792,
-2.78015,0.72937,
-2.74811,0.732422,
-2.70996,0.721741,
-2.66418,0.724792,
-2.61841,0.724792,
-2.56348,0.72937,
-2.50549,0.733948,
-2.43683,0.726318,
-2.37122,0.723267,
-2.30255,0.723267,
-2.22626,0.727844,
-2.15607,0.733948,
-2.07672,0.726318,
-1.99738,0.726318,
-1.92108,0.724792,
-1.84326,0.737,
-1.77002,0.72937,
-1.69067,0.727844,
-1.61743,0.724792,
-1.54266,0.720215,
-1.4679,0.733948,
-1.40686,0.732422,
-1.34277,0.724792,
-1.28021,0.726318,
-1.22375,0.724792,
-1.17035,0.733948,
-1.12152,0.72937,
-1.07269,0.726318,
-1.03302,0.726318,
-0.993347,0.723267,
-0.9552,0.732422,
-0.921631,0.737,
-0.888062,0.730896,
-0.862122,0.720215,
-0.83313,0.724792,
-0.814819,0.733948,
-0.790405,0.732422,
-0.775146,0.72937,
-0.759888,0.726318,
-0.749207,0.72937,
-0.738525,0.744629,
-0.72937,0.733948,
-0.718689,0.72937,
-0.709534,0.723267,
-0.704956,0.726318,
-0.70343,0.737,
-0.70343,0.737,
-0.70343,0.733948,
-0.698853,0.723267,
-0.700378,0.726318,
-0.700378,0.733948,
-0.704956,0.732422,
-0.704956,0.72937,
-0.70343,0.727844,
-0.704956,0.724792,
-0.708008,0.733948,
-0.709534,0.733948,
-0.709534,0.726318,
-0.714111,0.727844,
-0.718689,0.727844,
-0.727844,0.738525,
-0.730896,0.732422,
-0.737,0.726318,
-0.747681,0.72937,
-0.753784,0.721741,
-0.762939,0.740051,
-0.776672,0.733948,
-0.779724,0.730896,
-0.788879,0.723267,
-0.794983,0.726318,
-0.805664,0.737,
-0.810242,0.72937,
-0.811768,0.732422,
-0.822449,0.726318,
-0.8255,0.727844,
-0.831604,0.732422,
-0.840759,0.737,
-0.839233,0.72937,
-0.845337,0.721741,
-0.840759,0.726318,
-0.848389,0.737,
-0.845337,0.733948,
-0.845337,0.72937,
-0.845337,0.727844,
-0.843811,0.727844,
-0.840759,0.737,
-0.83313,0.737,
-0.83313,0.732422,
-0.827026,0.727844,
-0.820923,0.724792,
-0.816345,0.733948,
-0.811768,0.740051,
-0.804138,0.730896,
-0.798035,0.726318,
-0.791931,0.724792,
-0.787354,0.740051,
-0.782776,0.732422,
-0.782776,0.733948,
-0.782776,0.726318,
-0.785828,0.730896,
-0.782776,0.740051,
-0.785828,0.733948,
-0.782776,0.732422,
-0.779724,0.723267,
-0.776672,0.727844,
-0.779724,0.740051,
-0.787354,0.737,
-0.790405,0.737,
-0.791931,0.726318,
-0.801086,0.726318,
-0.80719,0.733948,
-0.817871,0.740051,
-0.823975,0.737,
-0.830078,0.726318,
-0.837708,0.72937,
-0.849915,0.740051,
-0.85907,0.740051,
-0.874329,0.730896,
-0.88501,0.727844,
-0.895691,0.727844,
-0.912476,0.730896,
-0.926208,0.744629,
-0.941467,0.732422,
-0.9552,0.737,
-0.970459,0.733948,
-0.985718,0.740051,
-1.00708,0.743103,
-1.02539,0.737,
-1.0437,0.724792,
-1.06049,0.72937,
-1.08185,0.737,
-1.09863,0.741577,
-1.11542,0.737,
-1.13068,0.730896,
-1.14746,0.72937,
-1.16425,0.740051,
-1.18103,0.738525,
-1.20087,0.730896,
-1.22223,0.724792,
-1.23596,0.730896,
-1.25122,0.740051,
-1.26953,0.741577,
-1.28326,0.733948,
-1.3031,0.72937,
-1.32141,0.72937,
-1.33514,0.738525,
-1.35193,0.740051,
-1.37177,0.732422,
-1.3855,0.730896,
-1.40381,0.730896,
-1.41907,0.740051,
-1.43433,0.741577,
-1.45416,0.732422,
-1.47095,0.732422,
-1.4801,0.727844,
-1.49689,0.738525,
-1.51215,0.744629,
-1.52893,0.738525,
-1.53809,0.732422,
-1.55182,0.730896,
-1.56403,0.738525,
-1.58234,0.744629,
-1.59607,0.738525,
-1.61743,0.727844,
-1.62811,0.726318,
-1.64185,0.740051,
-1.66016,0.740051,
-1.67084,0.733948,
-1.6861,0.732422,
-1.69678,0.730896,
-1.71051,0.740051,
-1.72577,0.746155,
-1.73798,0.733948,
-1.75018,0.727844,
-1.76392,0.72937,
-1.77307,0.743103,
-1.7868,0.741577,
-1.79749,0.733948,
-1.80969,0.732422,
-1.82343,0.72937,
-1.83563,0.741577,
-1.85242,0.744629,
-1.86615,0.733948,
-1.88141,0.730896,
-1.89514,0.72937,
-1.91193,0.743103,
-1.92261,0.743103,
-1.93787,0.738525,
-1.94855,0.730896,
-1.96228,0.730896,
-1.96991,0.744629,
-1.98059,0.741577,
-1.9928,0.737,
-2.00195,0.732422,
-2.01721,0.730896,
-2.02789,0.743103,
-2.04773,0.746155,
-2.05536,0.740051,
-2.06604,0.730896,
-2.07977,0.737,
-2.08893,0.743103,
-2.10571,0.741577,
-2.11639,0.738525,
-2.13165,0.732422,
-2.14081,0.730896,
-2.15149,0.747681,
-2.1637,0.743103,
-2.1759,0.741577,
-2.18506,0.72937,
-2.19421,0.732422,
-2.20795,0.743103,
-2.22321,0.737,
-2.23389,0.741577,
-2.24457,0.732422,
-2.2583,0.732422,
-2.27051,0.744629,
-2.28882,0.743103,
-2.2995,0.740051,
-2.30713,0.730896,
-2.32086,0.733948,
-2.33612,0.743103,
-2.3468,0.743103,
-2.35748,0.740051,
-2.37274,0.732422,
-2.38342,0.732422,
-2.39716,0.740051,
-2.41241,0.741577,
-2.4231,0.738525,
-2.43378,0.726318,
-2.44446,0.732422,
-2.45514,0.743103,
-2.46277,0.744629,
-2.47498,0.743103,
-2.48566,0.737,
-2.49939,0.733948,
-2.50854,0.743103,
-2.5238,0.746155,
-2.53906,0.741577,
-2.54974,0.730896,
-2.56042,0.732422,
-2.57111,0.744629,
-2.58026,0.747681,
-2.59399,0.741577,
-2.60315,0.733948,
-2.60925,0.733948,
-2.62756,0.743103,
-2.63672,0.747681,
-2.64587,0.738525,
-2.65808,0.723267,
-2.66876,0.740051,
-2.68097,0.744629,
-2.68707,0.749207,
-2.69775,0.733948,
-2.71149,0.72937,
-2.72217,0.738525,
-2.742,0.737,
-2.75421,0.747681,
-2.76642,0.741577,
-2.7832,0.738525,
-2.79388,0.733948,
-2.81067,0.741577,
-2.82135,0.746155,
-2.83813,0.737,
-2.85492,0.737,
-2.86713,0.733948,
-2.87933,0.743103,
-2.89459,0.744629,
-2.90985,0.741577,
-2.92358,0.737,
-2.93884,0.737,
-2.95258,0.746155,
-2.96936,0.749207,
-2.98462,0.741577,
-3.00446,0.730896,
-3.01666,0.737,
-3.03192,0.743103,
-3.0426,0.743103,
-3.05939,0.744629,
-3.07312,0.738525,
-3.08228,0.737,
-3.0899,0.744629,
-3.09906,0.746155,
-3.10822,0.743103,
-3.12042,0.732422,
-3.12653,0.732422,
-3.125,0.740051,
-3.12347,0.744629,
-3.12195,0.743103,
-3.11127,0.737,
-3.10211,0.738525,
-3.08533,0.743103,
-3.05939,0.750732,
-3.03345,0.741577,
-2.99835,0.730896,
-2.96021,0.732422,
-2.9129,0.744629,
-2.8656,0.747681,
-2.81372,0.744629,
-2.76184,0.738525,
-2.6947,0.740051,
-2.63062,0.743103,
-2.56653,0.749207,
-2.49939,0.740051,
-2.42767,0.730896,
-2.36053,0.733948,
-2.28882,0.746155,
-2.21863,0.750732,
-2.14996,0.743103,
-2.07672,0.732422,
-2.00653,0.733948,
-1.93787,0.744629,
-1.87378,0.747681,
-1.81122,0.741577,
-1.75323,0.732422,
-1.69525,0.737,
-1.63727,0.744629,
-1.58844,0.747681,
-1.53809,0.744629,
-1.49536,0.738525,
-1.45569,0.733948,
-1.41296,0.743103,
-1.37634,0.749207,
-1.34277,0.741577,
-1.31378,0.730896,
-1.27716,0.733948,
-1.25275,0.747681,
-1.23291,0.747681,
-1.21155,0.743103,
-1.19324,0.738525,
-1.17798,0.738525,
-1.16425,0.744629,
-1.15204,0.747681,
-1.14136,0.740051,
-1.13678,0.733948,
-1.13068,0.733948,
-1.1261,0.747681,
-1.12762,0.744629,
-1.12305,0.746155,
-1.12457,0.740051,
-1.12152,0.740051,
-1.11847,0.743103,
-1.11847,0.747681,
-1.11542,0.743103,
-1.11237,0.737,
-1.11237,0.732422,
-1.11542,0.747681,
-1.11694,0.744629,
-1.11694,0.741577,
-1.12152,0.737,
-1.1322,0.740051,
-1.13983,0.744629,
-1.14594,0.746155,
-1.15509,0.741577,
-1.16425,0.732422,
-1.17645,0.737,
-1.18256,0.743103,
-1.19476,0.744629,
-1.20697,0.743103,
-1.21918,0.733948,
-1.22833,0.737,
-1.23596,0.740051,
-1.24359,0.744629,
-1.25427,0.743103,
-1.26038,0.732422,
-1.26953,0.737,
-1.27258,0.746155,
-1.28174,0.747681,
-1.28174,0.743103,
-1.28784,0.732422,
-1.29089,0.733948,
-1.29089,0.740051,
-1.29242,0.746155,
-1.28784,0.743103,
-1.28326,0.733948,
-1.28174,0.737,
-1.27563,0.746155,
-1.27258,0.747681,
-1.27258,0.746155,
-1.26953,0.732422,
-1.26343,0.737,
-1.26038,0.744629,
-1.25732,0.749207,
-1.25427,0.738525,
-1.25122,0.733948,
-1.24359,0.733948,
-1.23596,0.744629,
-1.22833,0.749207,
-1.22375,0.741577,
-1.21613,0.732422,
-1.21307,0.743103,
-1.2085,0.744629,
-1.20697,0.746155,
-1.20087,0.741577,
-1.20087,0.732422,
-1.20087,0.738525,
-1.19781,0.743103,
-1.19781,0.752258,
-1.19629,0.744629,
-1.19781,0.732422,
-1.20239,0.740051,
-1.20544,0.744629,
-1.2085,0.749207,
-1.21918,0.743103,
-1.22528,0.737,
-1.22986,0.733948,
-1.24054,0.741577,
-1.24359,0.752258,
-1.25427,0.743103,
-1.26495,0.737,
-1.26953,0.737,
-1.28326,0.743103,
-1.29395,0.749207,
-1.31073,0.741577,
-1.32141,0.72937,
-1.33514,0.737,
-1.3504,0.743103,
-1.36261,0.749207,
-1.37787,0.740051,
-1.39313,0.733948,
-1.40839,0.740051,
-1.42059,0.744629,
-1.4389,0.746155,
-1.45111,0.741577,
-1.46484,0.732422,
-1.47858,0.732422,
-1.49231,0.743103,
-1.50909,0.749207,
-1.52588,0.744629,
-1.54114,0.738525,
-1.56097,0.738525,
-1.57471,0.743103,
-1.58997,0.747681,
-1.6098,0.740051,
-1.62506,0.733948,
-1.64032,0.737,
-1.6571,0.741577,
-1.66931,0.747681,
-1.68915,0.744629,
-1.70441,0.733948,
-1.71967,0.740051,
-1.7334,0.743103,
-1.75018,0.743103,
-1.76697,0.743103,
-1.7807,0.732422,
-1.79138,0.737,
-1.80359,0.747681,
-1.8219,0.749207,
-1.83563,0.741577,
-1.85089,0.738525,
-1.86615,0.738525,
-1.87836,0.738525,
-1.89362,0.746155,
-1.90582,0.740051,
-1.91803,0.730896,
-1.93176,0.737,
-1.94397,0.746155,
-1.95618,0.744629,
-1.96686,0.741577,
-1.97601,0.733948,
-1.98669,0.737,
-1.9989,0.740051,
-2.01263,0.743103,
-2.02026,0.738525,
-2.03094,0.733948,
-2.04163,0.737,
-2.05078,0.743103,
-2.06451,0.746155,
-2.0752,0.740051,
-2.08588,0.733948,
-2.09961,0.740051,
-2.10419,0.740051,
-2.11792,0.746155,
-2.13318,0.738525,
-2.14386,0.733948,
-2.15607,0.740051,
-2.1637,0.744629,
-2.18048,0.749207,
-2.19116,0.737,
-2.20184,0.737,
-2.20795,0.737,
-2.22168,0.740051,
-2.23083,0.750732,
-2.24152,0.737,
-2.25067,0.732422,
-2.25983,0.741577,
-2.26898,0.741577,
-2.28119,0.747681,
-2.29187,0.743103,
-2.30408,0.733948,
-2.31934,0.738525,
-2.33765,0.741577,
-2.35596,0.747681,
-2.37427,0.741577,
-2.38647,0.730896,
-2.40021,0.738525,
-2.41547,0.744629,
-2.43225,0.746155,
-2.44751,0.743103,
-2.46124,0.733948,
-2.4704,0.733948,
-2.4826,0.740051,
-2.49176,0.750732,
-2.50397,0.740051,
-2.51465,0.733948,
-2.51923,0.738525,
-2.53296,0.743103,
-2.53906,0.750732,
-2.54974,0.741577,
-2.56653,0.732422,
-2.57721,0.738525,
-2.58636,0.740051,
-2.59399,0.749207,
-2.60773,0.743103,
-2.61841,0.732422,
-2.62299,0.740051,
-2.63062,0.743103,
-2.63977,0.749207,
-2.6535,0.741577,
-2.66113,0.733948,
-2.66876,0.737,
-2.67792,0.741577,
-2.68402,0.747681,
-2.69928,0.740051,
-2.70996,0.732422,
-2.71912,0.740051,
-2.72675,0.744629,
-2.73895,0.747681,
-2.74811,0.746155,
-2.75726,0.733948,
-2.771,0.737,
-2.78015,0.743103,
-2.79083,0.749207,
-2.80304,0.740051,
-2.81525,0.732422,
-2.82745,0.737,
-2.83813,0.744629,
-2.84729,0.747681,
-2.86407,0.743103,
-2.87781,0.732422,
-2.89001,0.741577,
-2.9068,0.741577,
-2.91901,0.746155,
-2.93427,0.744629,
-2.94495,0.730896,
-2.96631,0.738525,
-2.97699,0.747681,
-2.9892,0.750732,
-3.00293,0.740051,
-3.01514,0.732422,
-3.02887,0.737,
-3.04413,0.747681,
-3.05786,0.747681,
-3.07007,0.743103,
-3.0838,0.732422,
-3.09601,0.724792,
-3.10822,0.743103,
-3.11737,0.750732,
-3.12805,0.743103,
-3.13721,0.733948,
-3.14026,0.738525,
-3.13721,0.743103,
-3.13721,0.753784,
-3.1311,0.743103,
-3.12347,0.733948,
-3.10974,0.732422,
-3.09601,0.743103,
-3.07465,0.749207,
-3.05328,0.737,
-3.02887,0.730896,
-2.99835,0.737,
-2.96478,0.743103,
-2.93121,0.749207,
-2.89154,0.738525,
-2.85034,0.733948,
-2.80609,0.732422,
-2.75574,0.737,
-2.70844,0.747681,
-2.65503,0.740051,
-2.60773,0.732422,
-2.5589,0.730896,
-2.50397,0.741577,
-2.45514,0.747681,
-2.40021,0.740051,
-2.35138,0.72937,
-2.30103,0.730896,
-2.2522,0.738525,
-2.2049,0.747681,
-2.15912,0.741577,
-2.11639,0.732422,
-2.07367,0.727844,
-2.03857,0.738525,
-2.00195,0.744629,
-1.96533,0.738525,
-1.93329,0.732422,
-1.90582,0.733948,
-1.88141,0.743103,
-1.85242,0.746155,
-1.83411,0.737,
-1.8158,0.730896,
-1.79596,0.730896,
-1.78223,0.737,
-1.76697,0.743103,
-1.75018,0.740051,
-1.7395,0.72937,
-1.72882,0.72937,
-1.71967,0.733948,
-1.71204,0.743103,
-1.70288,0.733948,
-1.69525,0.730896,
-1.68762,0.727844,
-1.67694,0.747681,
-1.67389,0.741577,
-1.66779,0.733948,
-1.66626,0.727844,
-1.66168,0.727844,
-1.66321,0.732422,
-1.66168,0.744629,
-1.66473,0.738525,
-1.67084,0.724792,
-1.67542,0.724792,
-1.67542,0.733948,
-1.67847,0.744629,
-1.68762,0.732422,
-1.68762,0.727844,
-1.69373,0.727844,
-1.69983,0.72937,
-1.70441,0.741577,
-1.70898,0.737,
-1.71967,0.726318,
-1.72424,0.72937,
-1.72424,0.733948,
-1.7334,0.743103,
-1.7395,0.732422,
-1.74561,0.726318,
-1.75018,0.727844,
-1.75476,0.730896,
-1.75323,0.740051,
-1.75629,0.732422,
-1.76239,0.726318,
-1.76697,0.72937,
-1.76697,0.732422,
-1.77002,0.740051,
-1.7746,0.733948,
-1.77307,0.72937,
-1.77002,0.724792,
-1.77002,0.730896,
-1.76849,0.741577,
-1.76697,0.727844,
-1.76239,0.723267,
-1.75476,0.727844,
-1.74713,0.732422,
-1.74103,0.738525,
-1.73798,0.733948,
-1.7334,0.72937,
-1.72882,0.726318,
-1.71967,0.727844,
-1.71661,0.743103,
-1.70898,0.733948,
-1.70441,0.721741,
-1.69525,0.726318,
-1.68915,0.732422,
-1.68304,0.737,
-1.67694,0.72937,
-1.66626,0.726318,
-1.66016,0.727844,
-1.65253,0.732422,
-1.64185,0.737,
-1.64032,0.732422,
-1.63727,0.723267,
-1.62964,0.724792,
-1.63116,0.72937,
-1.63422,0.737,
-1.64185,0.72937,
-1.63879,0.721741,
-1.64185,0.724792,
-1.64185,0.730896,
-1.64642,0.733948,
-1.64948,0.730896,
-1.651,0.723267,
-1.65253,0.723267,
-1.65863,0.726318,
-1.66168,0.733948,
-1.66779,0.72937,
-1.67084,0.720215,
-1.67847,0.720215,
-1.68304,0.733948,
-1.6922,0.737,
-1.69373,0.732422,
-1.70288,0.715637,
-1.71204,0.727844,
-1.72577,0.72937,
-1.73187,0.730896,
-1.7395,0.724792,
-1.75018,0.720215,
-1.76697,0.717163,
-1.7807,0.724792,
-1.78986,0.730896,
-1.79901,0.72937,
-1.80969,0.723267,
-1.82037,0.721741,
-1.82648,0.730896,
-1.83868,0.737,
-1.85089,0.726318,
-1.86005,0.723267,
-1.86768,0.723267,
-1.87531,0.727844,
-1.88446,0.732422,
-1.89972,0.726318,
-1.90887,0.723267,
-1.91803,0.723267,
-1.92719,0.726318,
-1.93787,0.733948,
-1.94855,0.726318,
-1.95465,0.720215,
-1.96838,0.726318,
-1.97754,0.726318,
-1.98975,0.727844,
-2.00653,0.727844,
-2.01416,0.720215,
-2.02179,0.723267,
-2.03094,0.724792,
-2.04468,0.732422,
-2.05231,0.72937,
-2.06451,0.721741,
-2.07214,0.717163,
-2.07977,0.726318,
-2.09351,0.732422,
-2.10114,0.724792,
-2.11182,0.717163,
-2.11639,0.720215,
-2.12555,0.726318,
-2.13013,0.730896,
-2.13928,0.724792,
-2.14996,0.721741,
-2.16064,0.721741,
-2.16827,0.721741,
-2.17896,0.72937,
-2.18964,0.72937,
-2.20184,0.717163,
-2.21252,0.715637,
-2.22168,0.724792,
-2.23083,0.727844,
-2.23999,0.726318,
-2.25067,0.720215,
-2.26135,0.721741,
-2.27051,0.72937,
-2.27966,0.730896,
-2.28729,0.72937,
-2.30103,0.723267,
-2.30255,0.721741,
-2.31323,0.72937,
-2.32544,0.730896,
-2.33459,0.72937,
-2.34222,0.723267,
-2.35138,0.723267,
-2.36511,0.727844,
-2.37579,0.738525,
-2.38495,0.72937,
-2.39716,0.727844,
-2.39868,0.723267,
-2.41241,0.724792,
-2.42157,0.732422,
-2.42462,0.72937,
-2.43073,0.724792,
-2.44141,0.718689,
-2.44598,0.730896,
-2.45056,0.727844,
-2.45819,0.733948,
-2.46124,0.720215,
-2.46735,0.723267,
-2.47345,0.72937,
-2.47803,0.72937,
-2.48871,0.72937,
-2.49329,0.721741,
-2.50244,0.717163,
-2.50702,0.718689,
-2.51465,0.732422,
-2.5238,0.72937,
-2.53296,0.720215,
-2.53754,0.717163,
-2.54669,0.727844,
-2.55737,0.732422,
-2.565,0.723267,
-2.57263,0.721741,
-2.58026,0.717163,
-2.58636,0.723267,
-2.59247,0.726318,
-2.59705,0.724792,
-2.60468,0.715637,
-2.61078,0.717163,
-2.62299,0.724792,
-2.62451,0.727844,
-2.63519,0.726318,
-2.6413,0.712585,
-2.64893,0.721741,
-2.66113,0.724792,
-2.66876,0.724792,
-2.67639,0.724792,
-2.67944,0.718689,
-2.68707,0.717163,
-2.6947,0.724792,
-2.70233,0.72937,
-2.71149,0.726318,
-2.71912,0.720215,
-2.72522,0.717163,
-2.7359,0.723267,
-2.74353,0.72937,
-2.75269,0.726318,
-2.76184,0.718689,
-2.77252,0.720215,
-2.78168,0.726318,
-2.79236,0.727844,
-2.80304,0.726318,
-2.80762,0.720215,
-2.81372,0.721741,
-2.82135,0.726318,
-2.82593,0.730896,
-2.83356,0.72937,
-2.84119,0.717163,
-2.84882,0.720215,
-2.85492,0.727844,
-2.86255,0.72937,
-2.86713,0.72937,
-2.87323,0.714111,
-2.88239,0.720215,
-2.89001,0.727844,
-2.89459,0.730896,
-2.90527,0.724792,
-2.90833,0.721741,
-2.91595,0.718689,
-2.91595,0.724792,
-2.92358,0.732422,
-2.91595,0.726318,
-2.90527,0.718689,
-2.89307,0.724792,
-2.87933,0.730896,
-2.86255,0.732422,
-2.83813,0.72937,
-2.80457,0.727844,
-2.77405,0.721741,
-2.7359,0.726318,
-2.69012,0.72937,
-2.6474,0.730896,
-2.60162,0.720215,
-2.5589,0.718689,
-2.50549,0.732422,
-2.44904,0.732422,
-2.38953,0.726318,
-2.32697,0.720215,
-2.26288,0.720215,
-2.2049,0.730896,
-2.14386,0.730896,
-2.08282,0.730896,
-2.02179,0.721741,
-1.96228,0.720215,
-1.90125,0.72937,
-1.84021,0.732422,
-1.7868,0.727844,
-1.7395,0.718689,
-1.6922,0.720215,
-1.64337,0.724792,
-1.59607,0.733948,
-1.5564,0.723267,
-1.51978,0.718689,
-1.47858,0.723267,
-1.44806,0.727844,
-1.41754,0.733948,
-1.38855,0.727844,
-1.36261,0.718689,
-1.33362,0.720215,
-1.31531,0.723267,
-1.30005,0.730896,
-1.28479,0.730896,
-1.27106,0.718689,
-1.2558,0.723267,
-1.24512,0.72937,
-1.23901,0.732422,
-1.22833,0.730896,
-1.21765,0.720215,
-1.21307,0.718689,
-1.20697,0.726318,
-1.20239,0.733948,
-1.19781,0.72937,
-1.19476,0.720215,
-1.19324,0.724792,
-1.19476,0.72937,
-1.19476,0.732422,
-1.19934,0.730896,
-1.20239,0.723267,
-1.2085,0.720215,
-1.2146,0.727844,
-1.22528,0.733948,
-1.22986,0.730896,
-1.23444,0.717163,
-1.24054,0.720215,
-1.24817,0.730896,
-1.2619,0.732422,
-1.26953,0.730896,
-1.28479,0.721741,
-1.29089,0.721741,
-1.30463,0.72937,
-1.31683,0.732422,
-1.32751,0.72937,
-1.3382,0.718689,
-1.34888,0.720215,
-1.35803,0.72937,
-1.36871,0.72937,
-1.37939,0.72937,
-1.38855,0.723267,
-1.39618,0.720215,
-1.40381,0.72937,
-1.40839,0.732422,
-1.41602,0.72937,
-1.41754,0.723267,
-1.41754,0.720215,
-1.42059,0.727844,
-1.41907,0.730896,
-1.42212,0.726318,
-1.42059,0.723267,
-1.41907,0.720215,
-1.41754,0.732422,
-1.41449,0.732422,
-1.40991,0.732422,
-1.40839,0.723267,
-1.40533,0.714111,
-1.40381,0.72937,
-1.39618,0.732422,
-1.38855,0.732422,
-1.38245,0.721741,
-1.37939,0.721741,
-1.37024,0.732422,
-1.36108,0.733948,
-1.36108,0.730896,
-1.35498,0.726318,
-1.35193,0.723267,
-1.34583,0.730896,
-1.33972,0.733948,
-1.33972,0.72937,
-1.33514,0.723267,
-1.33514,0.723267,
-1.33514,0.733948,
-1.33514,0.737,
-1.33209,0.72937,
-1.33209,0.726318,
-1.33209,0.723267,
-1.33362,0.726318,
-1.33362,0.733948,
-1.33972,0.727844,
-1.34583,0.723267,
-1.34888,0.720215,
-1.35803,0.727844,
-1.36719,0.733948,
-1.37634,0.726318,
-1.3855,0.727844,
-1.39771,0.726318,
-1.41144,0.727844,
-1.42059,0.738525,
-1.4328,0.737,
-1.44501,0.723267,
-1.45111,0.721741,
-1.46332,0.72937,
-1.47247,0.733948,
-1.48315,0.72937,
-1.49078,0.726318,
-1.50146,0.723267,
-1.51215,0.730896,
-1.52283,0.740051,
-1.53503,0.732422,
-1.55029,0.724792,
-1.56555,0.721741,
-1.57623,0.72937,
-1.58691,0.737,
-1.59912,0.727844,
-1.61133,0.723267,
-1.62811,0.721741,
-1.63879,0.732422,
-1.6571,0.740051,
-1.67084,0.733948,
-1.68304,0.723267,
-1.70288,0.724792,
-1.71967,0.72937,
-1.7334,0.737,
-1.75018,0.72937,
-1.76697,0.723267,
-1.77917,0.724792,
-1.79291,0.72937,
-1.80664,0.738525,
-1.81885,0.72937,
-1.83411,0.721741,
-1.84479,0.724792,
-1.86005,0.726318,
-1.87378,0.737,
-1.88904,0.730896,
-1.89667,0.720215,
-1.9104,0.723267,
-1.92261,0.727844,
-1.93024,0.732422,
-1.94092,0.733948,
-1.95007,0.718689,
-1.9577,0.72937,
-1.96991,0.72937,
-1.97754,0.738525,
-1.99127,0.737,
-1.9989,0.726318,
-2.00958,0.727844,
-2.02026,0.730896,
-2.03094,0.733948,
-2.03857,0.727844,
-2.04926,0.723267,
-2.05231,0.720215,
-2.06451,0.730896,
-2.06909,0.737,
-2.07672,0.732422,
-2.08435,0.726318,
-2.09351,0.726318,
-2.09961,0.732422,
-2.10266,0.72937,
-2.11182,0.744629,
-2.11639,0.724792,
-2.1286,0.723267,
-2.13776,0.727844,
-2.14691,0.732422,
-2.15607,0.733948,
-2.1637,0.723267,
-2.1698,0.721741,
-2.18201,0.732422,
-2.18964,0.72937,
-2.19727,0.72937,
-2.2049,0.724792,
-2.21252,0.723267,
-2.21405,0.732422,
-2.22321,0.732422,
-2.23846,0.732422,
-2.24609,0.723267,
-2.25372,0.718689,
-2.26746,0.733948,
-2.27661,0.733948,
-2.28729,0.733948,
-2.2995,0.727844,
-2.31018,0.723267,
-2.32239,0.740051,
-2.33459,0.737,
-2.34528,0.730896,
-2.35748,0.727844,
-2.37427,0.723267,
-2.38647,0.732422,
-2.39716,0.737,
-2.40936,0.732422,
-2.4231,0.727844,
-2.43683,0.723267,
-2.45209,0.737,
-2.46582,0.744629,
-2.47955,0.737,
-2.48871,0.730896,
-2.50397,0.724792,
-2.5177,0.732422,
-2.53143,0.740051,
-2.54517,0.730896,
-2.5528,0.72937,
-2.565,0.723267,
-2.57721,0.732422,
-2.59247,0.743103,
-2.60162,0.732422,
-2.61688,0.72937,
-2.62604,0.727844,
-2.63824,0.737,
-2.6535,0.738525,
-2.67029,0.733948,
-2.68402,0.726318,
-2.69775,0.727844,
-2.71149,0.730896,
-2.72522,0.743103,
-2.73895,0.738525,
-2.75269,0.727844,
-2.76337,0.727844,
-2.7771,0.738525,
-2.79388,0.743103,
-2.80304,0.732422,
-2.81067,0.72937,
-2.8244,0.730896,
-2.83508,0.730896,
-2.84729,0.741577,
-2.86102,0.737,
-2.8717,0.726318,
-2.88086,0.730896,
-2.89154,0.741577,
-2.9068,0.741577,
-2.91443,0.741577,
-2.92053,0.726318,
-2.92358,0.72937,
-2.92511,0.732422,
-2.92206,0.738525,
-2.91595,0.737,
-2.9068,0.724792,
-2.89001,0.730896,
-2.86407,0.738525,
-2.83966,0.743103,
-2.81067,0.737,
-2.78473,0.72937,
-2.74658,0.727844,
-2.71149,0.737,
-2.66876,0.740051,
-2.62756,0.733948,
-2.58026,0.727844,
-2.53143,0.72937,
-2.48108,0.737,
-2.43073,0.738525,
-2.37732,0.740051,
-2.33154,0.730896,
-2.27203,0.727844,
-2.2171,0.738525,
-2.16675,0.741577,
-2.11639,0.737,
-2.06757,0.726318,
-2.01721,0.721741,
-1.96838,0.737,
-1.91956,0.732422,
-1.87378,0.732422,
-1.83258,0.72937,
-1.78986,0.724792,
-1.75476,0.738525,
-1.72119,0.743103,
-1.6861,0.737,
-1.6571,0.733948,
-1.62506,0.723267,
-1.60065,0.737,
-1.57166,0.741577,
-1.54877,0.738525,
-1.52893,0.726318,
-1.50909,0.721741,
-1.49689,0.732422,
-1.4801,0.740051,
-1.46942,0.737,
-1.45874,0.726318,
-1.45111,0.727844,
-1.44501,0.737,
-1.4389,0.740051,
-1.4389,0.733948,
-1.42975,0.72937,
-1.42822,0.72937,
-1.42517,0.737,
-1.42212,0.743103,
-1.42059,0.733948,
-1.42059,0.730896,
-1.4267,0.727844,
-1.42822,0.740051,
-1.43585,0.746155,
-1.44043,0.72937,
-1.44806,0.727844,
-1.45721,0.727844,
-1.46942,0.732422,
-1.48468,0.741577,
-1.49384,0.730896,
-1.50757,0.72937,
-1.51825,0.726318,
-1.5274,0.733948,
-1.54266,0.744629,
-1.55029,0.732422,
-1.56097,0.726318,
-1.57013,0.727844,
-1.57928,0.733948,
-1.58691,0.744629,
-1.59302,0.732422,
-1.60065,0.727844,
-1.60522,0.727844,
-1.61133,0.732422,
-1.61743,0.744629,
-1.62506,0.737,
-1.62964,0.727844,
-1.63269,0.730896,
-1.63574,0.732422,
-1.63727,0.741577,
-1.63879,0.733948,
-1.64337,0.72937,
-1.6449,0.726318,
-1.6449,0.737,
-1.64185,0.743103,
-1.64032,0.730896,
-1.63727,0.724792,
-1.63269,0.72937,
-1.62811,0.727844,
-1.62048,0.744629,
-1.61743,0.741577,
-1.61285,0.72937,
-1.60828,0.727844,
-1.60675,0.732422,
-1.60522,0.738525,
-1.6037,0.737,
-1.60217,0.72937,
-1.59607,0.726318,
-1.59454,0.733948,
-1.58691,0.738525,
-1.58539,0.738525,
-1.58539,0.730896,
-1.58234,0.724792,
-1.58386,0.740051,
-1.58386,0.743103,
-1.58386,0.737,
-1.58539,0.72937,
-1.58386,0.726318,
-1.58539,0.738525,
-1.58997,0.738525,
-1.59149,0.733948,
-1.59912,0.727844,
-1.60522,0.727844,
-1.61133,0.740051,
-1.62048,0.746155,
-1.63116,0.737,
-1.64032,0.730896,
-1.64795,0.726318,
-1.65863,0.738525,
-1.66931,0.741577,
-1.67694,0.730896,
-1.69525,0.727844,
-1.70288,0.724792,
-1.71509,0.733948,
-1.72729,0.744629,
-1.73645,0.732422,
-1.75018,0.737,
-1.76086,0.724792,
-1.7746,0.733948,
-1.78986,0.746155,
-1.79901,0.732422,
-1.81427,0.72937,
-1.828,0.721741,
-1.84479,0.730896,
-1.85394,0.743103,
-1.86615,0.730896,
-1.87683,0.72937,
-1.89362,0.727844,
-1.90582,0.737,
-1.91803,0.746155,
-1.93329,0.733948,
-1.95007,0.732422,
-1.96228,0.727844,
-1.97296,0.732422,
-1.98212,0.743103,
-1.99432,0.732422,
-2.00958,0.72937,
-2.02179,0.727844,
-2.03094,0.732422,
-2.04773,0.746155,
-2.05994,0.733948,
-2.07214,0.727844,
-2.08282,0.727844,
-2.10114,0.733948,
-2.11029,0.744629,
-2.1225,0.733948,
-2.13318,0.726318,
-2.14996,0.72937,
-2.15912,0.730896,
-2.16827,0.744629,
-2.18048,0.740051,
-2.19116,0.724792,
-2.20337,0.72937,
-2.21405,0.737,
-2.22321,0.747681,
-2.23999,0.737,
-2.25067,0.72937,
-2.25983,0.72937,
-2.27051,0.732422,
-2.28119,0.743103,
-2.28729,0.737,
-2.29797,0.727844,
-2.31018,0.730896,
-2.31781,0.738525,
-2.33154,0.743103,
-2.3407,0.740051,
-2.34833,0.72937,
-2.35901,0.727844,
-2.36969,0.72937,
-2.37885,0.741577,
-2.38495,0.738525,
-2.39105,0.72937,
-2.39563,0.726318,
-2.40784,0.733948,
-2.41699,0.744629,
-2.42615,0.737,
-2.43378,0.730896,
-2.43835,0.72937,
-2.44751,0.733948,
-2.45209,0.738525,
-2.46277,0.738525,
-2.4704,0.726318,
-2.47955,0.727844,
-2.48413,0.733948,
-2.49176,0.741577,
-2.50244,0.740051,
-2.51312,0.730896,
-2.52228,0.727844,
-2.53143,0.737,
-2.53906,0.743103,
-2.54517,0.733948,
-2.5528,0.730896,
-2.56195,0.727844,
-2.56653,0.737,
-2.57874,0.740051,
-2.58331,0.738525,
-2.59399,0.726318,
-2.60162,0.727844,
-2.60773,0.733948,
-2.61841,0.741577,
-2.62909,0.72937,
-2.63672,0.730896,
-2.64893,0.72937,
-2.65961,0.733948,
-2.66724,0.738525,
-2.68402,0.737,
-2.69318,0.72937,
-2.70233,0.740051,
-2.70996,0.730896,
-2.72369,0.743103,
-2.73285,0.733948,
-2.74506,0.72937,
-2.75574,0.72937,
-2.76642,0.738525,
-2.77557,0.741577,
-2.78931,0.738525,
-2.80457,0.730896,
-2.81219,0.72937,
-2.82288,0.72937,
-2.83508,0.743103,
-2.84729,0.738525,
-2.85645,0.730896,
-2.8595,0.732422,
-2.86255,0.732422,
-2.86713,0.740051,
-2.87018,0.737,
-2.86407,0.72937,
-2.85797,0.726318,
-2.84119,0.732422,
-2.8244,0.740051,
-2.80151,0.732422,
-2.77557,0.72937,
-2.74658,0.730896,
-2.70996,0.733948,
-2.67639,0.740051,
-2.63062,0.740051,
-2.58179,0.732422,
-2.52838,0.72937,
-2.4765,0.732422,
-2.42157,0.743103,
-2.36359,0.738525,
-2.2934,0.726318,
-2.23694,0.727844,
-2.1698,0.727844,
-2.10876,0.738525,
-2.05078,0.740051,
-1.98822,0.72937,
-1.93024,0.72937,
-1.87073,0.737,
-1.81122,0.737,
-1.75934,0.740051,
-1.70593,0.726318,
-1.66016,0.726318,
-1.61591,0.730896,
-1.57318,0.738525,
-1.5274,0.738525,
-1.49078,0.726318,
-1.44958,0.730896,
-1.41754,0.733948,
-1.38702,0.737,
-1.35651,0.741577,
-1.33209,0.72937,
-1.30463,0.723267,
-1.28174,0.738525,
-1.26343,0.737,
-1.24664,0.738525,
-1.23596,0.726318,
-1.22375,0.730896,
-1.21155,0.732422,
-1.20544,0.733948,
-1.19629,0.743103,
-1.19324,0.730896,
-1.19019,0.726318,
-1.18103,0.737,
-1.18408,0.738525,
-1.18103,0.732422,
-1.18103,0.724792,
-1.1795,0.727844,
-1.17798,0.730896,
-1.18408,0.732422,
-1.18713,0.738525,
-1.18713,0.72937,
-1.18561,0.723267,
-1.18866,0.730896,
-1.19781,0.741577,
-1.20087,0.737,
-1.21002,0.727844,
-1.21613,0.726318,
-1.22681,0.730896,
-1.24054,0.733948,
-1.25275,0.737,
-1.2619,0.723267,
-1.26801,0.72937,
-1.28479,0.733948,
-1.29089,0.740051,
-1.3031,0.733948,
-1.31683,0.72937,
-1.32751,0.727844,
-1.33362,0.737,
-1.3504,0.741577,
-1.35803,0.737,
-1.36108,0.727844,
-1.37024,0.72937,
-1.37634,0.72937,
-1.38245,0.740051,
-1.39008,0.737,
-1.39771,0.727844,
-1.40076,0.741577,
-1.40381,0.732422,
-1.39923,0.737,
-1.40381,0.737,
-1.40381,0.724792,
-1.40076,0.726318,
-1.39923,0.730896,
-1.39771,0.737,
-1.39771,0.733948,
-1.3916,0.72937,
-1.38855,0.727844,
-1.38245,0.730896,
-1.38245,0.738525,
-1.38092,0.737,
-1.37787,0.726318,
-1.37024,0.726318,
-1.36871,0.730896,
-1.36871,0.740051,
-1.36414,0.733948,
-1.35956,0.723267,
-1.35803,0.726318,
-1.35345,0.730896,
-1.3504,0.738525,
-1.35345,0.738525,
-1.34888,0.726318,
-1.34583,0.730896,
-1.3504,0.732422,
-1.34583,0.737,
-1.3504,0.737,
-1.35345,0.724792,
-1.35803,0.726318,
-1.36871,0.726318,
-1.37482,0.737,
-1.37787,0.738525,
-1.38245,0.726318,
-1.38855,0.724792,
-1.39313,0.730896,
-1.39771,0.733948,
-1.40381,0.738525,
-1.40991,0.72937,
-1.41754,0.727844,
-1.42517,0.72937,
-1.4328,0.733948,
-1.4389,0.737,
-1.44958,0.724792,
-1.46484,0.724792,
-1.47705,0.72937,
-1.48773,0.740051,
-1.50146,0.738525,
-1.51367,0.72937,
-1.52283,0.726318,
-1.53503,0.737,
-1.54877,0.738525,
-1.56555,0.733948,
-1.58081,0.727844,
-1.59912,0.726318,
-1.61285,0.733948,
-1.62964,0.733948,
-1.64185,0.737,
-1.65253,0.72937,
-1.66321,0.724792,
-1.67542,0.737,
-1.68915,0.741577,
-1.70288,0.740051,
-1.71814,0.727844,
-1.73187,0.724792,
-1.74561,0.730896,
-1.76086,0.741577,
-1.77307,0.738525,
-1.78375,0.730896,
-1.79596,0.727844,
-1.80817,0.732422,
-1.81885,0.740051,
-1.828,0.738525,
-1.84326,0.726318,
-1.86005,0.726318,
-1.87378,0.730896,
-1.89056,0.737,
-1.90277,0.738525,
-1.91193,0.727844,
-1.91956,0.726318,
-1.93024,0.730896,
-1.93787,0.740051,
-1.9516,0.737,
-1.96228,0.727844,
-1.96991,0.733948,
-1.98059,0.72937,
-1.98822,0.743103,
-1.9989,0.738525,
-2.00958,0.727844,
-2.02179,0.727844,
-2.02942,0.730896,
-2.04163,0.738525,
-2.05383,0.724792,
-2.06451,0.724792,
-2.07367,0.726318,
-2.0813,0.72937,
-2.09656,0.738525,
-2.10876,0.738525,
-2.11639,0.724792,
-2.12708,0.726318,
-2.13623,0.730896,
-2.14996,0.740051,
-2.15912,0.738525,
-2.17133,0.726318,
-2.18506,0.724792,
-2.18811,0.730896,
-2.19421,0.738525,
-2.20184,0.738525,
-2.21252,0.723267,
-2.22321,0.732422,
-2.23083,0.72937,
-2.24152,0.737,
-2.25067,0.738525,
-2.26135,0.726318,
-2.26898,0.726318,
-2.27203,0.730896,
-2.28271,0.738525,
-2.29797,0.737,
-2.30408,0.721741,
-2.31476,0.724792,
-2.32697,0.732422,
-2.33459,0.738525,
-2.34528,0.737,
-2.35748,0.724792,
-2.36511,0.724792,
-2.37427,0.730896,
-2.388,0.738525,
-2.39716,0.738525,
-2.41394,0.726318,
-2.42157,0.726318,
-2.43225,0.724792,
-2.44751,0.730896,
-2.45056,0.738525,
-2.46124,0.724792,
-2.4704,0.726318,
-2.47803,0.72937,
-2.48871,0.738525,
-2.50092,0.738525,
-2.5116,0.733948,
-2.52533,0.721741,
-2.53448,0.730896,
-2.54669,0.737,
-2.55737,0.737,
-2.56958,0.726318,
-2.58179,0.723267,
-2.59247,0.730896,
-2.60468,0.738525,
-2.61536,0.738525,
-2.62299,0.726318,
-2.63062,0.726318,
-2.64435,0.72937,
-2.65198,0.733948,
-2.66571,0.733948,
-2.67792,0.727844,
-2.6886,0.720215,
-2.70233,0.730896,
-2.72217,0.737,
-2.73285,0.737,
-2.74506,0.727844,
-2.76031,0.724792,
-2.771,0.730896,
-2.78015,0.738525,
-2.79236,0.737,
-2.80457,0.726318,
-2.8183,0.720215,
-2.82745,0.72937,
-2.83966,0.738525,
-2.85339,0.733948,
-2.86255,0.727844,
-2.8717,0.723267,
-2.88239,0.72937,
-2.89154,0.738525,
-2.9007,0.740051,
-2.90833,0.726318,
-2.91443,0.724792,
-2.91748,0.726318,
-2.92053,0.737,
-2.91748,0.732422,
-2.91901,0.727844,
-2.91443,0.724792,
-2.90985,0.726318,
-2.89917,0.740051,
-2.88696,0.738525,
-2.86865,0.72937,
-2.83966,0.726318,
-2.80609,0.727844,
-2.7771,0.741577,
-2.742,0.733948,
-2.70233,0.727844,
-2.65808,0.720215,
-2.6123,0.727844,
-2.56195,0.738525,
-2.50702,0.737,
-2.45209,0.730896,
-2.38953,0.727844,
-2.33307,0.732422,
-2.27356,0.738525,
-2.20947,0.738525,
-2.14996,0.726318,
-2.08588,0.726318,
-2.02332,0.726318,
-1.96228,0.738525,
-1.90582,0.733948,
-1.85242,0.732422,
-1.79443,0.727844,
-1.74713,0.730896,
-1.6983,0.738525,
-1.65405,0.738525,
-1.61743,0.72937,
-1.57928,0.72937,
-1.55029,0.727844,
-1.51978,0.737,
-1.48926,0.733948,
-1.46637,0.726318,
-1.44043,0.726318,
-1.41754,0.72937,
-1.40076,0.733948,
-1.38245,0.740051,
-1.37177,0.72937,
-1.35498,0.723267,
-1.34277,0.730896,
-1.33362,0.733948,
-1.33057,0.738525,
-1.33057,0.72937,
-1.32446,0.721741,
-1.32294,0.730896,
-1.31836,0.737,
-1.31531,0.737,
-1.31378,0.727844,
-1.31226,0.721741,
-1.31378,0.730896,
-1.31683,0.741577,
-1.31683,0.733948,
-1.32294,0.72937,
-1.32446,0.723267,
-1.33057,0.730896,
-1.33209,0.737,
-1.3382,0.733948,
-1.3443,0.727844,
-1.3504,0.721741,
-1.35345,0.732422,
-1.35956,0.737,
-1.37024,0.733948,
-1.38092,0.730896,
-1.39008,0.724792,
-1.39771,0.730896,
-1.40839,0.740051,
-1.41144,0.733948,
-1.42212,0.726318,
-1.43585,0.723267,
-1.44348,0.72937,
-1.44806,0.737,
-1.46027,0.738525,
-1.47247,0.724792,
-1.4801,0.723267,
-1.48773,0.72937,
-1.48926,0.740051,
-1.49994,0.738525,
-1.50146,0.727844,
-1.50757,0.726318,
-1.51367,0.72937,
-1.51672,0.740051,
-1.51978,0.732422,
-1.5213,0.727844,
-1.52283,0.724792,
-1.52588,0.730896,
-1.52893,0.741577,
-1.53351,0.740051,
-1.53198,0.727844,
-1.53198,0.723267,
-1.52893,0.730896,
-1.52588,0.740051,
-1.52588,0.730896,
-1.5213,0.727844,
-1.51978,0.727844,
-1.51825,0.726318,
-1.5152,0.741577,
-1.51215,0.737,
-1.50909,0.726318,
-1.50299,0.72937,
-1.50452,0.730896,
-1.50452,0.737,
-1.49841,0.738525,
-1.49078,0.726318,
-1.49078,0.726318,
-1.48773,0.726318,
-1.49078,0.732422,
-1.48926,0.737,
-1.48926,0.724792,
-1.49384,0.723267,
-1.49689,0.730896,
-1.50299,0.738525,
-1.50757,0.737,
-1.51367,0.727844,
-1.52283,0.723267,
-1.53046,0.724792,
-1.53503,0.737,
-1.54877,0.733948,
-1.5564,0.724792,
-1.56555,0.724792,
-1.57471,0.733948,
-1.58539,0.738525,
-1.59607,0.738525,
-1.6098,0.72937,
-1.61743,0.726318,
-1.63116,0.730896,
-1.64185,0.733948,
-1.6571,0.740051,
-1.67236,0.723267,
-1.68762,0.723267,
-1.70593,0.730896,
-1.71814,0.738525,
-1.73187,0.738525,
-1.75018,0.726318,
-1.76239,0.721741,
-1.77917,0.72937,
-1.79138,0.740051,
-1.80511,0.741577,
-1.8158,0.723267,
-1.83563,0.724792,
-1.84937,0.732422,
-1.86615,0.733948,
-1.88293,0.737,
-1.90125,0.724792,
-1.92261,0.724792,
-1.93634,0.737,
-1.9516,0.741577,
-1.96991,0.738525,
-1.98822,0.726318,
-1.9989,0.721741,
-2.01416,0.733948,
-2.02789,0.733948,
-2.04315,0.733948,
-2.05994,0.72937,
-2.07214,0.720215,
-2.08893,0.72937,
-2.10419,0.741577,
-2.11487,0.737,
-2.1286,0.72937,
-2.14081,0.724792,
-2.15607,0.730896,
-2.1637,0.740051,
-2.17438,0.737,
-2.18658,0.730896,
-2.19727,0.721741,
-2.2049,0.72937,
-2.21863,0.741577,
-2.22778,0.740051,
-2.23846,0.72937,
-2.24915,0.724792,
-2.25983,0.72937,
-2.27051,0.741577,
-2.27966,0.737,
-2.28882,0.730896,
-2.2934,0.721741,
-2.30408,0.726318,
-2.31018,0.733948,
-2.32239,0.730896,
-2.33612,0.72937,
-2.3468,0.726318,
-2.35901,0.730896,
-2.37122,0.741577,
-2.37732,0.733948,
-2.38495,0.727844,
-2.3941,0.723267,
-2.40784,0.730896,
-2.41852,0.737,
-2.42615,0.730896,
-2.43683,0.727844,
-2.45514,0.724792,
-2.46429,0.72937,
-2.47192,0.741577,
-2.48413,0.737,
-2.49634,0.724792,
-2.50397,0.727844,
-2.5116,0.733948,
-2.52075,0.738525,
-2.52838,0.72937,
-2.53448,0.727844,
-2.54364,0.723267,
-2.55737,0.727844,
-2.56653,0.737,
-2.57874,0.738525,
-2.58942,0.72937,
-2.59857,0.726318,
-2.6123,0.72937,
-2.62756,0.738525,
-2.63824,0.738525,
-2.65503,0.72937,
-2.66266,0.726318,
-2.67487,0.727844,
-2.6825,0.733948,
-2.69775,0.733948,
-2.70844,0.723267,
-2.71454,0.723267,
-2.72369,0.72937,
-2.73285,0.733948,
-2.742,0.740051,
-2.74963,0.72937,
-2.76031,0.721741,
-2.76794,0.72937,
-2.77252,0.737,
-2.78625,0.737,
-2.80151,0.726318,
-2.81067,0.721741,
-2.82135,0.730896,
-2.83356,0.732422,
-2.84424,0.737,
-2.85492,0.72937,
-2.8656,0.720215,
-2.87323,0.732422,
-2.88544,0.737,
-2.89612,0.738525,
-2.90985,0.730896,
-2.91595,0.723267,
-2.92664,0.732422,
-2.93732,0.737,
-2.94647,0.732422,
-2.95563,0.726318,
-2.96631,0.720215,
-2.97852,0.727844,
-2.99377,0.737,
-3.00446,0.730896,
-3.01666,0.72937,
-3.0304,0.727844,
-3.0426,0.72937,
-3.05634,0.743103,
-3.06549,0.733948,
-3.07465,0.726318,
-3.08838,0.723267,
-3.09753,0.727844,
-3.11279,0.738525,
-3.12347,0.730896,
-3.13416,0.726318,
-3.14026,0.720215,
-3.14941,0.72937,
-3.15704,0.743103,
-3.16772,0.733948,
-3.17078,0.727844,
-3.17535,0.727844,
-3.17993,0.737,
-3.18604,0.738525,
-3.18604,0.733948,
-3.18909,0.727844,
-3.18909,0.724792,
-3.18298,0.726318,
-3.17841,0.737,
-3.1662,0.733948,
-3.15094,0.727844,
-3.12958,0.721741,
-3.10211,0.730896,
-3.07617,0.737,
-3.04718,0.738525,
-3.00903,0.727844,
-2.97089,0.720215,
-2.92664,0.724792,
-2.88086,0.737,
-2.83203,0.737,
-2.7771,0.726318,
-2.72369,0.721741,
-2.67029,0.727844,
-2.61841,0.732422,
-2.56195,0.733948,
-2.50092,0.732422,
-2.44446,0.723267,
-2.39258,0.727844,
-2.33612,0.733948,
-2.29034,0.737,
-2.23999,0.726318,
-2.18506,0.723267,
-2.13623,0.726318,
-2.09503,0.730896,
-2.04926,0.732422,
-2.00653,0.730896,
-1.96686,0.721741,
-1.92871,0.726318,
-1.89819,0.738525,
-1.86462,0.737,
-1.83411,0.72937,
-1.8158,0.718689,
-1.78833,0.727844,
-1.76849,0.732422,
-1.75323,0.732422,
-1.7395,0.72937,
-1.73187,0.723267,
-1.71814,0.724792,
-1.70898,0.738525,
-1.70135,0.72937,
-1.6983,0.730896,
-1.69067,0.724792,
-1.68915,0.72937,
-1.6922,0.732422,
-1.69067,0.733948,
-1.68762,0.727844,
-1.68915,0.718689,
-1.6861,0.723267,
-1.68762,0.738525,
-1.69067,0.727844,
-1.69525,0.726318,
-1.69525,0.720215,
-1.69678,0.724792,
-1.70135,0.737,
-1.70593,0.733948,
-1.71661,0.727844,
-1.72272,0.724792,
-1.72882,0.724792,
-1.73645,0.746155,
-1.74713,0.727844,
-1.75629,0.727844,
-1.76086,0.726318,
-1.77002,0.723267,
-1.77612,0.733948,
-1.78833,0.727844,
-1.79901,0.726318,
-1.80206,0.724792,
-1.81427,0.727844,
-1.8219,0.733948,
-1.83258,0.730896,
-1.83868,0.72937,
-1.84479,0.720215,
-1.85089,0.720215,
-1.85547,0.732422,
-1.86768,0.738525,
-1.87378,0.726318,
-1.87531,0.723267,
-1.88293,0.72937,
-1.88904,0.730896,
-1.88599,0.738525,
-1.88904,0.727844,
-1.89362,0.721741,
-1.89819,0.72937,
-1.89514,0.733948,
-1.89667,0.732422,
-1.89972,0.723267,
-1.89514,0.720215,
-1.89362,0.724792,
-1.89667,0.730896,
-1.89209,0.733948,
-1.89056,0.727844,
-1.88446,0.721741,
-1.87683,0.730896,
-1.87225,0.733948,
-1.86768,0.733948,
-1.86462,0.727844,
-1.86005,0.718689,
-1.85547,0.727844,
-1.85547,0.730896,
-1.85242,0.72937,
-1.85394,0.726318,
-1.85242,0.720215,
-1.85699,0.727844,
-1.85699,0.732422,
-1.86462,0.732422,
-1.86615,0.72937,
-1.87073,0.721741,
-1.87836,0.72937,
-1.88293,0.737,
-1.88904,0.72937,
-1.89209,0.727844,
-1.89972,0.720215,
-1.9043,0.723267,
-1.91193,0.732422,
-1.92108,0.732422,
-1.92871,0.72937,
-1.93176,0.721741,
-1.94397,0.727844,
-1.95465,0.738525,
-1.96686,0.72937,
-1.97601,0.72937,
-1.98975,0.721741,
-1.9989,0.724792,
-2.01263,0.732422,
-2.02332,0.72937,
-2.03705,0.727844,
-2.05383,0.721741,
-2.06757,0.724792,
-2.0752,0.72937,
-2.08893,0.732422,
-2.10571,0.724792,
-2.11487,0.724792,
-2.12555,0.723267,
-2.13928,0.737,
-2.15454,0.723267,
-2.1637,0.720215,
-2.17896,0.721741,
-2.18658,0.723267,
-2.19879,0.730896,
-2.21405,0.733948,
-2.22321,0.723267,
-2.23083,0.723267,
-2.24457,0.721741,
-2.25525,0.743103,
-2.26898,0.737,
-2.28729,0.726318,
-2.29797,0.720215,
-2.30865,0.724792,
-2.32086,0.737,
-2.33307,0.730896,
-2.34375,0.727844,
-2.35596,0.721741,
-2.36816,0.72937,
-2.37579,0.730896,
-2.388,0.732422,
-2.40021,0.726318,
-2.40631,0.721741,
-2.42004,0.726318,
-2.42462,0.733948,
-2.4353,0.733948,
-2.44751,0.727844,
-2.45361,0.723267,
-2.45667,0.723267,
-2.46735,0.727844,
-2.47803,0.730896,
-2.48566,0.727844,
-2.49481,0.721741,
-2.50244,0.724792,
-2.50854,0.733948,
-2.52075,0.732422,
-2.52533,0.72937,
-2.53296,0.723267,
-2.53754,0.721741,
-2.54974,0.732422,
-2.55737,0.727844,
-2.565,0.724792,
-2.57568,0.718689,
-2.58636,0.723267,
-2.59552,0.732422,
-2.60162,0.727844,
-2.61536,0.724792,
-2.61993,0.717163,
-2.63214,0.726318,
-2.63977,0.732422,
-2.65198,0.732422,
-2.66113,0.724792,
-2.67029,0.721741,
-2.68097,0.723267,
-2.68707,0.733948,
-2.69623,0.72937,
-2.70996,0.721741,
-2.72217,0.721741,
-2.72522,0.718689,
-2.73285,0.730896,
-2.742,0.732422,
-2.75116,0.724792,
-2.76184,0.727844,
-2.76489,0.726318,
-2.7771,0.732422,
-2.78168,0.737,
-2.78625,0.723267,
-2.79388,0.720215,
-2.80304,0.723267,
-2.80762,0.730896,
-2.81525,0.72937,
-2.8244,0.723267,
-2.83051,0.727844,
-2.83661,0.723267,
-2.84271,0.730896,
-2.84729,0.737,
-2.85339,0.726318,
-2.86255,0.720215,
-2.87018,0.723267,
-2.88086,0.738525,
-2.89154,0.732422,
-2.89917,0.723267,
-2.90985,0.720215,
-2.91901,0.724792,
-2.93427,0.730896,
-2.94647,0.732422,
-2.95715,0.723267,
-2.97089,0.709534,
-2.98157,0.720215,
-2.99683,0.732422,
-3.0014,0.730896,
-3.00903,0.724792,
-3.01666,0.721741,
-3.02734,0.724792,
-3.03802,0.733948,
-3.04565,0.733948,
-3.05634,0.720215,
-3.07007,0.721741,
-3.08075,0.721741,
-3.09143,0.733948,
-3.10059,0.727844,
-3.10974,0.723267,
-3.1189,0.721741,
-3.125,0.724792,
-3.14026,0.732422,
-3.15094,0.72937,
-3.15704,0.724792,
-3.16925,0.720215,
-3.17688,0.721741,
-3.18756,0.732422,
-3.19824,0.72937,
-3.20892,0.721741,
-3.21503,0.718689,
-3.23029,0.721741,
-3.24097,0.730896,
-3.25012,0.732422,
-3.26233,0.723267,
-3.26691,0.723267,
-3.27148,0.723267,
-3.27759,0.732422,
-3.28827,0.72937,
-3.28979,0.721741,
-3.29132,0.718689,
-3.29285,0.721741,
-3.28979,0.72937,
-3.28217,0.72937,
-3.27606,0.723267,
-3.26233,0.720215,
-3.24554,0.721741,
-3.22571,0.727844,
-3.20129,0.732422,
-3.17383,0.723267,
-3.14331,0.721741,
-3.10822,0.724792,
-3.07007,0.727844,
-3.03345,0.733948,
-2.98615,0.721741,
-2.94342,0.720215,
-2.9007,0.718689,
-2.85339,0.727844,
-2.80151,0.72937,
-2.75574,0.723267,
-2.70538,0.714111,
-2.65656,0.723267,
-2.61078,0.741577,
-2.56195,0.726318,
-2.51923,0.721741,
-2.46582,0.721741,
-2.4231,0.723267,
-2.38342,0.732422,
-2.34528,0.727844,
-2.31171,0.723267,
-2.27814,0.717163,
-2.24457,0.723267,
-2.21252,0.730896,
-2.18048,0.726318,
-2.15149,0.721741,
-2.12097,0.721741,
-2.09808,0.721741,
-2.07672,0.732422,
-2.05841,0.72937,
-2.03705,0.726318,
-2.02179,0.718689,
-2.00958,0.721741,
-1.9989,0.730896,
-1.99127,0.726318,
-1.98669,0.721741,
-1.98212,0.721741,
-1.97296,0.720215,
-1.97601,0.72937,
-1.97144,0.730896,
-1.96838,0.721741,
-1.96838,0.723267,
-1.97144,0.723267,
-1.97144,0.72937,
-1.97296,0.730896,
-1.97754,0.724792,
-1.97601,0.718689,
-1.98059,0.720215,
-1.98212,0.727844,
-1.98364,0.730896,
-1.98822,0.720215,
-1.99585,0.714111,
-1.99738,0.721741,
-2.01111,0.72937,
-2.01416,0.72937,
-2.02179,0.723267,
-2.03094,0.721741,
-2.04468,0.723267,
-2.05383,0.730896,
-2.05994,0.733948,
-2.06757,0.724792,
-2.07672,0.714111,
-2.08282,0.720215,
-2.0874,0.726318,
-2.09808,0.72937,
-2.10571,0.721741,
-2.11029,0.718689,
-2.11792,0.721741,
-2.12708,0.732422,
-2.1347,0.730896,
-2.13928,0.724792,
-2.14386,0.718689,
-2.14996,0.720215,
-2.15302,0.727844,
-2.15302,0.72937,
-2.15607,0.720215,
-2.15912,0.717163,
-2.15302,0.720215,
-2.15149,0.727844,
-2.14996,0.724792,
-2.14539,0.724792,
-2.13928,0.717163,
-2.13776,0.720215,
-2.13318,0.730896,
-2.12555,0.730896,
-2.11334,0.723267,
-2.11182,0.720215,
-2.10571,0.720215,
-2.09961,0.72937,
-2.09198,0.726318,
-2.0874,0.721741,
-2.08435,0.718689,
-2.07825,0.720215,
-2.07062,0.72937,
-2.06757,0.726318,
-2.06299,0.720215,
-2.05536,0.718689,
-2.05078,0.720215,
-2.04315,0.72937,
-2.04468,0.72937,
-2.0401,0.721741,
-2.03552,0.721741,
-2.034,0.717163,
-2.02942,0.724792,
-2.03094,0.730896,
-2.03094,0.723267,
-2.034,0.718689,
-2.04315,0.720215,
-2.04468,0.727844,
-2.05078,0.733948,
-2.05536,0.723267,
-2.05536,0.720215,
-2.06909,0.721741,
-2.07977,0.727844,
-2.08435,0.730896,
-2.09351,0.717163,
-2.10114,0.717163,
-2.11334,0.718689,
-2.1225,0.724792,
-2.13318,0.727844,
-2.13928,0.723267,
-2.15302,0.715637,
-2.16522,0.721741,
-2.1759,0.730896,
-2.18811,0.727844,
-2.20184,0.721741,
-2.21252,0.717163,
-2.22626,0.721741,
-2.23236,0.72937,
-2.24609,0.727844,
-2.25677,0.721741,
-2.27051,0.714111,
-2.28424,0.720215,
-2.2934,0.730896,
-2.31018,0.724792,
-2.32239,0.723267,
-2.33459,0.717163,
-2.34375,0.718689,
-2.35748,0.727844,
-2.36664,0.726318,
-2.37274,0.718689,
-2.38037,0.714111,
-2.39105,0.717163,
-2.39868,0.726318,
-2.40936,0.724792,
-2.42157,0.715637,
-2.43225,0.720215,
-2.44598,0.718689,
-2.45667,0.726318,
-2.46735,0.727844,
-2.4826,0.718689,
-2.49329,0.720215,
-2.50244,0.721741,
-2.51007,0.726318,
-2.5177,0.726318,
-2.52991,0.718689,
-2.53754,0.718689,
-2.54669,0.717163,
-2.56042,0.727844,
-2.56958,0.726318,
-2.58179,0.717163,
-2.59399,0.718689,
-2.6062,0.720215,
-2.61993,0.72937,
-2.62909,0.72937,
-2.63519,0.718689,
-2.64435,0.717163,
-2.64587,0.720215,
-2.6535,0.724792,
-2.65656,0.726318,
-2.66571,0.717163,
-2.67639,0.715637,
-2.68097,0.718689,
-2.68402,0.723267,
-2.69165,0.726318,
-2.69928,0.720215,
-2.70844,0.715637,
-2.71606,0.718689,
-2.72217,0.726318,
-2.73438,0.726318,
-2.73743,0.718689,
-2.74353,0.712585,
-2.74811,0.721741,
-2.75421,0.724792,
-2.76031,0.730896,
-2.76947,0.718689,
-2.77405,0.715637,
-2.78015,0.721741,
-2.78473,0.72937,
-2.79388,0.72937,
-2.79999,0.715637,
-2.80457,0.715637,
-2.81372,0.718689,
-2.82288,0.723267,
-2.83203,0.724792,
-2.83508,0.717163,
-2.84424,0.712585,
-2.85034,0.717163,
-2.8595,0.724792,
-2.86713,0.727844,
-2.87018,0.718689,
-2.87781,0.718689,
-2.87933,0.718689,
-2.88239,0.727844,
-2.89001,0.726318,
-2.89764,0.715637,
-2.9068,0.714111,
-2.91138,0.715637,
-2.92053,0.726318,
-2.92511,0.727844,
-2.93427,0.717163,
-2.94189,0.717163,
-2.948,0.715637,
-2.95258,0.72937,
-2.95715,0.72937,
-2.97089,0.715637,
-2.97699,0.717163,
-2.98462,0.720215,
-2.9892,0.726318,
-2.99683,0.72937,
-3.00446,0.718689,
-3.00903,0.712585,
-3.02277,0.715637,
-3.0304,0.724792,
-3.04108,0.730896,
-3.05634,0.715637,
-3.06549,0.714111,
-3.07159,0.718689,
-3.08075,0.727844,
-3.08838,0.733948,
-3.09753,0.721741,
-3.10516,0.714111,
-3.11127,0.717163,
-3.125,0.723267,
-3.13721,0.727844,
-3.14941,0.714111,
-3.15857,0.714111,
-3.16772,0.720215,
-3.17841,0.724792,
-3.18756,0.72937,
-3.19214,0.717163,
-3.20587,0.714111,
-3.21808,0.720215,
-3.22876,0.726318,
-3.23486,0.726318,
-3.24402,0.717163,
-3.25317,0.712585,
-3.25623,0.721741,
-3.2608,0.723267,
-3.25775,0.726318,
-3.25623,0.718689,
-3.24707,0.71106,
-3.24097,0.718689,
-3.22876,0.724792,
-3.21198,0.724792,
-3.18756,0.720215,
-3.16925,0.70343,
-3.13721,0.718689,
-3.10516,0.721741,
-3.07159,0.723267,
-3.0365,0.720215,
-2.99988,0.714111,
-2.96326,0.721741,
-2.92053,0.726318,
-2.88544,0.727844,
-2.84424,0.718689,
-2.80304,0.714111,
-2.75726,0.717163,
-2.71454,0.727844,
-2.66876,0.723267,
-2.62756,0.718689,
-2.58942,0.708008,
-2.54364,0.717163,
-2.50702,0.723267,
-2.47192,0.721741,
-2.43378,0.717163,
-2.40173,0.71106,
-2.36969,0.718689,
-2.34375,0.726318,
-2.31476,0.727844,
-2.29034,0.714111,
-2.26898,0.71106,
-2.24609,0.717163,
-2.22931,0.723267,
-2.211,0.726318,
-2.19116,0.717163,
-2.18201,0.717163,
-2.16675,0.715637,
-2.15912,0.720215,
-2.14996,0.727844,
-2.14386,0.714111,
-2.13776,0.715637,
-2.13776,0.720215,
-2.13776,0.726318,
-2.13776,0.727844,
-2.13623,0.715637,
-2.14081,0.717163,
-2.14233,0.717163,
-2.14691,0.723267,
-2.15302,0.724792,
-2.16064,0.717163,
-2.16675,0.720215,
-2.17438,0.717163,
-2.17438,0.721741,
-2.18658,0.72937,
-2.19269,0.717163,
-2.20184,0.715637,
-2.20795,0.721741,
-2.21558,0.721741,
-2.22321,0.724792,
-2.23389,0.717163,
-2.24609,0.712585,
-2.25372,0.717163,
-2.2644,0.720215,
-2.27356,0.726318,
-2.28729,0.720215,
-2.29187,0.709534,
-2.30255,0.718689,
-2.31476,0.724792,
-2.32239,0.726318,
-2.32849,0.720215,
-2.33307,0.71106,
-2.33765,0.718689,
-2.3407,0.721741,
-2.34528,0.721741,
-2.3468,0.717163,
-2.35443,0.712585,
-2.35596,0.717163,
-2.35596,0.727844,
-2.35748,0.733948,
-2.35901,0.720215,
-2.35748,0.712585,
-2.35596,0.715637,
-2.34833,0.723267,
-2.34222,0.723267,
-2.33459,0.718689,
-2.32544,0.70343,
-2.31476,0.712585,
-2.30713,0.720215,
-2.29645,0.724792,
-2.28424,0.718689,
-2.27203,0.712585,
-2.2583,0.715637,
-2.24915,0.726318,
-2.23846,0.723267,
-2.22473,0.720215,
-2.211,0.71106,
-2.20184,0.714111,
-2.19574,0.724792,
-2.18353,0.724792,
-2.17438,0.715637,
-2.16522,0.709534,
-2.16064,0.717163,
-2.15607,0.726318,
-2.15454,0.724792,
-2.14233,0.715637,
-2.14081,0.714111,
-2.13776,0.720215,
-2.1347,0.724792,
-2.13318,0.724792,
-2.13318,0.717163,
-2.13928,0.71106,
-2.13776,0.714111,
-2.13776,0.720215,
-2.14386,0.724792,
-2.15149,0.715637,
-2.15607,0.714111,
-2.16217,0.718689,
-2.1698,0.721741,
-2.1759,0.724792,
-2.18201,0.718689,
-2.18506,0.714111,
-2.19421,0.717163,
-2.20032,0.723267,
-2.20337,0.726318,
-2.211,0.715637,
-2.21863,0.71106,
-2.22321,0.714111,
-2.23083,0.721741,
-2.23694,0.720215,
-2.24457,0.718689,
-2.25372,0.71106,
-2.25983,0.715637,
-2.26746,0.721741,
-2.27356,0.723267,
-2.28119,0.718689,
-2.28577,0.712585,
-2.29645,0.717163,
-2.30713,0.720215,
-2.31628,0.721741,
-2.32849,0.718689,
-2.33612,0.708008,
-2.34528,0.718689,
-2.36053,0.723267,
-2.37122,0.720215,
-2.37732,0.720215,
-2.38953,0.714111,
-2.39868,0.714111,
-2.40936,0.723267,
-2.42462,0.720215,
-2.43683,0.715637,
-2.44293,0.709534,
-2.45056,0.71106,
-2.46124,0.721741,
-2.47345,0.717163,
-2.48108,0.715637,
-2.49023,0.714111,
-2.50092,0.712585,
-2.50854,0.723267,
-2.5116,0.723267,
-2.52228,0.717163,
-2.53143,0.714111,
-2.53754,0.712585,
-2.54211,0.721741,
-2.54974,0.720215,
-2.55432,0.721741,
-2.56195,0.712585,
-2.56805,0.706482,
-2.57263,0.717163,
-2.58026,0.720215,
-2.58942,0.715637,
-2.59247,0.718689,
-2.6001,0.71106,
-2.6062,0.720215,
-2.61078,0.737,
-2.61993,0.717163,
-2.62299,0.714111,
-2.62909,0.714111,
-2.63214,0.721741,
-2.63672,0.721741,
-2.63977,0.714111,
-2.6474,0.714111,
-2.65503,0.712585,
-2.65503,0.717163,
-2.66113,0.723267,
-2.66571,0.717163,
-2.66724,0.712585,
-2.67639,0.714111,
-2.68402,0.718689,
-2.6886,0.724792,
-2.69928,0.717163,
-2.70538,0.714111,
-2.71301,0.71106,
-2.72064,0.720215,
-2.72827,0.718689,
-2.73895,0.717163,
-2.74353,0.709534,
-2.74811,0.712585,
-2.75574,0.721741,
-2.76184,0.720215,
-2.76642,0.718689,
-2.77405,0.715637,
-2.78168,0.71106,
-2.78625,0.718689,
-2.79388,0.717163,
-2.79388,0.717163,
-2.80304,0.712585,
-2.80762,0.709534,
-2.8183,0.720215,
-2.83203,0.717163,
-2.84119,0.718689,
-2.84882,0.712585,
-2.8595,0.712585,
-2.86865,0.721741,
-2.88086,0.720215,
-2.88544,0.717163,
-2.89154,0.71106,
-2.89764,0.709534,
-2.9068,0.727844,
-2.91595,0.717163,
-2.92664,0.717163,
-2.94189,0.715637,
-2.94495,0.708008,
-2.95563,0.723267,
-2.96631,0.718689,
-2.97394,0.720215,
-2.98004,0.712585,
-2.99377,0.71106,
-3.0014,0.723267,
-3.01208,0.724792,
-3.02124,0.717163,
-3.03345,0.712585,
-3.03802,0.71106,
-3.04565,0.718689,
-3.05634,0.720215,
-3.06702,0.715637,
-3.07312,0.712585,
-3.07617,0.71106,
-3.0838,0.717163,
-3.09143,0.726318,
-3.09143,0.717163,
-3.08838,0.712585,
-3.08685,0.714111,
-3.0838,0.715637,
-3.07465,0.720215,
-3.06091,0.717163,
-3.04718,0.71106,
-3.03345,0.712585,
-3.00751,0.718689,
-2.98004,0.720215,
-2.95563,0.717163,
-2.92511,0.712585,
-2.88391,0.709534,
-2.85339,0.718689,
-2.81219,0.723267,
-2.77557,0.717163,
-2.73438,0.71106,
-2.68707,0.709534,
-2.64435,0.721741,
-2.6001,0.718689,
-2.55432,0.717163,
-2.50702,0.709534,
-2.45819,0.71106,
-2.41394,0.721741,
-2.36511,0.717163,
-2.31781,0.717163,
-2.27661,0.712585,
-2.22778,0.709534,
-2.19269,0.717163,
-2.15302,0.718689,
-2.11792,0.715637,
-2.07977,0.709534,
-2.04773,0.708008,
-2.01721,0.717163,
-1.98669,0.721741,
-1.96075,0.714111,
-1.93481,0.708008,
-1.9104,0.71106,
-1.89667,0.723267,
-1.87836,0.721741,
-1.8631,0.714111,
-1.84479,0.712585,
-1.83563,0.71106,
-1.8219,0.723267,
-1.81122,0.720215,
-1.80206,0.717163,
-1.79291,0.709534,
-1.78528,0.708008,
-1.78223,0.718689,
-1.77917,0.721741,
-1.7746,0.712585,
-1.77765,0.712585,
-1.77307,0.71106,
-1.77002,0.717163,
-1.77307,0.723267,
-1.77765,0.717163,
-1.78223,0.714111,
-1.78375,0.70343,
-1.7868,0.718689,
-1.78986,0.721741,
-1.79138,0.712585,
-1.79749,0.71106,
-1.80206,0.709534,
-1.80664,0.717163,
-1.81274,0.723267,
-1.8158,0.715637,
-1.81732,0.708008,
-1.82648,0.709534,
-1.83105,0.718689,
-1.84174,0.723267,
-1.85242,0.715637,
-1.86768,0.709534,
-1.87378,0.71106,
-1.87988,0.718689,
-1.88904,0.717163,
-1.89362,0.715637,
-1.90277,0.709534,
-1.9104,0.71106,
-1.91498,0.720215,
-1.91956,0.715637,
-1.92413,0.718689,
-1.93176,0.71106,
-1.93481,0.708008,
-1.93329,0.723267,
-1.93329,0.718689,
-1.93787,0.715637,
-1.93787,0.709534,
-1.93939,0.709534,
-1.93634,0.720215,
-1.93329,0.717163,
-1.92871,0.715637,
-1.92413,0.709534,
-1.92108,0.709534,
-1.92413,0.718689,
-1.91956,0.721741,
-1.91498,0.717163,
-1.9104,0.712585,
-1.90735,0.709534,
-1.90277,0.718689,
-1.89972,0.723267,
-1.89514,0.714111,
-1.89056,0.71106,
-1.89362,0.71106,
-1.89362,0.721741,
-1.88904,0.721741,
-1.89056,0.715637,
-1.89209,0.712585,
-1.89362,0.712585,
-1.89362,0.720215,
-1.89209,0.723267,
-1.89056,0.715637,
-1.89667,0.709534,
-1.89514,0.709534,
-1.89667,0.720215,
-1.89667,0.724792,
-1.89972,0.712585,
-1.90582,0.709534,
-1.9104,0.709534,
-1.91956,0.717163,
-1.92871,0.723267,
-1.93787,0.718689,
-1.94702,0.708008,
-1.95313,0.712585,
-1.96381,0.721741,
-1.96991,0.720215,
-1.98059,0.715637,
-1.98364,0.709534,
-1.99127,0.71106,
-1.9989,0.717163,
-2.00195,0.718689,
-2.00958,0.715637,
-2.01416,0.70343,
-2.02332,0.71106,
-2.034,0.718689,
-2.04468,0.717163,
-2.05078,0.715637,
-2.05994,0.71106,
-2.07062,0.714111,
-2.0813,0.717163,
-2.09351,0.720215,
-2.10724,0.717163,
-2.11792,0.706482,
-2.13165,0.709534,
-2.14386,0.718689,
-2.15607,0.718689,
-2.16522,0.717163,
-2.17133,0.709534,
-2.18506,0.714111,
-2.19574,0.724792,
-2.211,0.720215,
-2.22321,0.717163,
-2.23694,0.708008,
-2.24457,0.71106,
-2.25525,0.715637,
-2.27203,0.721741,
-2.27814,0.714111,
-2.29187,0.700378,
-2.30103,0.706482,
-2.31018,0.721741,
-2.32239,0.723267,
-2.33154,0.712585,
-2.34222,0.712585,
-2.34985,0.712585,
-2.35901,0.718689,
-2.36511,0.724792,
-2.37579,0.715637,
-2.38647,0.71106,
-2.38953,0.706482,
-2.40021,0.714111,
-2.41241,0.723267,
-2.42004,0.71106,
-2.4292,0.708008,
-2.43683,0.71106,
-2.44141,0.717163,
-2.44904,0.724792,
-2.45819,0.715637,
-2.46582,0.712585,
-2.47192,0.712585,
-2.48108,0.717163,
-2.48718,0.720215,
-2.49481,0.714111,
-2.50702,0.709534,
-2.5116,0.708008,
-2.52228,0.715637,
-2.52991,0.724792,
-2.53601,0.717163,
-2.54517,0.709534,
-2.5528,0.71106,
-2.56042,0.718689,
-2.57263,0.718689,
-2.57874,0.717163,
-2.58942,0.71106,
-2.59552,0.706482,
-2.6062,0.721741,
-2.61078,0.718689,
-2.62299,0.71106,
-2.62909,0.709534,
-2.63977,0.709534,
-2.65045,0.718689,
-2.65656,0.720215,
-2.66571,0.715637,
-2.67639,0.71106,
-2.68097,0.709534,
-2.68707,0.718689,
-2.6947,0.720215,
-2.70233,0.714111,
-2.71301,0.709534,
-2.71912,0.709534,
-2.72369,0.718689,
-2.73743,0.720215,
-2.74048,0.715637,
-2.74963,0.709534,
-2.75421,0.706482,
-2.76489,0.717163,
-2.76947,0.720215,
-2.7771,0.714111,
-2.78168,0.709534,
-2.79236,0.709534,
-2.80304,0.717163,
-2.80914,0.721741,
-2.82135,0.714111,
-2.82898,0.709534,
-2.83661,0.708008,
-2.84119,0.714111,
-2.85034,0.720215,
-2.85339,0.712585,
-2.86255,0.708008,
-2.86865,0.712585,
-2.87781,0.714111,
-2.88696,0.723267,
-2.89764,0.717163,
-2.90527,0.708008,
-2.91443,0.709534,
-2.91901,0.715637,
-2.92969,0.721741,
-2.93579,0.714111,
-2.94189,0.709534,
-2.94952,0.71106,
-2.95868,0.715637,
-2.96631,0.720215,
-2.97699,0.714111,
-2.98309,0.706482,
-2.9892,0.712585,
-2.99683,0.717163,
-3.00598,0.721741,
-3.01361,0.714111,
-3.02429,0.71106,
-3.0304,0.709534,
-3.0365,0.717163,
-3.05023,0.723267,
-3.05481,0.712585,
-3.06549,0.70343,
-3.07007,0.709534,
-3.08075,0.715637,
-3.08838,0.717163,
-3.09601,0.712585,
-3.09753,0.706482,
-3.09601,0.709534,
-3.08838,0.718689,
-3.08533,0.723267,
-3.07617,0.71106,
-3.06244,0.709534,
-3.05176,0.708008,
-3.02887,0.717163,
-3.00598,0.721741,
-2.98004,0.71106,
-2.95105,0.708008,
-2.91901,0.698853,
-2.88239,0.717163,
-2.83966,0.718689,
-2.79999,0.71106,
-2.75421,0.709534,
-2.70691,0.71106,
-2.65808,0.712585,
-2.6123,0.721741,
-2.56195,0.712585,
-2.51312,0.708008,
-2.46277,0.712585,
-2.41547,0.714111,
-2.36359,0.721741,
-2.31934,0.715637,
-2.27051,0.708008,
-2.22626,0.715637,
-2.18201,0.714111,
-2.14081,0.720215,
-2.10724,0.714111,
-2.07062,0.70343,
-2.034,0.709534,
-2.005,0.720215,
-1.98059,0.723267,
-1.9516,0.715637,
-1.92719,0.709534,
-1.90582,0.708008,
-1.88446,0.714111,
-1.86462,0.718689,
-1.84174,0.714111,
-1.82343,0.706482,
-1.81274,0.712585,
-1.79596,0.718689,
-1.78528,0.720215,
-1.7746,0.715637,
-1.76697,0.712585,
-1.75781,0.71106,
-1.75476,0.714111,
-1.75171,0.718689,
-1.75018,0.712585,
-1.74561,0.71106,
-1.74866,0.709534,
-1.74713,0.714111,
-1.74713,0.717163,
-1.74866,0.712585,
-1.75018,0.708008,
-1.75018,0.706482,
-1.75781,0.715637,
-1.75171,0.726318,
-1.75781,0.714111,
-1.76239,0.71106,
-1.76392,0.71106,
-1.77307,0.715637,
-1.77917,0.720215,
-1.7868,0.708008,
-1.79749,0.708008,
-1.80511,0.708008,
-1.81427,0.709534,
-1.82037,0.718689,
-1.82648,0.71106,
-1.83563,0.709534,
-1.84174,0.712585,
-1.84937,0.715637,
-1.85394,0.721741,
-1.86157,0.714111,
-1.86615,0.708008,
-1.87225,0.709534,
-1.87225,0.71106,
-1.87683,0.723267,
-1.88293,0.712585,
-1.88446,0.708008,
-1.89209,0.708008,
-1.89056,0.71106,
-1.89667,0.720215,
-1.89819,0.714111,
-1.89972,0.70343,
-1.90125,0.708008,
-1.90125,0.714111,
-1.89819,0.721741,
-1.89667,0.714111,
-1.89362,0.706482,
-1.88904,0.706482,
-1.88141,0.714111,
-1.88141,0.718689,
-1.87531,0.715637,
-1.87531,0.70343,
-1.87073,0.706482,
-1.86615,0.717163,
-1.85699,0.718689,
-1.85242,0.717163,
-1.84784,0.706482,
-1.84021,0.708008,
-1.83868,0.717163,
-1.83868,0.718689,
-1.83411,0.714111,
-1.83105,0.70343,
-1.83105,0.708008,
-1.82343,0.715637,
-1.82037,0.718689,
-1.82037,0.71106,
-1.81732,0.706482,
-1.82037,0.706482,
-1.8219,0.71106,
-1.81885,0.717163,
-1.8219,0.71106,
-1.82343,0.708008,
-1.82648,0.708008,
-1.828,0.712585,
-1.83258,0.718689,
-1.83868,0.712585,
-1.83868,0.708008,
-1.84174,0.709534,
-1.84631,0.715637,
-1.85242,0.718689,
-1.86005,0.71106,
-1.87225,0.709534,
-1.87836,0.708008,
-1.89056,0.71106,
-1.90277,0.723267,
-1.91193,0.714111,
-1.92108,0.709534,
-1.93176,0.71106,
-1.94092,0.71106,
-1.95313,0.720215,
-1.95923,0.709534,
-1.96838,0.706482,
-1.98059,0.706482,
-1.98975,0.709534,
-2.00043,0.721741,
-2.01263,0.712585,
-2.02332,0.706482,
-2.034,0.709534,
-2.04468,0.718689,
-2.05078,0.718689,
-2.06299,0.71106,
-2.07367,0.706482,
-2.0813,0.708008,
-2.09198,0.709534,
-2.09961,0.718689,
-2.10876,0.71106,
-2.12097,0.70343,
-2.13318,0.708008,
-2.14233,0.712585,
-2.15149,0.720215,
-2.16064,0.715637,
-2.17285,0.708008,
-2.18048,0.708008,
-2.18658,0.712585,
-2.19879,0.718689,
-2.20795,0.71106,
-2.21863,0.701904,
-2.23083,0.706482,
-2.23846,0.71106,
-2.24609,0.715637,
-2.2583,0.714111,
-2.26746,0.708008,
-2.27661,0.70343,
-2.28882,0.715637,
-2.2934,0.718689,
-2.2995,0.714111,
-2.30865,0.708008,
-2.31628,0.708008,
-2.32849,0.714111,
-2.3407,0.720215,
-2.3468,0.709534,
-2.35748,0.708008,
-2.36511,0.700378,
-2.37274,0.712585,
-2.38647,0.720215,
-2.39105,0.709534,
-2.39868,0.709534,
-2.40631,0.708008,
-2.41394,0.714111,
-2.42157,0.720215,
-2.4292,0.714111,
-2.43073,0.706482,
-2.43835,0.700378,
-2.45056,0.714111,
-2.46124,0.723267,
-2.4704,0.71106,
-2.47803,0.70343,
-2.48566,0.71106,
-2.48871,0.712585,
-2.49939,0.721741,
-2.50549,0.712585,
-2.51007,0.706482,
-2.51617,0.708008,
-2.52533,0.714111,
-2.53448,0.720215,
-2.54364,0.71106,
-2.54822,0.706482,
-2.55737,0.708008,
-2.56042,0.709534,
-2.56805,0.721741,
-2.57721,0.71106,
-2.58179,0.706482,
-2.58636,0.709534,
-2.59552,0.714111,
-2.60468,0.715637,
-2.61688,0.715637,
-2.62146,0.701904,
-2.63214,0.712585,
-2.63977,0.712585,
-2.65198,0.717163,
-2.65656,0.71106,
-2.66571,0.698853,
-2.67639,0.701904,
-2.68707,0.709534,
-2.69165,0.714111,
-2.6947,0.712585,
-2.70538,0.701904,
-2.70996,0.700378,
-2.71606,0.712585,
-2.72369,0.715637,
-2.73285,0.71106,
-2.742,0.701904,
-2.74658,0.700378,
-2.75421,0.712585,
-2.76642,0.714111,
-2.771,0.709534,
-2.77557,0.697327,
-2.78168,0.701904,
-2.78931,0.712585,
-2.79694,0.712585,
-2.79999,0.709534,
-2.80609,0.706482,
-2.81372,0.695801,
-2.81982,0.71106,
-2.82288,0.708008,
-2.83203,0.706482,
-2.83508,0.700378,
-2.83661,0.698853,
-2.84119,0.706482,
-2.84882,0.714111,
-2.85339,0.706482,
-2.86102,0.71106,
-2.86255,0.700378,
-2.87018,0.708008,
-2.87781,0.717163,
-2.88086,0.706482,
-2.88391,0.698853,
-2.88239,0.697327,
-2.88696,0.709534,
-2.88849,0.709534,
-2.88849,0.70343,
-2.88696,0.695801,
-2.87781,0.698853,
-2.87018,0.70343,
-2.85797,0.712585,
-2.84271,0.709534,
-2.81982,0.700378,
-2.79846,0.701904,
-2.77252,0.709534,
-2.74353,0.712585,
-2.70996,0.709534,
-2.67639,0.697327,
-2.63672,0.698853,
-2.59857,0.709534,
-2.55432,0.709534,
-2.51465,0.697327,
-2.4704,0.698853,
-2.4231,0.701904,
-2.37274,0.706482,
-2.32849,0.708008,
-2.27966,0.709534,
-2.23389,0.701904,
-2.18964,0.697327,
-2.13928,0.715637,
-2.09808,0.709534,
-2.05688,0.706482,
-2.01569,0.695801,
-1.97601,0.694275,
-1.94092,0.706482,
-1.9104,0.71106,
-1.87225,0.709534,
-1.84479,0.697327,
-1.8158,0.701904,
-1.78375,0.709534,
-1.75629,0.708008,
-1.72729,0.709534,
-1.69983,0.70343,
-1.67847,0.697327,
-1.66168,0.706482,
-1.64642,0.709534,
-1.62811,0.701904,
-1.61743,0.698853,
-1.61133,0.694275,
-1.60217,0.708008,
-1.58997,0.709534,
-1.58386,0.701904,
-1.58386,0.701904,
-1.57776,0.697327,
-1.57776,0.70343,
-1.57623,0.712585,
-1.57776,0.706482,
-1.57623,0.697327,
-1.57471,0.695801,
-1.57471,0.70343,
-1.57471,0.706482,
-1.57471,0.697327,
-1.57776,0.697327,
-1.58081,0.694275,
-1.58081,0.698853,
-1.58539,0.71106,
-1.58997,0.70343,
-1.59607,0.698853,
-1.60217,0.698853,
-1.60828,0.712585,
-1.62048,0.709534,
-1.62506,0.70343,
-1.63116,0.697327,
-1.63879,0.700378,
-1.651,0.701904,
-1.66016,0.706482,
-1.67084,0.706482,
-1.67847,0.695801,
-1.6861,0.697327,
-1.69067,0.701904,
-1.70593,0.706482,
-1.71204,0.709534,
-1.72119,0.695801,
-1.72729,0.697327,
-1.73492,0.706482,
-1.73645,0.708008,
-1.74103,0.701904,
-1.74866,0.692749,
-1.75171,0.691223,
-1.75171,0.706482,
-1.75018,0.700378,
-1.75018,0.70343,
-1.74866,0.691223,
-1.73798,0.694275,
-1.73798,0.706482,
-1.7334,0.708008,
-1.72882,0.701904,
-1.72119,0.695801,
-1.71661,0.692749,
-1.71051,0.70343,
-1.70593,0.708008,
-1.70135,0.700378,
-1.69525,0.692749,
-1.6922,0.691223,
-1.68915,0.700378,
-1.68152,0.706482,
-1.67694,0.700378,
-1.67236,0.695801,
-1.66931,0.695801,
-1.66473,0.701904,
-1.66473,0.708008,
-1.66626,0.698853,
-1.66931,0.694275,
-1.66779,0.694275,
-1.67084,0.700378,
-1.67542,0.706482,
-1.67236,0.700378,
-1.67847,0.689697,
-1.67999,0.692749,
-1.68762,0.698853,
-1.69373,0.701904,
-1.69525,0.701904,
-1.6983,0.691223,
-1.70746,0.694275,
-1.71509,0.700378,
-1.72272,0.698853,
-1.73187,0.700378,
-1.74408,0.688171,
-1.75171,0.694275,
-1.76086,0.695801,
-1.77612,0.698853,
-1.78986,0.698853,
-1.80359,0.689697,
-1.81885,0.698853,
-1.83258,0.697327,
-1.84479,0.700378,
-1.86157,0.700378,
-1.87683,0.691223,
-1.89362,0.691223,
-1.90735,0.698853,
-1.92261,0.701904,
-1.93939,0.695801,
-1.95465,0.689697,
-1.97296,0.686646,
-1.98669,0.695801,
-2.00653,0.697327,
-2.02484,0.695801,
-2.0401,0.689697,
-2.05688,0.686646,
-2.0752,0.692749,
-2.09351,0.700378,
-2.11334,0.691223,
-2.13318,0.691223,
-2.15607,0.689697,
-2.17438,0.695801,
-2.19421,0.700378,
-2.20947,0.691223,
-2.22778,0.691223,
-2.24609,0.68512,
-2.2583,0.694275,
-2.27661,0.698853,
-2.29187,0.688171,
-2.3056,0.688171,
-2.32086,0.686646,
-2.33917,0.691223,
-2.35901,0.700378,
-2.37274,0.692749,
-2.388,0.68512,
-2.40173,0.686646,
-2.41699,0.689697,
-2.42615,0.692749,
-2.44293,0.701904,
-2.45209,0.683594,
-2.46277,0.68512,
-2.47498,0.688171,
-2.4826,0.697327,
-2.49023,0.691223,
-2.49939,0.67749,
-2.50702,0.68512,
-2.51312,0.688171,
-2.5177,0.692749,
-2.52991,0.691223,
-2.53754,0.683594,
-2.54669,0.683594,
-2.5589,0.689697,
-2.56195,0.691223,
-2.56958,0.68512,
-2.57416,0.679016,
-2.58636,0.680542,
-2.58789,0.688171,
-2.59857,0.688171,
-2.6062,0.689697,
-2.61078,0.680542,
-2.61688,0.680542,
-2.61993,0.688171,
-2.62299,0.692749,
-2.63062,0.689697,
-2.63672,0.679016,
-2.63824,0.67749,
-2.64587,0.686646,
-2.65198,0.68512,
-2.6535,0.683594,
-2.65503,0.67749,
-2.6535,0.672913,
-2.6535,0.686646,
-2.65808,0.689697,
-2.65808,0.68512,
-2.65503,0.680542,
-2.65961,0.680542,
-2.65961,0.688171,
-2.65808,0.691223,
-2.65808,0.68512,
-2.65961,0.67749,
-2.66266,0.67749,
-2.66724,0.683594,
-2.66876,0.688171,
-2.67792,0.683594,
-2.67944,0.679016,
-2.67944,0.674438,
-2.68555,0.68512,
-2.68707,0.689697,
-2.6947,0.688171,
-2.69165,0.679016,
-2.69928,0.679016,
-2.70538,0.68512,
-2.70844,0.689697,
-2.71454,0.688171,
-2.72064,0.67749,
-2.72217,0.67749,
-2.72522,0.679016,
-2.72369,0.691223,
-2.72522,0.67749,
-2.73132,0.668335,
-2.72675,0.679016,
-2.73132,0.686646,
-2.73285,0.688171,
-2.73895,0.688171,
-2.742,0.679016,
-2.74353,0.680542,
-2.74811,0.683594,
-2.75574,0.688171,
-2.75726,0.68512,
-2.76337,0.674438,
-2.76642,0.672913,
-2.76794,0.683594,
-2.7771,0.686646,
-2.78015,0.68512,
-2.79083,0.679016,
-2.79541,0.679016,
-2.80151,0.686646,
-2.80609,0.689697,
-2.81219,0.68512,
-2.8183,0.682068,
-2.82288,0.674438,
-2.8244,0.698853,
-2.82593,0.692749,
-2.82898,0.68512,
-2.82898,0.682068,
-2.83356,0.679016,
-2.82898,0.68512,
-2.82135,0.692749,
-2.80609,0.683594,
-2.79388,0.67749,
-2.771,0.679016,
-2.74353,0.683594,
-2.71759,0.694275,
-2.69012,0.683594,
-2.65656,0.67749,
-2.61993,0.67749,
-2.57874,0.68512,
-2.53448,0.691223,
-2.49176,0.683594,
-2.44293,0.67749,
-2.3941,0.67749,
-2.3407,0.68512,
-2.28424,0.694275,
-2.23236,0.688171,
-2.17896,0.682068,
-2.12708,0.683594,
-2.07062,0.686646,
-2.01569,0.689697,
-1.96533,0.68512,
-1.91803,0.680542,
-1.86768,0.680542,
-1.81885,0.683594,
-1.7746,0.691223,
-1.72882,0.683594,
-1.6922,0.680542,
-1.64948,0.680542,
-1.61285,0.686646,
-1.58081,0.692749,
-1.54724,0.688171,
-1.5152,0.679016,
-1.49078,0.67749,
-1.4679,0.68512,
-1.44501,0.691223,
-1.4328,0.68512,
-1.41296,0.67749,
-1.39771,0.679016,
-1.38245,0.688171,
-1.37482,0.689697,
-1.36871,0.68512,
-1.35193,0.680542,
-1.34277,0.669861,
-1.33209,0.698853,
-1.33057,0.691223,
-1.31989,0.686646,
-1.31531,0.683594,
-1.3092,0.67749,
-1.30463,0.68512,
-1.30615,0.689697,
-1.3031,0.68512,
-1.30463,0.679016,
-1.30463,0.672913,
-1.30157,0.686646,
-1.30157,0.694275,
-1.3031,0.682068,
-1.30157,0.680542,
-1.30615,0.671387,
-1.30463,0.686646,
-1.31226,0.686646,
-1.31989,0.686646,
-1.32294,0.682068,
-1.33057,0.67749,
-1.34125,0.683594,
-1.34583,0.692749,
-1.35651,0.683594,
-1.36261,0.688171,
-1.37024,0.679016,
-1.37634,0.682068,
-1.38702,0.691223,
-1.39313,0.683594,
-1.39923,0.674438,
-1.40686,0.682068,
-1.41144,0.686646,
-1.41907,0.689697,
-1.4267,0.682068,
-1.4328,0.680542,
-1.43738,0.67749,
-1.43738,0.683594,
-1.44043,0.691223,
-1.44043,0.694275,
-1.43738,0.67749,
-1.4389,0.674438,
-1.4389,0.688171,
-1.43585,0.689697,
-1.43585,0.683594,
-1.43585,0.679016,
-1.4328,0.674438,
-1.43127,0.686646,
-1.4328,0.692749,
-1.43433,0.683594,
-1.42822,0.67749,
-1.42822,0.67749,
-1.41754,0.686646,
-1.41296,0.688171,
-1.41144,0.679016,
-1.40839,0.680542,
-1.40686,0.674438,
-1.40381,0.686646,
-1.39923,0.691223,
-1.39313,0.683594,
-1.38397,0.680542,
-1.37939,0.679016,
-1.37329,0.682068,
-1.37787,0.694275,
-1.37482,0.683594,
-1.37329,0.679016,
-1.37329,0.67749,
-1.36871,0.683594,
-1.37177,0.692749,
-1.37787,0.682068,
-1.37787,0.680542,
-1.38092,0.674438,
-1.38397,0.683594,
-1.3855,0.692749,
-1.39313,0.686646,
-1.39923,0.679016,
-1.40533,0.67749,
-1.40839,0.683594,
-1.41754,0.692749,
-1.4267,0.688171,
-1.43433,0.679016,
-1.44348,0.679016,
-1.45416,0.68512,
-1.46484,0.694275,
-1.47552,0.683594,
-1.49231,0.67749,
-1.50299,0.672913,
-1.51825,0.686646,
-1.52588,0.691223,
-1.53809,0.68512,
-1.54724,0.692749,
-1.55487,0.672913,
-1.56555,0.688171,
-1.57776,0.694275,
-1.58844,0.68512,
-1.60065,0.67749,
-1.6098,0.674438,
-1.61896,0.682068,
-1.63116,0.691223,
-1.64032,0.68512,
-1.64948,0.682068,
-1.65863,0.679016,
-1.67084,0.686646,
-1.67999,0.691223,
-1.69067,0.68512,
-1.69983,0.683594,
-1.70746,0.67749,
-1.72272,0.68512,
-1.73798,0.691223,
-1.75476,0.686646,
-1.76239,0.679016,
-1.77307,0.67749,
-1.7807,0.683594,
-1.79291,0.691223,
-1.79901,0.683594,
-1.80817,0.679016,
-1.82037,0.679016,
-1.828,0.683594,
-1.84021,0.692749,
-1.85242,0.683594,
-1.8631,0.680542,
-1.87683,0.67749,
-1.88904,0.68512,
-1.90125,0.694275,
-1.91193,0.688171,
-1.92261,0.67749,
-1.93634,0.679016,
-1.95007,0.682068,
-1.95923,0.691223,
-1.97296,0.68512,
-1.98059,0.67749,
-1.98669,0.679016,
-1.99738,0.68512,
-2.00195,0.691223,
-2.01569,0.688171,
-2.02026,0.679016,
-2.02789,0.67749,
-2.03705,0.683594,
-2.04468,0.689697,
-2.05383,0.686646,
-2.06299,0.67749,
-2.07062,0.67749,
-2.07825,0.68512,
-2.08588,0.688171,
-2.09808,0.686646,
-2.10571,0.679016,
-2.10724,0.683594,
-2.11639,0.686646,
-2.12402,0.689697,
-2.13318,0.688171,
-2.14081,0.680542,
-2.14691,0.672913,
-2.15759,0.68512,
-2.16064,0.689697,
-2.17438,0.688171,
-2.18353,0.680542,
-2.19574,0.672913,
-2.20184,0.686646,
-2.21252,0.689697,
-2.22015,0.68512,
-2.22778,0.679016,
-2.23999,0.679016,
-2.24304,0.683594,
-2.25372,0.692749,
-2.2644,0.686646,
-2.27203,0.682068,
-2.27661,0.674438,
-2.29034,0.682068,
-2.29797,0.691223,
-2.30865,0.68512,
-2.31934,0.67749,
-2.33307,0.679016,
-2.33765,0.683594,
-2.35138,0.692749,
-2.36511,0.688171,
-2.37427,0.679016,
-2.38647,0.682068,
-2.40021,0.686646,
-2.41241,0.691223,
-2.42462,0.686646,
-2.43378,0.679016,
-2.43835,0.679016,
-2.44751,0.680542,
-2.45361,0.68512,
-2.46277,0.689697,
-2.46582,0.67749,
-2.4704,0.679016,
-2.47498,0.68512,
-2.47498,0.689697,
-2.47192,0.692749,
-2.46277,0.679016,
-2.45819,0.679016,
-2.44446,0.682068,
-2.43073,0.691223,
-2.41547,0.686646,
-2.3941,0.679016,
-2.36664,0.67749,
-2.3407,0.68512,
-2.31018,0.68512,
-2.27661,0.68512,
-2.23846,0.67749,
-2.19879,0.674438,
-2.16217,0.688171,
-2.1225,0.691223,
-2.07977,0.691223,
-2.03705,0.679016,
-1.9928,0.679016,
-1.95007,0.683594,
-1.90887,0.689697,
-1.87073,0.68512,
-1.83258,0.679016,
-1.79291,0.679016,
-1.75629,0.682068,
-1.72119,0.686646,
-1.6861,0.686646,
-1.6449,0.682068,
-1.61591,0.680542,
-1.58691,0.683594,
-1.5564,0.691223,
-1.52893,0.686646,
-1.50757,0.679016,
-1.48773,0.682068,
-1.46942,0.682068,
-1.44958,0.686646,
-1.43738,0.68512,
-1.4267,0.674438,
-1.41296,0.680542,
-1.40076,0.680542,
-1.39618,0.688171,
-1.38397,0.689697,
-1.38092,0.680542,
-1.37634,0.680542,
-1.37024,0.686646,
-1.36719,0.691223,
-1.37024,0.688171,
-1.36108,0.679016,
-1.36414,0.680542,
-1.36108,0.682068,
-1.36261,0.686646,
-1.36719,0.688171,
-1.36871,0.672913,
-1.37329,0.679016,
-1.37787,0.68512,
-1.38702,0.686646,
-1.39618,0.691223,
-1.40228,0.680542,
-1.40839,0.679016,
-1.41602,0.683594,
-1.42212,0.689697,
-1.4328,0.691223,
-1.43585,0.680542,
-1.44196,0.682068,
-1.44806,0.683594,
-1.46179,0.689697,
-1.47247,0.688171,
-1.4801,0.679016,
-1.49078,0.679016,
-1.49994,0.683594,
-1.51672,0.691223,
-1.52893,0.686646,
-1.54266,0.680542,
-1.54877,0.67749,
-1.56403,0.692749,
-1.57013,0.691223,
-1.57623,0.691223,
-1.58081,0.68512,
-1.58844,0.679016,
-1.59607,0.68512,
-1.60065,0.689697,
-1.60675,0.691223,
-1.61133,0.67749,
-1.61743,0.679016,
-1.62201,0.683594,
-1.62506,0.689697,
-1.62811,0.691223,
-1.62506,0.679016,
-1.62354,0.679016,
-1.61896,0.68512,
-1.61438,0.689697,
-1.61438,0.692749,
-1.61438,0.680542,
-1.62048,0.682068,
-1.61896,0.683594,
-1.61896,0.691223,
-1.61743,0.691223,
-1.61591,0.680542,
-1.61743,0.680542,
-1.61591,0.68512,
-1.61591,0.691223,
-1.61896,0.692749,
-1.62048,0.679016,
-1.61591,0.679016,
-1.61896,0.686646,
-1.61896,0.689697,
-1.62201,0.691223,
-1.63116,0.680542,
-1.63422,0.682068,
-1.64032,0.683594,
-1.64795,0.689697,
-1.65405,0.688171,
-1.66626,0.682068,
-1.67542,0.679016,
-1.68915,0.682068,
-1.69525,0.688171,
-1.70135,0.686646,
-1.71051,0.680542,
-1.72424,0.680542,
-1.7334,0.68512,
-1.74408,0.694275,
-1.75476,0.689697,
-1.76392,0.680542,
-1.7746,0.679016,
-1.78375,0.683594,
-1.79138,0.692749,
-1.80206,0.686646,
-1.80969,0.679016,
-1.82037,0.679016,
-1.83258,0.68512,
-1.84326,0.691223,
-1.85242,0.691223,
-1.86157,0.674438,
-1.87531,0.680542,
-1.88599,0.68512,
-1.89819,0.689697,
-1.90582,0.692749,
-1.91803,0.67749,
-1.92871,0.679016,
-1.94244,0.688171,
-1.9577,0.689697,
-1.96838,0.689697,
-1.98212,0.680542,
-1.99127,0.679016,
-2.00195,0.683594,
-2.01569,0.691223,
-2.02637,0.692749,
-2.03705,0.680542,
-2.04773,0.679016,
-2.05841,0.68512,
-2.06909,0.692749,
-2.0813,0.689697,
-2.09656,0.682068,
-2.10266,0.682068,
-2.11334,0.68512,
-2.12555,0.691223,
-2.13623,0.691223,
-2.14081,0.680542,
-2.15759,0.67749,
-2.16675,0.682068,
-2.17285,0.692749,
-2.19116,0.689697,
-2.2049,0.680542,
-2.2171,0.679016,
-2.22321,0.686646,
-2.23236,0.691223,
-2.24457,0.689697,
-2.2522,0.682068,
-2.25983,0.680542,
-2.27509,0.680542,
-2.28424,0.695801,
-2.2934,0.688171,
-2.30713,0.680542,
-2.31323,0.679016,
-2.32086,0.680542,
-2.32849,0.691223,
-2.33612,0.688171,
-2.34528,0.682068,
-2.35596,0.679016,
-2.36511,0.694275,
-2.36969,0.692749,
-2.38037,0.692749,
-2.38647,0.680542,
-2.3941,0.67749,
-2.40326,0.683594,
-2.40784,0.694275,
-2.41852,0.68512,
-2.42767,0.674438,
-2.43683,0.674438,
-2.43835,0.683594,
-2.45056,0.689697,
-2.46124,0.691223,
-2.47192,0.682068,
-2.48108,0.679016,
-2.49023,0.689697,
-2.49939,0.692749,
-2.5116,0.688171,
-2.52075,0.682068,
-2.52838,0.679016,
-2.53601,0.683594,
-2.54211,0.689697,
-2.5528,0.686646,
-2.56653,0.68512,
-2.57568,0.679016,
-2.58789,0.68512,
-2.59705,0.692749,
-2.60162,0.688171,
-2.60925,0.68512,
-2.61993,0.680542,
-2.62604,0.68512,
-2.63824,0.698853,
-2.64587,0.689697,
-2.65503,0.680542,
-2.66418,0.680542,
-2.67639,0.683594,
-2.68555,0.691223,
-2.70233,0.688171,
-2.70844,0.680542,
-2.71606,0.679016,
-2.72369,0.682068,
-2.73132,0.692749,
-2.73895,0.686646,
-2.74658,0.680542,
-2.76031,0.67749,
-2.771,0.683594,
-2.7832,0.691223,
-2.79388,0.694275,
-2.80457,0.680542,
-2.8183,0.67749,
-2.82898,0.68512,
-2.83813,0.689697,
-2.85034,0.691223,
-2.85797,0.679016,
-2.86865,0.674438,
-2.87933,0.686646,
-2.88849,0.689697,
-2.89307,0.689697,
-2.89764,0.674438,
-2.89764,0.679016,
-2.89459,0.68512,
-2.89459,0.692749,
-2.89001,0.689697,
-2.87933,0.679016,
-2.86255,0.679016,
-2.84729,0.68512,
-2.82593,0.689697,
-2.80457,0.686646,
-2.77405,0.682068,
-2.74658,0.67749,
-2.71301,0.688171,
-2.6825,0.695801,
-2.64587,0.686646,
-2.60773,0.682068,
-2.57111,0.680542,
-2.53448,0.683594,
-2.49481,0.689697,
-2.45819,0.689697,
-2.4231,0.680542,
-2.38342,0.67749,
-2.34985,0.68512,
-2.31476,0.691223,
-2.28577,0.688171,
-2.24915,0.682068,
-2.21405,0.680542,
-2.18658,0.683594,
-2.15759,0.694275,
-2.13013,0.689697,
-2.10724,0.682068,
-2.0813,0.682068,
-2.06451,0.683594,
-2.04468,0.694275,
-2.02179,0.686646,
-2.005,0.682068,
-1.98975,0.674438,
-1.97601,0.682068,
-1.96381,0.692749,
-1.95465,0.691223,
-1.95007,0.682068,
-1.94092,0.682068,
-1.93481,0.683594,
-1.93024,0.68512,
-1.92719,0.689697,
-1.92108,0.682068,
-1.92261,0.679016,
-1.91498,0.68512,
-1.91345,0.692749,
-1.90887,0.691223,
-1.91193,0.679016,
-1.90735,0.674438,
-1.90887,0.68512,
-1.90887,0.689697,
-1.91345,0.689697,
-1.92108,0.682068,
-1.92413,0.679016,
-1.93176,0.683594,
-1.93939,0.691223,
-1.94244,0.691223,
-1.95313,0.680542,
-1.96075,0.672913,
-1.96991,0.68512,
-1.98212,0.691223,
-1.98822,0.689697,
-1.99432,0.683594,
-2.00653,0.674438,
-2.01111,0.68512,
-2.01874,0.692749,
-2.02484,0.689697,
-2.034,0.68512,
-2.03857,0.67749,
-2.04468,0.683594,
-2.05078,0.691223,
-2.05841,0.689697,
-2.06299,0.683594,
-2.06909,0.674438,
-2.0752,0.682068,
-2.07977,0.692749,
-2.08588,0.68512,
-2.08893,0.683594,
-2.09351,0.680542,
-2.09808,0.682068,
-2.09961,0.697327,
-2.09961,0.694275,
-2.10114,0.683594,
-2.10266,0.680542,
-2.10571,0.68512,
-2.10876,0.692749,
-2.10876,0.691223,
-2.10419,0.683594,
-2.10419,0.680542,
-2.10419,0.683594,
-2.10114,0.689697,
-2.10266,0.691223,
-2.09961,0.683594,
-2.09351,0.680542,
-2.08893,0.686646,
-2.08588,0.695801,
-2.0813,0.694275,
-2.0752,0.686646,
-2.07214,0.682068,
-2.07062,0.683594,
-2.06909,0.691223,
-2.06909,0.691223,
-2.06757,0.682068,
-2.07214,0.679016,
-2.06757,0.683594,
-2.06909,0.689697,
-2.07062,0.691223,
-2.07367,0.68512,
-2.08282,0.674438,
-2.08893,0.689697,
-2.09503,0.691223,
-2.10266,0.691223,
-2.10724,0.683594,
-2.11792,0.674438,
-2.12402,0.68512,
-2.1347,0.689697,
-2.14386,0.686646,
-2.15454,0.683594,
-2.15912,0.674438,
-2.1637,0.68512,
-2.17896,0.692749,
-2.18658,0.691223,
-2.19421,0.68512,
-2.20337,0.682068,
-2.21558,0.683594,
-2.22473,0.694275,
-2.22931,0.688171,
-2.24457,0.68512,
-2.25372,0.682068,
-2.26288,0.68512,
-2.27051,0.691223,
-2.28119,0.688171,
-2.28882,0.680542,
-2.2995,0.680542,
-2.3056,0.682068,
-2.31628,0.694275,
-2.32697,0.694275,
-2.33765,0.683594,
-2.3468,0.682068,
-2.35596,0.686646,
-2.36359,0.691223,
-2.37579,0.689697,
-2.38342,0.682068,
-2.39258,0.683594,
-2.40021,0.67749,
-2.40936,0.691223,
-2.42004,0.691223,
-2.4292,0.680542,
-2.4353,0.674438,
-2.44293,0.68512,
-2.45056,0.692749,
-2.45819,0.692749,
-2.46429,0.683594,
-2.4704,0.679016,
-2.47955,0.68512,
-2.48871,0.692749,
-2.49481,0.689697,
-2.50092,0.683594,
-2.5116,0.67749,
-2.5177,0.68512,
-2.5238,0.688171,
-2.53448,0.689697,
-2.54059,0.68512,
-2.54517,0.674438,
-2.55127,0.688171,
-2.56348,0.689697,
-2.57263,0.689697,
-2.57568,0.686646,
-2.58942,0.679016,
-2.59399,0.68512,
-2.6062,0.692749,
-2.61841,0.689697,
-2.62146,0.68512,
-2.63214,0.674438,
-2.63519,0.682068,
-2.64435,0.689697,
-2.65045,0.688171,
-2.65656,0.683594,
-2.66113,0.682068,
-2.66724,0.68512,
-2.67639,0.694275,
-2.68402,0.689697,
-2.69012,0.683594,
-2.69928,0.680542,
-2.70538,0.682068,
-2.70996,0.692749,
-2.71606,0.692749,
-2.72369,0.680542,
-2.72827,0.680542,
-2.74048,0.679016,
-2.74658,0.686646,
-2.74963,0.689697,
-2.76031,0.683594,
-2.76337,0.683594,
-2.76794,0.68512,
-2.7771,0.691223,
-2.78625,0.694275,
-2.79083,0.682068,
-2.79236,0.682068,
-2.79541,0.68512,
-2.80151,0.691223,
-2.80609,0.68512,
-2.81525,0.691223,
-2.82135,0.67749,
-2.82745,0.683594,
-2.83508,0.68512,
-2.83813,0.691223,
-2.84424,0.686646,
-2.85339,0.67749,
-2.85797,0.683594,
-2.8656,0.691223,
-2.86865,0.691223,
-2.88086,0.688171,
-2.88696,0.67749,
-2.89459,0.688171,
-2.90833,0.688171,
-2.91595,0.691223,
-2.92511,0.683594,
-2.93579,0.67749,
-2.94647,0.686646,
-2.94952,0.691223,
-2.95868,0.688171,
-2.96631,0.686646,
-2.97394,0.682068,
-2.97852,0.680542,
-2.98615,0.692749,
-2.9953,0.689697,
-3.00293,0.68512,
-3.01208,0.679016,
-3.02429,0.682068,
-3.02887,0.689697,
-3.03192,0.686646,
-3.03955,0.683594,
-3.0426,0.679016,
-3.05328,0.680542,
-3.05634,0.692749,
-3.06091,0.698853,
-3.06549,0.683594,
-3.06702,0.680542,
-3.07007,0.68512,
-3.07007,0.691223,
-3.07007,0.691223,
-3.06091,0.68512,
-3.05481,0.680542,
-3.04565,0.686646,
-3.03345,0.689697,
-3.01666,0.688171,
-2.9953,0.682068,
-2.98004,0.680542,
-2.95868,0.688171,
-2.92969,0.689697,
-2.89917,0.695801,
-2.86713,0.683594,
-2.83966,0.680542,
-2.80914,0.688171,
-2.77863,0.692749,
-2.74658,0.692749,
-2.71912,0.683594,
-2.69012,0.680542,
-2.65961,0.68512,
-2.63367,0.691223,
-2.60315,0.689697,
-2.57416,0.68512,
-2.54669,0.674438,
-2.52075,0.686646,
-2.49329,0.691223,
-2.4704,0.689697,
-2.44293,0.686646,
-2.41699,0.680542,
-2.39258,0.680542,
-2.36969,0.692749,
-2.35138,0.692749,
-2.33612,0.68512,
-2.31934,0.682068,
-2.30103,0.680542,
-2.28424,0.692749,
-2.27661,0.691223,
-2.26898,0.683594,
-2.26135,0.682068,
-2.25067,0.682068,
-2.24609,0.695801,
-2.24152,0.692749,
-2.23083,0.682068,
-2.22626,0.683594,
-2.22473,0.683594,
-2.22015,0.692749,
-2.2171,0.691223,
-2.21558,0.683594,
-2.2049,0.679016,
-2.20795,0.682068,
-2.211,0.689697,
-2.20795,0.689697,
-2.211,0.679016,
-2.2049,0.679016,
-2.21252,0.682068,
-2.21252,0.692749,
-2.21405,0.692749,
-2.22015,0.68512,
-2.21863,0.682068,
-2.22473,0.683594,
-2.23083,0.691223,
-2.23694,0.691223,
-2.24152,0.682068,
-2.24762,0.679016,
-2.24915,0.683594,
-2.25677,0.688171,
-2.26135,0.689697,
-2.2644,0.683594,
-2.27051,0.679016,
-2.27661,0.683594,
-2.27814,0.689697,
-2.27966,0.688171,
-2.28424,0.686646,
-2.28729,0.679016,
-2.28882,0.682068,
-2.29034,0.694275,
-2.29034,0.686646,
-2.29797,0.68512,
-2.29797,0.680542,
-2.29187,0.680542,
-2.2934,0.691223,
-2.29645,0.689697,
-2.29645,0.68512,
-2.29645,0.680542,
-2.29187,0.679016,
-2.29034,0.691223,
-2.28577,0.689697,
-2.27203,0.682068,
-2.27051,0.682068,
-2.26135,0.68512,
-2.2583,0.689697,
-2.25525,0.689697,
-2.24915,0.683594,
-2.24762,0.679016,
-2.24304,0.680542,
-2.24152,0.689697,
-2.24152,0.691223,
-2.23846,0.680542,
-2.23236,0.682068,
-2.23389,0.682068,
-2.23846,0.689697,
-2.23389,0.691223,
-2.23389,0.68512,
-2.23389,0.679016,
-2.23236,0.683594,
-2.23846,0.691223,
-2.23694,0.691223,
-2.24304,0.682068,
-2.24609,0.679016,
-2.25067,0.680542,
-2.2583,0.688171,
-2.2583,0.688171,
-2.26746,0.682068,
-2.27203,0.672913,
-2.27814,0.68512,
-2.28119,0.692749,
-2.29034,0.692749,
-2.29645,0.680542,
-2.30255,0.682068,
-2.30865,0.682068,
-2.31171,0.688171,
-2.31781,0.689697,
-2.32086,0.682068,
-2.32849,0.672913,
-2.33154,0.674438,
-2.33917,0.688171,
-2.34528,0.689697,
-2.35443,0.680542,
-2.35901,0.682068,
-2.36053,0.682068,
-2.36511,0.692749,
-2.36969,0.688171,
-2.37122,0.68512,
-2.37274,0.682068,
-2.37885,0.683594,
-2.38647,0.68512,
-2.39563,0.692749,
-2.40021,0.682068,
-2.40631,0.680542,
-2.40784,0.682068,
-2.41394,0.688171,
-2.42157,0.688171,
-2.42004,0.682068,
-2.43073,0.679016,
-2.4353,0.682068,
-2.44141,0.686646,
-2.44904,0.692749,
-2.46277,0.682068,
-2.4704,0.679016,
-2.4826,0.679016,
-2.48718,0.692749,
-2.50092,0.688171,
-2.50854,0.679016,
-2.51923,0.679016,
-2.52838,0.68512,
-2.53601,0.686646,
-2.54364,0.694275,
-2.54669,0.683594,
-2.5528,0.67749,
-2.56042,0.680542,
-2.56348,0.682068,
-2.57263,0.686646,
-2.58026,0.683594,
-2.58331,0.672913,
-2.59247,0.683594,
-2.59705,0.688171,
-2.6001,0.688171,
-2.60468,0.683594,
-2.61078,0.67749,
-2.61688,0.683594,
-2.62451,0.691223,
-2.63214,0.688171,
-2.63824,0.68512,
-2.63824,0.679016,
-2.64587,0.68512,
-2.65198,0.688171,
-2.65808,0.680542,
-2.66724,0.683594,
-2.66571,0.672913,
-2.67487,0.683594,
-2.6825,0.691223,
-2.68707,0.68512,
-2.69012,0.68512,
-2.69623,0.67749,
-2.69928,0.680542,
-2.70386,0.694275,
-2.70691,0.689697,
-2.71301,0.680542,
-2.71912,0.67749,
-2.72064,0.682068,
-2.72675,0.689697,
-2.73132,0.686646,
-2.73438,0.680542,
-2.73743,0.67749,
-2.742,0.67749,
-2.75269,0.689697,
-2.76184,0.689697,
-2.76489,0.682068,
-2.77252,0.679016,
-2.77863,0.683594,
-2.78625,0.689697,
-2.79541,0.694275,
-2.80609,0.682068,
-2.81372,0.680542,
-2.82745,0.680542,
-2.83356,0.688171,
-2.84271,0.691223,
-2.84882,0.672913,
-2.85339,0.67749,
-2.86255,0.682068,
-2.86713,0.688171,
-2.87628,0.689697,
-2.88086,0.683594,
-2.89154,0.682068,
-2.89459,0.680542,
-2.9007,0.688171,
-2.9068,0.689697,
-2.90985,0.68512,
-2.91595,0.680542,
-2.91748,0.680542,
-2.91748,0.688171,
-2.91901,0.691223,
-2.92053,0.679016,
-2.91901,0.67749,
-2.91138,0.679016,
-2.90833,0.691223,
-2.89917,0.68512,
-2.88544,0.683594,
-2.87323,0.680542,
-2.8595,0.680542,
-2.83966,0.694275,
-2.82288,0.688171,
-2.79846,0.682068,
-2.77405,0.67749,
-2.75574,0.674438,
-2.72827,0.692749,
-2.70538,0.683594,
-2.67792,0.680542,
-2.64893,0.67749,
-2.61841,0.674438,
-2.58942,0.691223,
-2.56042,0.68512,
-2.52991,0.674438,
-2.50092,0.67749,
-2.4704,0.682068,
-2.44141,0.689697,
-2.41699,0.691223,
-2.39258,0.680542,
-2.36969,0.679016,
-2.34833,0.680542,
-2.33307,0.688171,
-2.31781,0.689697,
-2.3056,0.680542,
-2.28424,0.680542,
-2.26898,0.682068,
-2.25677,0.688171,
-2.24457,0.692749,
-2.23999,0.679016,
-2.23236,0.680542,
-2.22778,0.680542,
-2.21863,0.686646,
-2.211,0.686646,
-2.20337,0.674438,
-2.19421,0.67749,
-2.18964,0.682068,
-2.18353,0.688171,
-2.18201,0.689697,
-2.17896,0.682068,
-2.17133,0.679016,
-2.16675,0.683594,
-2.16217,0.686646,
-2.16064,0.688171,
-2.15912,0.689697,
-2.15454,0.67749,
-2.15759,0.682068,
-2.15912,0.68512,
-2.16064,0.688171,
-2.1637,0.680542,
-2.17133,0.674438,
-2.1698,0.680542,
-2.17438,0.689697,
-2.17896,0.689697,
-2.18658,0.682068,
-2.18964,0.680542,
-2.19574,0.680542,
-2.20184,0.689697,
-2.20947,0.688171,
-2.21558,0.680542,
-2.22015,0.67749,
-2.22931,0.679016,
-2.23694,0.68512,
-2.24304,0.691223,
-2.24762,0.680542,
-2.25067,0.674438,
-2.25525,0.679016,
-2.26135,0.689697,
-2.2644,0.694275,
-2.26898,0.679016,
-2.27203,0.67749,
-2.27203,0.682068,
-2.27509,0.688171,
-2.27661,0.688171,
-2.27966,0.679016,
-2.28119,0.674438,
-2.28271,0.683594,
-2.28577,0.688171,
-2.28271,0.689697,
-2.28271,0.679016,
-2.28119,0.674438,
-2.27966,0.683594,
-2.27356,0.688171,
-2.27051,0.689697,
-2.2644,0.682068,
-2.26746,0.669861,
-2.26746,0.67749,
-2.25983,0.686646,
-2.25372,0.691223,
-2.24762,0.679016,
-2.24304,0.671387,
-2.24304,0.68512,
-2.23846,0.68512,
-2.23389,0.688171,
-2.23083,0.683594,
-2.23083,0.674438,
-2.22626,0.683594,
-2.22473,0.689697,
-2.22931,0.689697,
-2.22321,0.680542,
-2.22626,0.67749,
-2.22778,0.67749,
-2.22626,0.68512,
-2.22626,0.688171,
-2.22931,0.67749,
-2.22931,0.671387,
-2.23083,0.682068,
-2.22931,0.686646,
-2.23083,0.68512,
-2.22626,0.680542,
-2.22778,0.682068,
-2.23083,0.680542,
-2.23236,0.689697,
-2.23694,0.689697,
-2.23999,0.679016,
-2.23999,0.671387,
-2.24609,0.682068,
-2.24762,0.683594,
-2.2522,0.686646,
-2.2583,0.679016,
-2.2644,0.674438,
-2.27509,0.679016,
-2.27814,0.688171,
-2.28119,0.688171,
-2.28729,0.679016,
-2.29034,0.674438,
-2.2995,0.683594,
-2.3056,0.688171,
-2.31323,0.689697,
-2.32086,0.682068,
-2.32849,0.672913,
-2.33459,0.682068,
-2.34222,0.688171,
-2.35138,0.688171,
-2.35901,0.680542,
-2.36511,0.67749,
-2.37427,0.680542,
-2.38342,0.68512,
-2.39258,0.689697,
-2.39716,0.680542,
-2.40326,0.672913,
-2.41241,0.679016,
-2.42157,0.691223,
-2.42767,0.688171,
-2.4353,0.682068,
-2.44141,0.672913,
-2.44598,0.682068,
-2.45361,0.68512,
-2.46124,0.689697,
-2.46582,0.682068,
-2.47498,0.669861,
-2.48718,0.682068,
-2.49329,0.68512,
-2.50092,0.686646,
-2.50702,0.682068,
-2.51007,0.674438,
-2.51617,0.682068,
-2.52228,0.689697,
-2.53143,0.689697,
-2.53754,0.67749,
-2.54059,0.674438,
-2.54974,0.679016,
-2.5528,0.688171,
-2.5589,0.686646,
-2.56958,0.682068,
-2.57111,0.67749,
-2.57568,0.674438,
-2.57874,0.688171,
-2.58331,0.686646,
-2.58942,0.680542,
-2.59552,0.67749,
-2.60162,0.680542,
-2.60315,0.686646,
-2.60773,0.692749,
-2.61078,0.679016,
-2.61841,0.674438,
-2.62146,0.682068,
-2.62909,0.68512,
-2.63367,0.68512,
-2.63824,0.67749,
-2.63977,0.674438,
-2.64435,0.680542,
-2.65198,0.686646,
-2.65045,0.695801,
-2.65808,0.682068,
-2.65961,0.67749,
-2.65808,0.67749,
-2.66266,0.68512,
-2.66724,0.688171,
-2.66876,0.683594,
-2.67029,0.674438,
-2.67792,0.680542,
-2.68097,0.682068,
-2.6886,0.689697,
-2.69165,0.682068,
-2.6947,0.671387,
-2.70691,0.679016,
-2.71149,0.688171,
-2.71606,0.686646,
-2.71912,0.682068,
-2.72217,0.67749,
-2.72369,0.680542,
-2.73438,0.688171,
-2.74048,0.683594,
-2.75116,0.682068,
-2.75726,0.672913,
-2.75726,0.674438,
-2.76642,0.688171,
-2.77405,0.68512,
-2.78168,0.683594,
-2.78473,0.679016,
-2.78931,0.672913,
-2.79999,0.689697,
-2.80914,0.68512,
-2.80914,0.682068,
-2.81982,0.680542,
-2.8244,0.679016,
-2.83203,0.68512,
-2.83813,0.68512,
-2.84119,0.680542,
-2.85187,0.679016,
-2.8595,0.672913,
-2.8656,0.683594,
-2.8717,0.686646,
-2.88239,0.688171,
-2.89154,0.67749,
-2.89459,0.67749,
-2.89612,0.68512,
-2.89917,0.683594,
-2.90222,0.683594,
-2.90222,0.680542,
-2.89612,0.680542,
-2.88849,0.686646,
-2.87781,0.686646,
-2.86255,0.68512,
-2.85187,0.67749,
-2.83356,0.674438,
-2.81372,0.68512,
-2.79236,0.686646,
-2.76642,0.679016,
-2.73895,0.683594,
-2.70844,0.674438,
-2.67792,0.686646,
-2.6535,0.686646,
-2.61841,0.68512,
-2.58942,0.679016,
-2.56042,0.679016,
-2.53296,0.689697,
-2.49939,0.68512,
-2.46735,0.682068,
-2.43683,0.67749,
-2.40631,0.674438,
-2.38037,0.688171,
-2.34833,0.683594,
-2.32544,0.680542,
-2.2934,0.67749,
-2.27509,0.67749,
-2.25067,0.686646,
-2.22931,0.68512,
-2.21252,0.682068,
-2.19574,0.67749,
-2.18048,0.67749,
-2.16064,0.686646,
-2.14996,0.68512,
-2.1347,0.683594,
-2.1225,0.67749,
-2.10571,0.671387,
-2.09503,0.683594,
-2.0874,0.686646,
-2.07672,0.679016,
-2.06451,0.680542,
-2.05383,0.672913,
-2.05078,0.686646,
-2.04773,0.68512,
-2.04468,0.682068,
-2.04163,0.67749,
-2.034,0.67749,
-2.02789,0.68512,
-2.03094,0.688171,
-2.02789,0.671387,
-2.02026,0.672913,
-2.01721,0.67749,
-2.01416,0.682068,
-2.01263,0.686646,
-2.01263,0.683594,
-2.01111,0.674438,
-2.00806,0.686646,
-2.00806,0.688171,
-2.01111,0.688171,
-2.01263,0.682068,
-2.01111,0.674438,
-2.01263,0.674438,
-2.01569,0.688171,
-2.02179,0.688171,
-2.01874,0.679016,
-2.02179,0.672913,
-2.02332,0.67749,
-2.02179,0.683594,
-2.02484,0.686646,
-2.02179,0.680542,
-2.02332,0.67749,
-2.02637,0.67749,
-2.02942,0.68512,
-2.02942,0.68512,
-2.03552,0.680542,
-2.03857,0.672913,
-2.03857,0.674438,
-2.03857,0.686646,
-2.04468,0.680542,
-2.04315,0.680542,
-2.04315,0.665283,
-2.04163,0.672913,
-2.03857,0.68512,
-2.03552,0.686646,
-2.02942,0.682068,
-2.02637,0.67749,
-2.02026,0.67749,
-2.01569,0.679016,
-2.01416,0.683594,
-2.00806,0.682068,
-2.00653,0.674438,
-2.00043,0.671387,
-1.99738,0.683594,
-1.99127,0.686646,
-1.98669,0.67749,
-1.98212,0.67749,
-1.97754,0.67749,
-1.97754,0.683594,
-1.97601,0.691223,
-1.97296,0.680542,
-1.97296,0.674438,
-1.96991,0.679016,
-1.97144,0.683594,
-1.97296,0.688171,
-1.97296,0.680542,
-1.97906,0.674438,
-1.97754,0.674438,
-1.98364,0.683594,
-1.98517,0.689697,
-1.98822,0.682068,
-1.98975,0.672913,
-1.98975,0.679016,
-1.99585,0.686646,
-1.9989,0.686646,
-2.00043,0.682068,
-2.01111,0.674438,
-2.01263,0.67749,
-2.01874,0.686646,
-2.02637,0.68512,
-2.02942,0.679016,
-2.03552,0.672913,
-2.0401,0.672913,
-2.04315,0.68512,
-2.04926,0.682068,
-2.05536,0.679016,
-2.05994,0.674438,
-2.06604,0.672913,
-2.07062,0.686646,
-2.07825,0.686646,
-2.08435,0.68512,
-2.09351,0.674438,
-2.09961,0.672913,
-2.10571,0.68512,
-2.11029,0.68512,
-2.11487,0.680542,
-2.12402,0.67749,
-2.13165,0.671387,
-2.13318,0.686646,
-2.13928,0.68512,
-2.14386,0.682068,
-2.15454,0.67749,
-2.15912,0.679016,
-2.16522,0.688171,
-2.17285,0.689697,
-2.18048,0.682068,
-2.18506,0.672913,
-2.19269,0.672913,
-2.19727,0.68512,
-2.20795,0.688171,
-2.21558,0.679016,
-2.22321,0.669861,
-2.22931,0.668335,
-2.23846,0.682068,
-2.24457,0.691223,
-2.25372,0.682068,
-2.26288,0.671387,
-2.26746,0.680542,
-2.27203,0.683594,
-2.27509,0.686646,
-2.28271,0.682068,
-2.28424,0.669861,
-2.28729,0.672913,
-2.28729,0.680542,
-2.2934,0.68512,
-2.30103,0.67749,
-2.3056,0.668335,
-2.30713,0.674438,
-2.31323,0.683594,
-2.31628,0.68512,
-2.32239,0.683594,
-2.32697,0.674438,
-2.33307,0.672913,
-2.33612,0.683594,
-2.3407,0.689697,
-2.34375,0.68512,
-2.34985,0.672913,
-2.35901,0.674438,
-2.36359,0.680542,
-2.36359,0.683594,
-2.36969,0.680542,
-2.37274,0.672913,
-2.37122,0.671387,
-2.37427,0.686646,
-2.38037,0.688171,
-2.37885,0.680542,
-2.38647,0.682068,
-2.3941,0.672913,
-2.39258,0.683594,
-2.40173,0.689697,
-2.40173,0.679016,
-2.40784,0.672913,
-2.41394,0.668335,
-2.41699,0.682068,
-2.41852,0.689697,
-2.42462,0.672913,
-2.4292,0.674438,
-2.43225,0.67749,
-2.43835,0.68512,
-2.43835,0.692749,
-2.44751,0.679016,
-2.45361,0.688171,
-2.45361,0.679016,
-2.46277,0.683594,
-2.46582,0.688171,
-2.47192,0.679016,
-2.47803,0.672913,
-2.48413,0.67749,
-2.48871,0.680542,
-2.49481,0.686646,
-2.50397,0.683594,
-2.5116,0.669861,
-2.51617,0.67749,
-2.52228,0.68512,
-2.52838,0.68512,
-2.53906,0.683594,
-2.54517,0.67749,
-2.55127,0.674438,
-2.5589,0.683594,
-2.56042,0.683594,
-2.56653,0.680542,
-2.57568,0.671387,
-2.57874,0.671387,
-2.58636,0.683594,
-2.59247,0.682068,
-2.60162,0.682068,
-2.60925,0.672913,
-2.61078,0.671387,
-2.61993,0.682068,
-2.63214,0.686646,
-2.63519,0.680542,
-2.64435,0.67749,
-2.65656,0.671387,
-2.66418,0.683594,
-2.67334,0.68512,
-2.67944,0.674438,
-2.68402,0.672913,
-2.69165,0.671387,
-2.70233,0.674438,
-2.69928,0.686646,
-2.70844,0.679016,
-2.71301,0.67749,
-2.71301,0.67749,
-2.71454,0.680542,
-2.71606,0.686646,
-2.71454,0.682068,
-2.71149,0.674438,
-2.70538,0.671387,
-2.6947,0.682068,
-2.68707,0.691223,
-2.67029,0.680542,
-2.65198,0.671387,
-2.63367,0.679016,
-2.6123,0.67749,
-2.59094,0.689697,
-2.565,0.679016,
-2.53754,0.668335,
-2.51007,0.67749,
-2.4826,0.683594,
-2.45361,0.689697,
-2.42462,0.683594,
-2.39105,0.67749,
-2.36053,0.674438,
-2.32849,0.683594,
-2.29645,0.686646,
-2.26135,0.67749,
-2.22473,0.671387,
-2.19574,0.671387,
-2.1637,0.683594,
-2.13623,0.68512,
-2.10876,0.680542,
-2.08588,0.674438,
-2.05841,0.671387,
-2.03705,0.68512,
-2.01416,0.688171,
-1.99127,0.67749,
-1.97144,0.674438,
-1.95313,0.674438,
-1.93634,0.682068,
-1.92413,0.686646,
-1.90735,0.67749,
-1.89514,0.671387,
-1.87683,0.671387,
-1.86768,0.682068,
-1.85242,0.683594,
-1.84784,0.679016,
-1.83868,0.674438,
-1.83411,0.674438,
-1.82037,0.68512,
-1.82037,0.68512,
-1.80969,0.680542,
-1.80969,0.672913,
-1.80664,0.672913,
-1.80511,0.67749,
-1.80511,0.686646,
-1.80511,0.67749,
-1.80664,0.671387,
-1.80817,0.67749,
-1.80817,0.679016,
-1.80817,0.688171,
-1.81122,0.680542,
-1.81274,0.671387,
-1.81732,0.679016,
-1.8219,0.682068,
-1.82495,0.686646,
-1.82648,0.680542,
-1.83258,0.671387,
-1.83563,0.671387,
-1.83868,0.679016,
-1.84631,0.679016,
-1.84937,0.67749,
-1.85547,0.669861,
-1.86462,0.674438,
-1.8692,0.680542,
-1.87683,0.68512,
-1.87836,0.683594,
-1.88293,0.666809,
-1.89056,0.669861,
-1.89056,0.683594,
-1.89362,0.688171,
-1.89209,0.683594,
-1.89362,0.671387,
-1.89209,0.671387,
-1.88599,0.683594,
-1.87988,0.683594,
-1.87988,0.67749,
-1.88141,0.671387,
-1.87836,0.669861,
-1.87683,0.683594,
-1.87225,0.68512,
-1.87073,0.672913,
-1.86615,0.674438,
-1.85547,0.674438,
-1.84937,0.679016,
-1.84326,0.689697,
-1.84021,0.671387,
-1.83563,0.672913,
-1.83105,0.671387,
-1.82343,0.67749,
-1.81732,0.68512,
-1.81885,0.666809,
-1.81885,0.669861,
-1.81732,0.674438,
-1.81274,0.679016,
-1.80359,0.68512,
-1.80511,0.680542,
-1.80206,0.672913,
-1.79901,0.67749,
-1.79749,0.680542,
-1.79749,0.686646,
-1.79596,0.67749,
-1.79443,0.671387,
-1.78986,0.674438,
-1.78986,0.679016,
-1.79443,0.686646,
-1.79596,0.679016,
-1.80206,0.671387,
-1.80511,0.669861,
-1.80817,0.680542,
-1.81122,0.68512,
-1.81885,0.679016,
-1.82037,0.67749,
-1.82495,0.674438,
-1.828,0.680542,
-1.83563,0.683594,
-1.84326,0.679016,
-1.84479,0.672913,
-1.85089,0.672913,
-1.85547,0.682068,
-1.8631,0.68512,
-1.8631,0.67749,
-1.86615,0.671387,
-1.86615,0.671387,
-1.86768,0.679016,
-1.87531,0.689697,
-1.87836,0.680542,
-1.88599,0.671387,
-1.89362,0.672913,
-1.90125,0.679016,
-1.9104,0.686646,
-1.92108,0.67749,
-1.92413,0.671387,
-1.93024,0.671387,
-1.93481,0.674438,
-1.94702,0.68512,
-1.95923,0.674438,
-1.96533,0.672913,
-1.97601,0.674438,
-1.97906,0.67749,
-1.98517,0.68512,
-1.99738,0.680542,
-2.005,0.672913,
-2.01263,0.672913,
-2.01721,0.68512,
-2.02179,0.682068,
-2.03094,0.680542,
-2.04163,0.671387,
-2.04315,0.674438,
-2.05231,0.674438,
-2.05841,0.683594,
-2.07367,0.679016,
-2.07977,0.671387,
-2.0874,0.674438,
-2.09656,0.680542,
-2.10114,0.68512,
-2.10876,0.682068,
-2.11182,0.671387,
-2.11639,0.671387,
-2.12402,0.679016,
-2.13623,0.686646,
-2.14233,0.679016,
-2.15454,0.668335,
-2.15454,0.668335,
-2.15912,0.682068,
-2.16522,0.682068,
-2.16217,0.67749,
-2.1698,0.674438,
-2.17896,0.671387,
-2.1759,0.680542,
-2.18353,0.688171,
-2.19116,0.67749,
-2.19421,0.674438,
-2.19879,0.669861,
-2.2049,0.680542,
-2.211,0.686646,
-2.21863,0.679016,
-2.22626,0.671387,
-2.22931,0.666809,
-2.23999,0.67749,
-2.24762,0.683594,
-2.2522,0.67749,
-2.2583,0.671387,
-2.2644,0.672913,
-2.26898,0.679016,
-2.27203,0.686646,
-2.27814,0.679016,
-2.27814,0.672913,
-2.28271,0.671387,
-2.28577,0.671387,
-2.28729,0.697327,
-2.2934,0.67749,
-2.30408,0.669861,
-2.31171,0.674438,
-2.32086,0.67749,
-2.33002,0.68512,
-2.33612,0.680542,
-2.34375,0.671387,
-2.36053,0.688171,
-2.36359,0.680542,
-2.36969,0.683594,
-2.38037,0.680542,
-2.38953,0.672913,
-2.39563,0.674438,
-2.40173,0.680542,
-2.40936,0.683594,
-2.42157,0.679016,
-2.42615,0.666809,
-2.43378,0.672913,
-2.44141,0.679016,
-2.45209,0.679016,
-2.45667,0.680542,
-2.46124,0.672913,
-2.47192,0.671387,
-2.4765,0.682068,
-2.4826,0.686646,
-2.48413,0.679016,
-2.49329,0.669861,
-2.49634,0.668335,
-2.50244,0.680542,
-2.50549,0.680542,
-2.50702,0.679016,
-2.50549,0.668335,
-2.50702,0.669861,
-2.50092,0.67749,
-2.49329,0.680542,
-2.48566,0.679016,
-2.47345,0.672913,
-2.45972,0.672913,
-2.44751,0.679016,
-2.43225,0.683594,
-2.40784,0.682068,
-2.388,0.674438,
-2.35901,0.666809,
-2.33459,0.679016,
-2.3056,0.68512,
-2.27814,0.67749,
-2.25067,0.671387,
-2.22015,0.671387,
-2.19269,0.67749,
-2.1637,0.682068,
-2.13318,0.680542,
-2.10571,0.669861,
-2.0813,0.67749,
-2.05078,0.680542,
-2.02637,0.682068,
-2.00653,0.682068,
-1.98517,0.672913,
-1.96075,0.671387,
-1.93634,0.679016,
-1.91956,0.682068,
-1.89514,0.682068,
-1.87531,0.671387,
-1.85547,0.672913,
-1.84021,0.683594,
-1.82648,0.683594,
-1.81274,0.683594,
-1.80206,0.672913,
-1.78986,0.672913,
-1.78223,0.682068,
-1.77917,0.682068,
-1.76849,0.680542,
-1.76239,0.668335,
-1.75781,0.671387,
-1.74713,0.682068,
-1.7395,0.679016,
-1.73187,0.679016,
-1.72882,0.672913,
-1.72424,0.671387,
-1.71967,0.682068,
-1.71661,0.68512,
-1.71051,0.679016,
-1.70898,0.674438,
-1.70746,0.668335,
-1.70746,0.680542,
-1.70441,0.68512,
-1.70441,0.682068,
-1.70288,0.674438,
-1.70288,0.666809,
-1.70441,0.679016,
-1.70441,0.68512,
-1.71204,0.671387,
-1.71661,0.666809,
-1.72272,0.671387,
-1.72729,0.680542,
-1.7334,0.68512,
-1.74408,0.679016,
-1.74713,0.672913,
-1.75323,0.669861,
-1.76086,0.679016,
-1.77002,0.68512,
-1.7746,0.679016,
-1.78223,0.669861,
-1.78528,0.672913,
-1.79291,0.679016,
-1.79596,0.68512,
-1.79901,0.682068,
-1.80359,0.668335,
-1.80664,0.672913,
-1.80664,0.680542,
-1.80969,0.682068,
-1.81427,0.683594,
-1.8158,0.671387,
-1.8158,0.672913,
-1.81274,0.67749,
-1.81122,0.68512,
-1.80817,0.680542,
-1.80664,0.668335,
-1.80359,0.672913,
-1.80206,0.679016,
-1.79901,0.680542,
-1.79443,0.682068,
-1.79138,0.669861,
-1.78528,0.668335,
-1.7807,0.682068,
-1.77612,0.68512,
-1.77002,0.679016,
-1.76697,0.674438,
-1.76239,0.665283,
-1.75781,0.680542,
-1.75781,0.683594,
-1.75781,0.679016,
-1.75323,0.669861,
-1.75171,0.668335,
-1.75171,0.67749,
-1.75171,0.686646,
-1.75629,0.67749,
-1.75323,0.671387,
-1.75476,0.672913,
-1.75476,0.683594,
-1.75781,0.68512,
-1.76392,0.679016,
-1.77002,0.671387,
-1.77307,0.67749,
-1.77917,0.67749,
-1.78528,0.68512,
-1.79291,0.67749,
-1.79443,0.669861,
-1.79749,0.669861,
-1.79596,0.67749,
-1.80206,0.683594,
-1.80511,0.669861,
-1.80664,0.671387,
-1.80817,0.67749,
-1.81274,0.679016,
-1.81427,0.682068,
-1.8219,0.683594,
-1.82343,0.663757,
-1.828,0.672913,
-1.83716,0.671387,
-1.84174,0.680542,
-1.84937,0.682068,
-1.85547,0.672913,
-1.8631,0.672913,
-1.8692,0.680542,
-1.88293,0.682068,
-1.88599,0.679016,
-1.89819,0.669861,
-1.90277,0.669861,
-1.91193,0.680542,
-1.92413,0.683594,
-1.92871,0.679016,
-1.93481,0.671387,
-1.94092,0.672913,
-1.94855,0.683594,
-1.95618,0.686646,
-1.96381,0.680542,
-1.96991,0.671387,
-1.98059,0.668335,
-1.98975,0.680542,
-1.9928,0.686646,
-1.99738,0.674438,
-2.005,0.671387,
-2.01416,0.671387,
-2.01874,0.682068,
-2.02484,0.688171,
-2.03094,0.680542,
-2.03857,0.674438,
-2.0462,0.67749,
-2.05078,0.680542,
-2.05841,0.68512,
-2.06604,0.680542,
-2.07214,0.674438,
-2.08282,0.674438,
-2.08893,0.67749,
-2.09503,0.686646,
-2.10266,0.679016,
-2.11182,0.669861,
-2.11792,0.671387,
-2.1225,0.682068,
-2.13013,0.683594,
-2.14081,0.683594,
-2.14691,0.679016,
-2.15607,0.674438,
-2.1637,0.683594,
-2.1698,0.686646,
-2.17285,0.683594,
-2.1759,0.671387,
-2.18658,0.671387,
-2.19269,0.679016,
-2.20184,0.682068,
-2.20947,0.680542,
-2.21558,0.672913,
-2.22321,0.668335,
-2.23236,0.686646,
-2.24609,0.68512,
-2.24915,0.682068,
-2.25677,0.674438,
-2.2644,0.672913,
-2.26746,0.683594,
-2.27661,0.686646,
-2.27966,0.680542,
-2.28577,0.672913,
-2.29187,0.679016,
-2.2995,0.680542,
-2.30865,0.688171,
-2.31476,0.67749,
-2.32239,0.672913,
-2.33154,0.67749,
-2.33459,0.672913,
-2.33765,0.686646,
-2.3468,0.682068,
-2.35443,0.672913,
-2.35901,0.67749,
-2.35901,0.68512,
-2.36664,0.688171,
-2.36969,0.682068,
-2.37885,0.671387,
-2.38495,0.67749,
-2.38953,0.680542,
-2.3941,0.68512,
-2.40326,0.683594,
-2.40784,0.671387,
-2.42004,0.672913,
-2.4231,0.683594,
-2.42615,0.68512,
-2.43225,0.682068,
-2.43683,0.674438,
-2.44446,0.671387,
-2.44751,0.683594,
-2.45667,0.689697,
-2.45972,0.683594,
-2.4704,0.680542,
-2.47498,0.674438,
-2.48108,0.683594,
-2.48871,0.689697,
-2.49634,0.680542,
-2.50397,0.672913,
-2.5116,0.668335,
-2.51923,0.671387,
-2.52838,0.683594,
-2.54059,0.679016,
-2.54974,0.674438,
-2.56042,0.674438,
-2.565,0.679016,
-2.57111,0.691223,
-2.57568,0.692749,
-2.58636,0.671387,
-2.59094,0.67749,
-2.59247,0.682068,
-2.60468,0.688171,
-2.6123,0.682068,
-2.62146,0.67749,
-2.63367,0.671387,
-2.64435,0.680542,
-2.65045,0.688171,
-2.65961,0.682068,
-2.66113,0.671387,
-2.66571,0.67749,
-2.67487,0.68512,
-2.67944,0.688171,
-2.67487,0.679016,
-2.67792,0.679016,
-2.67334,0.671387,
-2.66571,0.682068,
-2.65808,0.688171,
-2.65198,0.683594,
-2.63824,0.679016,
-2.62451,0.674438,
-2.61078,0.671387,
-2.59094,0.68512,
-2.56805,0.680542,
-2.54364,0.674438,
-2.52075,0.671387,
-2.49481,0.680542,
-2.46582,0.691223,
-2.43683,0.680542,
-2.41241,0.679016,
-2.37885,0.671387,
-2.34985,0.683594,
-2.32086,0.689697,
-2.28882,0.680542,
-2.25372,0.679016,
-2.22168,0.672913,
-2.18964,0.679016,
-2.16217,0.688171,
-2.13318,0.680542,
-2.10876,0.674438,
-2.07977,0.671387,
-2.05383,0.67749,
-2.02942,0.686646,
-2.00806,0.680542,
-1.98669,0.672913,
-1.96075,0.672913,
-1.93939,0.679016,
-1.92719,0.686646,
-1.90887,0.679016,
-1.89362,0.67749,
-1.88446,0.674438,
-1.87073,0.679016,
-1.85699,0.686646,
-1.84631,0.680542,
-1.83716,0.672913,
-1.82648,0.671387,
-1.82343,0.680542,
-1.8158,0.682068,
-1.80817,0.67749,
-1.80511,0.672913,
-1.80206,0.671387,
-1.79291,0.682068,
-1.79138,0.688171,
-1.78833,0.691223,
-1.78833,0.67749,
-1.78833,0.672913,
-1.78833,0.680542,
-1.7868,0.689697,
-1.78528,0.682068,
-1.78528,0.674438,
-1.78375,0.674438,
-1.78833,0.680542,
-1.78986,0.688171,
-1.78833,0.680542,
-1.79138,0.674438,
-1.78986,0.674438,
-1.79443,0.679016,
-1.79443,0.689697,
-1.79596,0.686646,
-1.80206,0.671387,
-1.79901,0.674438,
-1.80664,0.674438,
-1.80969,0.68512,
-1.81274,0.683594,
-1.82037,0.674438,
-1.8219,0.671387,
-1.83105,0.680542,
-1.83258,0.688171,
-1.83563,0.683594,
-1.83411,0.672913,
-1.83868,0.669861,
-1.84021,0.680542,
-1.84326,0.682068,
-1.84784,0.682068,
-1.84631,0.671387,
-1.84326,0.668335,
-1.84174,0.679016,
-1.83868,0.686646,
-1.83716,0.68512,
-1.83411,0.672913,
-1.828,0.672913,
-1.828,0.67749,
-1.82648,0.697327,
-1.82495,0.683594,
-1.82037,0.674438,
-1.8158,0.674438,
-1.81274,0.67749,
-1.80817,0.686646,
-1.80969,0.680542,
-1.80817,0.669861,
-1.79901,0.67749,
-1.80206,0.67749,
-1.80359,0.683594,
-1.79901,0.683594,
-1.79596,0.669861,
-1.79291,0.67749,
-1.79138,0.683594,
-1.79138,0.683594,
-1.78986,0.686646,
-1.78833,0.67749,
-1.7868,0.674438,
-1.78528,0.682068,
-1.78528,0.686646,
-1.78375,0.682068,
-1.78528,0.672913,
-1.78528,0.674438,
-1.78375,0.679016,
-1.78833,0.682068,
-1.79138,0.683594,
-1.78833,0.674438,
-1.78986,0.672913,
-1.78986,0.679016,
-1.79749,0.688171,
-1.80664,0.679016,
-1.81427,0.672913,
-1.81885,0.672913,
-1.82495,0.67749,
-1.83105,0.68512,
-1.83716,0.686646,
-1.84326,0.672913,
-1.84631,0.67749,
-1.84937,0.679016,
-1.85547,0.68512,
-1.86157,0.683594,
-1.87073,0.674438,
-1.87531,0.67749,
-1.87836,0.671387,
-1.89056,0.686646,
-1.89362,0.686646,
-1.89972,0.672913,
-1.90582,0.674438,
-1.9104,0.67749,
-1.91193,0.694275,
-1.91345,0.688171,
-1.92261,0.67749,
-1.92871,0.674438,
-1.93481,0.682068,
-1.93939,0.683594,
-1.94855,0.68512,
-1.9516,0.67749,
-1.9577,0.688171,
-1.96381,0.679016,
-1.96991,0.683594,
-1.98212,0.683594,
-1.98364,0.679016,
-1.98822,0.669861,
-1.9928,0.680542,
-1.99738,0.68512,
-2.00653,0.674438,
-2.00958,0.669861,
-2.01111,0.674438,
-2.01416,0.682068,
-2.01721,0.691223,
-2.02484,0.683594,
-2.02637,0.679016,
-2.03705,0.671387,
-2.04163,0.679016,
-2.0462,0.68512,
-2.05231,0.683594,
-2.05841,0.672913,
-2.06909,0.672913,
-2.07825,0.674438,
-2.08435,0.686646,
-2.09656,0.68512,
-2.10114,0.672913,
-2.11029,0.674438,
-2.11792,0.679016,
-2.12555,0.683594,
-2.13623,0.68512,
-2.13623,0.674438,
-2.14691,0.671387,
-2.15454,0.669861,
-2.15912,0.686646,
-2.16522,0.686646,
-2.17133,0.672913,
-2.17896,0.672913,
-2.18658,0.67749,
-2.19421,0.683594,
-2.19727,0.68512,
-2.20337,0.674438,
-2.2049,0.672913,
-2.211,0.680542,
-2.21558,0.68512,
-2.22015,0.68512,
-2.22321,0.680542,
-2.23083,0.674438,
-2.23083,0.674438,
-2.23236,0.686646,
-2.24152,0.68512,
-2.24609,0.671387,
-2.24762,0.671387,
-2.25372,0.67749,
-2.25525,0.68512,
-2.2644,0.680542,
-2.27203,0.669861,
-2.27814,0.674438,
-2.28119,0.67749,
-2.29187,0.686646,
-2.2934,0.686646,
-2.2995,0.669861,
-2.30408,0.672913,
-2.30865,0.679016,
-2.31171,0.68512,
-2.31934,0.688171,
-2.32849,0.674438,
-2.33154,0.672913,
-2.3407,0.680542,
-2.34222,0.68512,
-2.34528,0.683594,
-2.35443,0.669861,
-2.36359,0.668335,
-2.37427,0.67749,
-2.38037,0.682068,
-2.3941,0.679016,
-2.39716,0.671387,
-2.40479,0.672913,
-2.41699,0.674438,
-2.42615,0.68512,
-2.4353,0.682068,
-2.44598,0.672913,
-2.45056,0.674438,
-2.45209,0.680542,
-2.45667,0.680542,
-2.45972,0.682068,
-2.45972,0.672913,
-2.45514,0.67749,
-2.45209,0.679016,
-2.44446,0.686646,
-2.4353,0.682068,
-2.42462,0.668335,
-2.41241,0.671387,
-2.40021,0.674438,
-2.38342,0.683594,
-2.35901,0.686646,
-2.34375,0.671387,
-2.31934,0.672913,
-2.29645,0.674438,
-2.26746,0.68512,
-2.24457,0.68512,
-2.2171,0.669861,
-2.18811,0.671387,
-2.16217,0.67749,
-2.13013,0.683594,
-2.09961,0.686646,
-2.07214,0.672913,
-2.03857,0.669861,
-2.01111,0.67749,
-1.98059,0.686646,
-1.95618,0.68512,
-1.92719,0.672913,
-1.90735,0.669861,
-1.88904,0.67749,
-1.87225,0.686646,
-1.84937,0.68512,
-1.828,0.679016,
-1.81427,0.672913,
-1.79901,0.679016,
-1.78986,0.680542,
-1.77917,0.682068,
-1.76849,0.679016,
-1.75781,0.671387,
-1.75018,0.674438,
-1.74561,0.686646,
-1.73798,0.683594,
-1.73187,0.674438,
-1.72882,0.674438,
-1.72272,0.674438,
-1.71967,0.689697,
-1.71814,0.683594,
-1.71051,0.679016,
-1.70593,0.674438,
-1.70441,0.674438,
-1.70135,0.68512,
-1.70441,0.68512,
-1.70135,0.67749,
-1.70135,0.669861,
-1.70135,0.67749,
-1.70135,0.682068,
-1.70135,0.68512,
-1.70288,0.669861,
-1.70288,0.683594,
-1.70746,0.682068,
-1.70898,0.68512,
-1.71509,0.683594,
-1.71967,0.672913,
-1.72882,0.663757,
-1.73035,0.67749,
-1.7334,0.686646,
-1.74561,0.682068,
-1.75018,0.669861,
-1.75934,0.666809,
-1.76849,0.680542,
-1.77612,0.686646,
-1.7807,0.68512,
-1.78375,0.671387,
-1.79138,0.669861,
-1.79443,0.67749,
-1.79596,0.686646,
-1.79749,0.682068,
-1.80206,0.674438,
-1.80817,0.671387,
-1.81122,0.671387,
-1.8158,0.686646,
-1.8158,0.68512,
-1.8158,0.674438,
-1.81732,0.672913,
-1.8158,0.674438,
-1.81274,0.683594,
-1.81122,0.682068,
-1.81122,0.672913,
-1.80969,0.669861,
-1.80664,0.674438,
-1.80511,0.686646,
-1.80206,0.682068,
-1.78986,0.672913,
-1.78833,0.672913,
-1.78528,0.683594,
-1.7807,0.682068,
-1.7746,0.683594,
-1.77765,0.67749,
-1.77307,0.671387,
-1.76849,0.674438,
-1.77307,0.68512,
-1.76849,0.683594,
-1.76544,0.668335,
-1.76544,0.679016,
-1.76697,0.672913,
-1.76239,0.67749,
-1.76086,0.680542,
-1.76239,0.674438,
-1.76086,0.668335,
-1.76544,0.67749,
-1.76544,0.68512,
-1.7746,0.682068,
-1.77307,0.679016,
-1.77765,0.665283,
-1.77917,0.679016,
-1.78528,0.686646,
-1.7868,0.680542,
-1.78986,0.671387,
-1.79443,0.668335,
-1.79901,0.67749,
-1.80359,0.68512,
-1.80359,0.682068,
-1.80206,0.674438,
-1.80664,0.669861,
-1.81122,0.674438,
-1.81732,0.683594,
-1.8219,0.683594,
-1.83258,0.672913,
-1.83716,0.669861,
-1.84784,0.682068,
-1.85547,0.683594,
-1.86462,0.679016,
-1.87378,0.671387,
-1.88446,0.668335,
-1.89209,0.67749,
-1.90125,0.682068,
-1.90735,0.682068,
-1.91803,0.672913,
-1.92566,0.665283,
-1.93176,0.67749,
-1.93787,0.680542,
-1.94702,0.686646,
-1.9577,0.67749,
-1.96228,0.671387,
-1.97144,0.680542,
-1.98059,0.680542,
-1.98822,0.682068,
-1.99738,0.679016,
-2.005,0.672913,
-2.01111,0.67749,
-2.02179,0.68512,
-2.03552,0.683594,
-2.03857,0.674438,
-2.04468,0.669861,
-2.05536,0.67749,
-2.06604,0.68512,
-2.07214,0.674438,
-2.08282,0.679016,
-2.09198,0.669861,
-2.09503,0.674438,
-2.10419,0.68512,
-2.11029,0.683594,
-2.11639,0.672913,
-2.12097,0.669861,
-2.12555,0.679016,
-2.13623,0.683594,
-2.14081,0.683594,
-2.14233,0.671387,
-2.15302,0.668335,
-2.15607,0.67749,
-2.15912,0.682068,
-2.16675,0.680542,
-2.17133,0.671387,
-2.1759,0.672913,
-2.18353,0.679016,
-2.18506,0.680542,
-2.19269,0.683594,
-2.19727,0.674438,
-2.20337,0.671387,
-2.21863,0.679016,
-2.22168,0.683594,
-2.23236,0.682068,
-2.23694,0.67749,
-2.24304,0.668335,
-2.24762,0.674438,
-2.25525,0.679016,
-2.2583,0.680542,
-2.2644,0.679016,
-2.26898,0.666809,
-2.27203,0.672913,
-2.27356,0.68512,
-2.27814,0.679016,
-2.28271,0.674438,
-2.29034,0.672913,
-2.29797,0.674438,
-2.30408,0.68512,
-2.30713,0.683594,
-2.30865,0.674438,
-2.31171,0.668335,
-2.31476,0.672913,
-2.32086,0.68512,
-2.33154,0.679016,
-2.33917,0.674438,
-2.34528,0.668335,
-2.35138,0.674438,
-2.35901,0.683594,
-2.36664,0.682068,
-2.37122,0.674438,
-2.38495,0.669861,
-2.39258,0.674438,
-2.40021,0.686646,
-2.40784,0.686646,
-2.41852,0.67749,
-2.42615,0.668335,
-2.43378,0.679016,
-2.44293,0.682068,
-2.45056,0.68512,
-2.46124,0.671387,
-2.46735,0.666809,
-2.48108,0.674438,
-2.48718,0.682068,
-2.49023,0.679016,
-2.49939,0.674438,
-2.50549,0.668335,
-2.51312,0.67749,
-2.51617,0.686646,
-2.52533,0.680542,
-2.52991,0.67749,
-2.53906,0.668335,
-2.54059,0.672913,
-2.54669,0.683594,
-2.5528,0.683594,
-2.56195,0.674438,
-2.56653,0.665283,
-2.56958,0.672913,
-2.57874,0.682068,
-2.58636,0.679016,
-2.59247,0.674438,
-2.59857,0.669861,
-2.60315,0.672913,
-2.60925,0.68512,
-2.60925,0.682068,
-2.6123,0.672913,
-2.61536,0.671387,
-2.61841,0.674438,
-2.61993,0.679016,
-2.61993,0.68512,
-2.6062,0.674438,
-2.6001,0.669861,
-2.58789,0.672913,
-2.57416,0.680542,
-2.5589,0.679016,
-2.53601,0.669861,
-2.51312,0.669861,
-2.48871,0.67749,
-2.46277,0.680542,
-2.43683,0.682068,
-2.40326,0.67749,
-2.36664,0.668335,
-2.33612,0.674438,
-2.29797,0.680542,
-2.2583,0.682068,
-2.22473,0.67749,
-2.18811,0.669861,
-2.15302,0.671387,
-2.11639,0.679016,
-2.0813,0.682068,
-2.04773,0.672913,
-2.01263,0.669861,
-1.98212,0.672913,
-1.95465,0.683594,
-1.92261,0.679016,
-1.89362,0.67749,
-1.86615,0.671387,
-1.83716,0.671387,
-1.8158,0.68512,
-1.79443,0.683594,
-1.77307,0.674438,
-1.75476,0.671387,
-1.73645,0.67749,
-1.72119,0.686646,
-1.70898,0.682068,
-1.69373,0.674438,
-1.67847,0.671387,
-1.66931,0.672913,
-1.66321,0.68512,
-1.64795,0.680542,
-1.64642,0.671387,
-1.64032,0.669861,
-1.63269,0.674438,
-1.62964,0.680542,
-1.62201,0.683594,
-1.62048,0.672913,
-1.61438,0.668335,
-1.60828,0.67749,
-1.6037,0.68512,
-1.6037,0.68512,
-1.59912,0.67749,
-1.59607,0.67749,
-1.59302,0.672913,
-1.59149,0.682068,
-1.58844,0.67749,
-1.58691,0.671387,
-1.58691,0.669861,
-1.58539,0.669861,
-1.58386,0.68512,
-1.58386,0.679016,
-1.58691,0.672913,
-1.58539,0.674438,
-1.58539,0.665283,
-1.58691,0.683594,
-1.58691,0.682068,
-1.59149,0.672913,
-1.59302,0.669861,
-1.59149,0.672913,
-1.59607,0.686646,
-1.59912,0.682068,
-1.60065,0.669861,
-1.60675,0.668335,
-1.6098,0.674438,
-1.61133,0.680542,
-1.61438,0.679016,
-1.61285,0.669861,
-1.61591,0.669861,
-1.61133,0.674438,
-1.61285,0.680542,
-1.61133,0.682068,
-1.6098,0.671387,
-1.6098,0.669861,
-1.60522,0.67749,
-1.6037,0.680542,
-1.6037,0.682068,
-1.60217,0.67749,
-1.60065,0.671387,
-1.59454,0.671387,
-1.59454,0.682068,
-1.59149,0.682068,
-1.58844,0.671387,
-1.58234,0.666809,
-1.57776,0.672913,
-1.57623,0.682068,
-1.57623,0.67749,
-1.57166,0.671387,
-1.56403,0.671387,
-1.55945,0.668335,
-1.55487,0.683594,
-1.55487,0.68512,
-1.55029,0.663757,
-1.54877,0.671387,
-1.54724,0.669861,
-1.54877,0.683594,
-1.54724,0.680542,
-1.54724,0.671387,
-1.55029,0.671387,
-1.54877,0.672913,
-1.55029,0.680542,
-1.55182,0.68512,
-1.5564,0.671387,
-1.55945,0.669861,
-1.56708,0.674438,
-1.57013,0.680542,
-1.57318,0.683594,
-1.57928,0.674438,
-1.58386,0.666809,
-1.59149,0.672913,
-1.59912,0.682068,
-1.60522,0.683594,
-1.61285,0.672913,
-1.61743,0.669861,
-1.62354,0.671387,
-1.63269,0.683594,
-1.63879,0.680542,
-1.64642,0.672913,
-1.65405,0.666809,
-1.66321,0.671387,
-1.66931,0.68512,
-1.67847,0.680542,
-1.6922,0.669861,
-1.70441,0.669861,
-1.71051,0.669861,
-1.72272,0.683594,
-1.7334,0.683594,
-1.74408,0.669861,
-1.75323,0.671387,
-1.76086,0.674438,
-1.76697,0.683594,
-1.77765,0.68512,
-1.7868,0.671387,
-1.79749,0.669861,
-1.80359,0.672913,
-1.81122,0.679016,
-1.81885,0.682068,
-1.828,0.668335,
-1.84174,0.671387,
-1.85089,0.669861,
-1.86005,0.682068,
-1.86615,0.682068,
-1.87378,0.67749,
-1.88141,0.666809,
-1.88599,0.672913,
-1.89514,0.682068,
-1.89819,0.680542,
-1.9043,0.669861,
-1.91345,0.669861,
-1.92108,0.674438,
-1.92566,0.680542,
-1.93176,0.682068,
-1.93939,0.672913,
-1.9516,0.671387,
-1.95618,0.674438,
-1.96381,0.68512,
-1.97144,0.679016,
-1.97906,0.674438,
-1.98212,0.669861,
-1.98975,0.671387,
-1.99127,0.680542,
-1.99432,0.683594,
-1.9989,0.671387,
-2.00195,0.674438,
-2.00806,0.674438,
-2.01569,0.679016,
-2.01874,0.682068,
-2.02026,0.671387,
-2.03094,0.669861,
-2.03705,0.672913,
-2.04468,0.679016,
-2.05383,0.682068,
-2.06299,0.674438,
-2.06604,0.672913,
-2.07367,0.672913,
-2.08282,0.680542,
-2.08282,0.680542,
-2.09351,0.672913,
-2.09656,0.668335,
-2.10114,0.672913,
-2.10571,0.680542,
-2.11029,0.682068,
-2.11487,0.679016,
-2.11792,0.669861,
-2.12097,0.671387,
-2.12708,0.683594,
-2.13318,0.683594,
-2.13623,0.67749,
-2.14233,0.668335,
-2.14691,0.669861,
-2.15454,0.682068,
-2.15912,0.680542,
-2.16217,0.671387,
-2.16827,0.669861,
-2.17438,0.671387,
-2.18201,0.682068,
-2.18811,0.68512,
-2.18964,0.669861,
-2.19727,0.669861,
-2.2049,0.67749,
-2.211,0.683594,
-2.21558,0.688171,
-2.22168,0.672913,
-2.22473,0.666809,
-2.23083,0.67749,
-2.23846,0.689697,
-2.24762,0.683594,
-2.25372,0.671387,
-2.2583,0.666809,
-2.26288,0.672913,
-2.27356,0.679016,
-2.27814,0.682068,
-2.28424,0.668335,
-2.29034,0.669861,
-2.29797,0.674438,
-2.30408,0.682068,
-2.30865,0.680542,
-2.31781,0.67749,
-2.32697,0.671387,
-2.33307,0.672913,
-2.34375,0.682068,
-2.34833,0.682068,
-2.35901,0.672913,
-2.36511,0.666809,
-2.37579,0.669861,
-2.38342,0.680542,
-2.3941,0.679016,
-2.40021,0.669861,
-2.40631,0.666809,
-2.41852,0.671387,
-2.42767,0.680542,
-2.43225,0.680542,
-2.44141,0.671387,
-2.44904,0.668335,
-2.45819,0.672913,
-2.46429,0.680542,
-2.4765,0.682068,
-2.47955,0.672913,
-2.4826,0.666809,
-2.48718,0.672913,
-2.48871,0.680542,
-2.48566,0.680542,
-2.47955,0.671387,
-2.47192,0.666809,
-2.45972,0.669861,
-2.45056,0.679016,
-2.43073,0.680542,
-2.41852,0.671387,
-2.39868,0.665283,
-2.37579,0.672913,
-2.35443,0.680542,
-2.32849,0.680542,
-2.29797,0.674438,
-2.27051,0.668335,
-2.23999,0.674438,
-2.20795,0.683594,
-2.17133,0.680542,
-2.13776,0.672913,
-2.10114,0.668335,
-2.07214,0.671387,
-2.0401,0.679016,
-2.005,0.679016,
-1.97296,0.669861,
-1.94244,0.666809,
-1.91193,0.669861,
-1.88293,0.683594,
-1.85242,0.682068,
-1.8219,0.669861,
-1.79291,0.671387,
-1.76544,0.672913,
-1.74103,0.679016,
-1.71967,0.689697,
-1.6983,0.671387,
-1.67847,0.663757,
-1.66321,0.672913,
-1.64185,0.682068,
-1.62506,0.682068,
-1.60828,0.671387,
-1.59454,0.663757,
-1.58234,0.669861,
-1.56708,0.67749,
-1.56403,0.682068,
-1.55945,0.671387,
-1.55334,0.663757,
-1.54877,0.674438,
-1.54572,0.692749,
-1.54724,0.680542,
-1.54419,0.674438,
-1.54266,0.666809,
-1.53809,0.674438,
-1.53503,0.680542,
-1.54419,0.680542,
-1.53656,0.672913,
-1.54114,0.665283,
-1.54266,0.668335,
-1.54419,0.680542,
-1.54877,0.674438,
-1.54877,0.674438,
-1.55029,0.666809,
-1.55334,0.671387,
-1.55182,0.682068,
-1.55487,0.682068,
-1.5625,0.672913,
-1.56403,0.666809,
-1.57318,0.672913,
-1.57776,0.682068,
-1.58691,0.68512,
-1.59149,0.668335,
-1.60065,0.666809,
-1.60522,0.672913,
-1.6098,0.67749,
-1.61591,0.68512,
-1.61591,0.668335,
-1.61591,0.666809,
-1.61743,0.672913,
-1.61896,0.674438,
-1.62201,0.683594,
-1.62354,0.668335,
-1.62354,0.665283,
-1.62506,0.674438,
-1.62811,0.680542,
-1.63116,0.682068,
-1.62964,0.674438,
-1.63269,0.666809,
-1.63422,0.674438,
-1.63574,0.679016,
-1.63574,0.680542,
-1.63727,0.672913,
-1.63422,0.663757,
-1.63269,0.67749,
-1.62506,0.679016,
-1.62048,0.674438,
-1.61896,0.669861,
-1.61591,0.666809,
-1.61285,0.671387,
-1.6098,0.679016,
-1.60675,0.680542,
-1.60065,0.672913,
-1.59607,0.666809,
-1.59912,0.679016,
-1.59302,0.680542,
-1.59912,0.683594,
-1.58997,0.674438,
-1.59302,0.666809,
-1.59454,0.672913,
-1.59454,0.680542,
-1.59912,0.682068,
-1.59607,0.672913,
-1.59912,0.666809,
-1.60217,0.672913,
-1.60217,0.67749,
-1.60828,0.68512,
-1.60828,0.671387,
-1.60828,0.665283,
-1.61133,0.672913,
-1.61438,0.682068,
-1.61438,0.680542,
-1.62048,0.674438,
-1.62201,0.665283,
-1.62964,0.669861,
-1.63879,0.682068,
-1.64032,0.682068,
-1.64795,0.672913,
-1.65405,0.668335,
-1.66016,0.672913,
-1.66931,0.682068,
-1.67694,0.679016,
-1.68304,0.672913,
-1.68915,0.668335,
-1.69525,0.668335,
-1.69983,0.679016,
-1.70593,0.67749,
-1.71661,0.671387,
-1.72424,0.669861,
-1.73492,0.671387,
-1.74103,0.679016,
-1.75171,0.682068,
-1.76239,0.672913,
-1.7746,0.666809,
-1.77917,0.668335,
-1.78986,0.680542,
-1.80206,0.680542,
-1.80969,0.669861,
-1.8158,0.668335,
-1.8219,0.671387,
-1.83258,0.67749,
-1.83868,0.680542,
-1.84174,0.67749,
-1.84784,0.666809,
-1.85547,0.672913,
-1.86157,0.682068,
-1.86768,0.680542,
-1.87531,0.671387,
-1.88293,0.669861,
-1.88599,0.671387,
-1.89209,0.679016,
-1.90125,0.674438,
-1.91193,0.672913,
-1.91193,0.668335,
-1.92413,0.672913,
-1.92871,0.674438,
-1.93176,0.682068,
-1.93634,0.671387,
-1.94244,0.669861,
-1.95007,0.668335,
-1.95923,0.679016,
-1.96686,0.680542,
-1.97296,0.674438,
-1.98212,0.669861,
-1.98822,0.666809,
-1.99432,0.679016,
-2.00043,0.682068,
-2.005,0.671387,
-2.01263,0.669861,
-2.01874,0.665283,
-2.02179,0.679016,
-2.02942,0.679016,
-2.03857,0.671387,
-2.04163,0.669861,
-2.04926,0.671387,
-2.05536,0.67749,
-2.05994,0.682068,
-2.07062,0.674438,
-2.07367,0.669861,
-2.07825,0.671387,
-2.0813,0.680542,
-2.09198,0.680542,
-2.09961,0.679016,
-2.10571,0.671387,
-2.10876,0.671387,
-2.11334,0.679016,
-2.1225,0.674438,
-2.12555,0.67749,
-2.13165,0.669861,
-2.13318,0.668335,
-2.13928,0.680542,
-2.14386,0.679016,
-2.14996,0.67749,
-2.15607,0.668335,
-2.15759,0.668335,
-2.15912,0.679016,
-2.16522,0.683594,
-2.1698,0.669861,
-2.1759,0.669861,
-2.18964,0.669861,
-2.19421,0.679016,
-2.20184,0.679016,
-2.21252,0.674438,
-2.22015,0.668335,
-2.23389,0.668335,
-2.24152,0.67749,
-2.24762,0.680542,
-2.2583,0.672913,
-2.2644,0.666809,
-2.27509,0.666809,
-2.28577,0.674438,
-2.29187,0.67749,
-2.30103,0.672913,
-2.30408,0.665283,
-2.31323,0.672913,
-2.31781,0.679016,
-2.32697,0.672913,
-2.33459,0.671387,
-2.34222,0.669861,
-2.3468,0.671387,
-2.35138,0.67749,
-2.36053,0.67749,
-2.36816,0.679016,
-2.37427,0.663757,
-2.38037,0.665283,
-2.388,0.679016,
-2.39716,0.674438,
-2.40479,0.671387,
-2.41241,0.671387,
-2.41547,0.669861,
-2.41699,0.682068,
-2.42157,0.679016,
-2.42004,0.669861,
-2.41699,0.668335,
-2.40173,0.668335,
-2.39258,0.680542,
-2.37579,0.682068,
-2.36053,0.674438,
-2.33917,0.668335,
-2.31171,0.668335,
-2.28729,0.679016,
-2.2644,0.682068,
-2.23389,0.668335,
-2.20032,0.666809,
-2.16675,0.669861,
-2.13165,0.67749,
-2.09351,0.67749,
-2.05841,0.67749,
-2.02179,0.666809,
-1.98059,0.669861,
-1.93787,0.679016,
-1.89667,0.679016,
-1.86005,0.674438,
-1.82037,0.669861,
-1.78375,0.665283,
-1.75018,0.679016,
-1.71509,0.679016,
-1.67847,0.674438,
-1.64642,0.665283,
-1.61591,0.666809,
-1.58844,0.679016,
-1.55792,0.680542,
-1.53503,0.67749,
-1.50909,0.668335,
-1.48621,0.666809,
-1.46484,0.680542,
-1.44348,0.680542,
-1.42822,0.671387,
-1.40991,0.668335,
-1.39771,0.662231,
-1.38397,0.674438,
-1.37482,0.682068,
-1.36871,0.674438,
-1.36108,0.668335,
-1.35651,0.669861,
-1.3504,0.674438,
-1.34735,0.682068,
-1.34125,0.669861,
-1.33362,0.671387,
-1.33057,0.668335,
-1.32751,0.67749,
-1.32294,0.682068,
-1.31836,0.67749,
-1.31683,0.669861,
-1.31531,0.669861,
-1.3092,0.680542,
-1.3092,0.683594,
-1.3031,0.679016,
-1.30615,0.666809,
-1.30615,0.669861,
-1.30157,0.67749,
-1.3031,0.680542,
-1.30157,0.674438,
-1.3031,0.663757,
-1.30615,0.666809,
-1.3092,0.680542,
-1.31531,0.674438,
-1.31836,0.672913,
-1.31989,0.665283,
-1.32599,0.665283,
-1.32751,0.682068,
-1.33514,0.680542,
-1.34125,0.672913,
-1.34125,0.674438,
-1.34888,0.666809,
-1.35345,0.679016,
-1.35803,0.674438,
-1.36108,0.671387,
-1.37024,0.669861,
-1.37329,0.668335,
-1.37787,0.67749,
-1.38245,0.67749,
-1.38397,0.671387,
-1.38702,0.666809,
-1.38855,0.671387,
-1.39008,0.680542,
-1.39618,0.680542,
-1.39771,0.674438,
-1.39618,0.663757,
-1.40076,0.668335,
-1.39618,0.680542,
-1.3916,0.680542,
-1.39313,0.669861,
-1.39008,0.668335,
-1.39618,0.666809,
-1.3916,0.674438,
-1.39618,0.679016,
-1.39313,0.674438,
-1.39008,0.665283,
-1.39313,0.668335,
-1.39008,0.674438,
-1.39313,0.679016,
-1.3916,0.67749,
-1.39618,0.669861,
-1.39313,0.662231,
-1.39618,0.680542,
-1.39618,0.682068,
-1.39923,0.671387,
-1.40381,0.668335,
-1.40228,0.668335,
-1.40839,0.674438,
-1.41144,0.680542,
-1.41296,0.668335,
-1.41449,0.668335,
-1.42517,0.669861,
-1.43127,0.674438,
-1.43738,0.67749,
-1.44348,0.672913,
-1.44958,0.668335,
-1.45721,0.666809,
-1.46637,0.671387,
-1.47247,0.682068,
-1.47705,0.672913,
-1.48315,0.665283,
-1.48926,0.671387,
-1.49536,0.674438,
-1.50146,0.683594,
-1.50909,0.672913,
-1.51672,0.668335,
-1.52435,0.668335,
-1.53351,0.674438,
-1.54419,0.680542,
-1.54877,0.67749,
-1.55945,0.665283,
-1.57166,0.666809,
-1.58081,0.680542,
-1.58386,0.680542,
-1.59302,0.672913,
-1.60065,0.666809,
-1.61133,0.668335,
-1.61896,0.682068,
-1.63116,0.683594,
-1.64185,0.674438,
-1.65253,0.666809,
-1.66321,0.666809,
-1.67542,0.67749,
-1.6861,0.682068,
-1.69525,0.671387,
-1.70441,0.669861,
-1.71051,0.663757,
-1.71814,0.679016,
