-1.42212,0.875854,
-1.38245,0.868225,
-1.34888,0.894165,
-1.31531,0.904846,
-1.28174,0.888062,
-1.25122,0.874329,
-1.22375,0.872803,
-1.19934,0.897217,
-1.17798,0.898743,
-1.15509,0.888062,
-1.13983,0.87738,
-1.11847,0.875854,
-1.10931,0.889587,
-1.09558,0.900269,
-1.08643,0.889587,
-1.07727,0.875854,
-1.06964,0.871277,
-1.06201,0.895691,
-1.05896,0.901794,
-1.06201,0.889587,
-1.05896,0.874329,
-1.05743,0.875854,
-1.05743,0.889587,
-1.05896,0.900269,
-1.06354,0.888062,
-1.06506,0.875854,
-1.06659,0.871277,
-1.07117,0.895691,
-1.06964,0.901794,
-1.07574,0.891113,
-1.08337,0.871277,
-1.08643,0.872803,
-1.09406,0.894165,
-1.10168,0.904846,
-1.10626,0.888062,
-1.10931,0.87738,
-1.11542,0.872803,
-1.12152,0.888062,
-1.12915,0.90332,
-1.13678,0.889587,
-1.13983,0.872803,
-1.14288,0.869751,
-1.14746,0.894165,
-1.15204,0.901794,
-1.15204,0.886536,
-1.15662,0.871277,
-1.15967,0.874329,
-1.15967,0.892639,
-1.16577,0.895691,
-1.1673,0.886536,
-1.16882,0.875854,
-1.16882,0.872803,
-1.16882,0.892639,
-1.17035,0.901794,
-1.16882,0.888062,
-1.17188,0.87738,
-1.1673,0.875854,
-1.16577,0.88501,
-1.15814,0.900269,
-1.15356,0.886536,
-1.15051,0.874329,
-1.14746,0.871277,
-1.13983,0.891113,
-1.13831,0.900269,
-1.12915,0.888062,
-1.12457,0.874329,
-1.11694,0.872803,
-1.10931,0.891113,
-1.10626,0.898743,
-1.09406,0.88501,
-1.08795,0.872803,
-1.08337,0.871277,
-1.06812,0.892639,
-1.06201,0.897217,
-1.05286,0.886536,
-1.04675,0.874329,
-1.03912,0.872803,
-1.03455,0.894165,
-1.02844,0.898743,
-1.02539,0.891113,
-1.02386,0.871277,
-1.02539,0.871277,
-1.02692,0.897217,
-1.02539,0.898743,
-1.03149,0.880432,
-1.03455,0.871277,
-1.04065,0.872803,
-1.04828,0.894165,
-1.05286,0.898743,
-1.06049,0.889587,
-1.06964,0.875854,
-1.08032,0.869751,
-1.08795,0.891113,
-1.09863,0.900269,
-1.10931,0.889587,
-1.11694,0.868225,
-1.12152,0.869751,
-1.13678,0.894165,
-1.14594,0.897217,
-1.15662,0.88501,
-1.17188,0.869751,
-1.18408,0.872803,
-1.19324,0.888062,
-1.20544,0.895691,
-1.2146,0.888062,
-1.22223,0.874329,
-1.23138,0.869751,
-1.23749,0.894165,
-1.24512,0.897217,
-1.2558,0.889587,
-1.26495,0.872803,
-1.26953,0.874329,
-1.28174,0.894165,
-1.29242,0.901794,
-1.30615,0.889587,
-1.31226,0.87738,
-1.32446,0.874329,
-1.33057,0.891113,
-1.3443,0.898743,
-1.35193,0.889587,
-1.36261,0.869751,
-1.37634,0.871277,
-1.38702,0.897217,
-1.39923,0.895691,
-1.40533,0.900269,
-1.41296,0.883484,
-1.41296,0.874329,
-1.42212,0.898743,
-1.4267,0.898743,
-1.4328,0.892639,
-1.44196,0.874329,
-1.44501,0.866699,
-1.44653,0.900269,
-1.45416,0.904846,
-1.46332,0.889587,
-1.46942,0.871277,
-1.47095,0.872803,
-1.47247,0.891113,
-1.474,0.901794,
-1.47705,0.888062,
-1.47552,0.875854,
-1.47858,0.872803,
-1.47858,0.888062,
-1.47858,0.900269,
-1.48468,0.891113,
-1.47552,0.869751,
-1.47247,0.872803,
-1.47705,0.892639,
-1.4801,0.901794,
-1.4801,0.888062,
-1.48621,0.872803,
-1.48773,0.87738,
-1.48621,0.892639,
-1.48926,0.898743,
-1.49231,0.888062,
-1.48773,0.874329,
-1.48926,0.871277,
-1.48926,0.889587,
-1.49078,0.901794,
-1.49231,0.892639,
-1.48773,0.87738,
-1.48621,0.875854,
-1.48773,0.897217,
-1.48621,0.901794,
-1.49231,0.891113,
-1.49231,0.875854,
-1.49689,0.872803,
-1.50299,0.880432,
-1.49994,0.898743,
-1.50452,0.88501,
-1.50757,0.871277,
-1.51825,0.871277,
-1.52283,0.897217,
-1.53198,0.904846,
-1.53809,0.889587,
-1.54572,0.872803,
-1.55487,0.875854,
-1.55945,0.894165,
-1.57318,0.898743,
-1.57928,0.888062,
-1.58539,0.875854,
-1.59302,0.874329,
-1.60522,0.897217,
-1.61285,0.904846,
-1.62354,0.894165,
-1.63574,0.878906,
-1.64185,0.872803,
-1.65253,0.897217,
-1.66473,0.900269,
-1.67389,0.889587,
-1.67847,0.87738,
-1.68762,0.875854,
-1.6983,0.895691,
-1.70593,0.900269,
-1.71051,0.891113,
-1.71204,0.87738,
-1.72119,0.878906,
-1.72424,0.894165,
-1.73187,0.920105,
-1.73492,0.895691,
-1.73798,0.87738,
-1.74103,0.874329,
-1.74561,0.898743,
-1.75171,0.900269,
-1.75476,0.889587,
-1.75781,0.880432,
-1.75629,0.878906,
-1.76544,0.900269,
-1.77612,0.907898,
-1.78375,0.895691,
-1.78986,0.883484,
-1.79596,0.874329,
-1.80664,0.898743,
-1.81427,0.904846,
-1.8219,0.889587,
-1.82648,0.878906,
-1.83868,0.87738,
-1.84326,0.901794,
-1.85089,0.907898,
-1.86005,0.898743,
-1.86615,0.883484,
-1.87073,0.87738,
-1.87988,0.897217,
-1.89056,0.90332,
-1.89819,0.897217,
-1.90735,0.875854,
-1.91803,0.874329,
-1.92566,0.901794,
-1.93329,0.907898,
-1.94397,0.898743,
-1.94855,0.883484,
-1.95618,0.88501,
-1.96381,0.90332,
-1.97296,0.901794,
-1.98212,0.897217,
-1.98822,0.883484,
-1.99585,0.872803,
-2.00043,0.900269,
-2.00806,0.906372,
-2.01569,0.897217,
-2.02332,0.883484,
-2.02637,0.88501,
-2.034,0.906372,
-2.04315,0.909424,
-2.05536,0.894165,
-2.05994,0.88501,
-2.0752,0.886536,
-2.08282,0.900269,
-2.0874,0.912476,
-2.09656,0.901794,
-2.10419,0.883484,
-2.11639,0.88501,
-2.12555,0.909424,
-2.1286,0.907898,
-2.13776,0.897217,
-2.14233,0.886536,
-2.15149,0.88501,
-2.15759,0.906372,
-2.16522,0.912476,
-2.17133,0.901794,
-2.17133,0.892639,
-2.17285,0.88501,
-2.17285,0.900269,
-2.16675,0.914001,
-2.15912,0.901794,
-2.14233,0.888062,
-2.13013,0.888062,
-2.11182,0.914001,
-2.08435,0.917053,
-2.05841,0.898743,
-2.02637,0.889587,
-1.98975,0.891113,
-1.94397,0.904846,
-1.9104,0.915527,
-1.86768,0.904846,
-1.82343,0.891113,
-1.77307,0.889587,
-1.72424,0.909424,
-1.67542,0.917053,
-1.62811,0.904846,
-1.57471,0.891113,
-1.52588,0.889587,
-1.47552,0.914001,
-1.42822,0.917053,
-1.37939,0.906372,
-1.33209,0.891113,
-1.28784,0.891113,
-1.24817,0.912476,
-1.21002,0.923157,
-1.17188,0.907898,
-1.1322,0.894165,
-1.10168,0.892639,
-1.06964,0.909424,
-1.04828,0.920105,
-1.02386,0.904846,
-0.997925,0.888062,
-0.98114,0.892639,
-0.967407,0.912476,
-0.9552,0.920105,
-0.944519,0.912476,
-0.933838,0.895691,
-0.927734,0.894165,
-0.924683,0.915527,
-0.917053,0.924683,
-0.917053,0.912476,
-0.918579,0.891113,
-0.920105,0.892639,
-0.923157,0.915527,
-0.930786,0.917053,
-0.933838,0.904846,
-0.939941,0.895691,
-0.946045,0.895691,
-0.949097,0.904846,
-0.953674,0.921631,
-0.96283,0.912476,
-0.965881,0.901794,
-0.970459,0.892639,
-0.978088,0.915527,
-0.98877,0.926208,
-1.0025,0.912476,
-1.00861,0.90332,
-1.02081,0.894165,
-1.02844,0.920105,
-1.03912,0.926208,
-1.04828,0.912476,
-1.06049,0.90332,
-1.06812,0.894165,
-1.07269,0.918579,
-1.0849,0.923157,
-1.09406,0.909424,
-1.10168,0.898743,
-1.10779,0.897217,
-1.11694,0.914001,
-1.12457,0.924683,
-1.1322,0.912476,
-1.13983,0.897217,
-1.14441,0.898743,
-1.15356,0.915527,
-1.16577,0.924683,
-1.17493,0.912476,
-1.18103,0.897217,
-1.1795,0.898743,
-1.18408,0.920105,
-1.18713,0.930786,
-1.18866,0.914001,
-1.19324,0.901794,
-1.19476,0.900269,
-1.19781,0.917053,
-1.19934,0.924683,
-1.19781,0.912476,
-1.19476,0.900269,
-1.18866,0.901794,
-1.18408,0.918579,
-1.17798,0.930786,
-1.17493,0.914001,
-1.17035,0.90332,
-1.16425,0.900269,
-1.15814,0.920105,
-1.15356,0.926208,
-1.14899,0.915527,
-1.14746,0.906372,
-1.14594,0.90332,
-1.14288,0.923157,
-1.14288,0.932312,
-1.14136,0.923157,
-1.1322,0.90332,
-1.13525,0.904846,
-1.13525,0.923157,
-1.13068,0.927734,
-1.13068,0.918579,
-1.13068,0.907898,
-1.13525,0.90332,
-1.13678,0.924683,
-1.14594,0.932312,
-1.14746,0.923157,
-1.15051,0.907898,
-1.15509,0.906372,
-1.15509,0.924683,
-1.16425,0.933838,
-1.1673,0.920105,
-1.17188,0.906372,
-1.17493,0.906372,
-1.18256,0.923157,
-1.19324,0.932312,
-1.20239,0.920105,
-1.21002,0.90332,
-1.21765,0.904846,
-1.22528,0.924683,
-1.23901,0.930786,
-1.24512,0.920105,
-1.26038,0.904846,
-1.27258,0.906372,
-1.28326,0.923157,
-1.29089,0.932312,
-1.30157,0.924683,
-1.3092,0.907898,
-1.31531,0.909424,
-1.32446,0.930786,
-1.33972,0.935364,
-1.3504,0.927734,
-1.35803,0.914001,
-1.37329,0.909424,
-1.3855,0.923157,
-1.39618,0.932312,
-1.40686,0.926208,
-1.41144,0.906372,
-1.4267,0.907898,
-1.43738,0.930786,
-1.44958,0.935364,
-1.46179,0.927734,
-1.4679,0.912476,
-1.47858,0.912476,
-1.48773,0.933838,
-1.49231,0.933838,
-1.49994,0.926208,
-1.51215,0.909424,
-1.51978,0.907898,
-1.5213,0.935364,
-1.52588,0.932312,
-1.53503,0.927734,
-1.54419,0.914001,
-1.54572,0.914001,
-1.55029,0.930786,
-1.55334,0.932312,
-1.55945,0.926208,
-1.56403,0.912476,
-1.57013,0.909424,
-1.57623,0.932312,
-1.58234,0.932312,
-1.58691,0.92926,
-1.59607,0.917053,
-1.59454,0.912476,
-1.59912,0.933838,
-1.60065,0.935364,
-1.6037,0.92926,
-1.61133,0.914001,
-1.61133,0.912476,
-1.61896,0.932312,
-1.62048,0.933838,
-1.62354,0.932312,
-1.62964,0.918579,
-1.62811,0.915527,
-1.62811,0.938416,
-1.63116,0.938416,
-1.63422,0.917053,
-1.63422,0.912476,
-1.63879,0.914001,
-1.63879,0.939941,
-1.6449,0.93689,
-1.64948,0.92926,
-1.65405,0.904846,
-1.65253,0.93689,
-1.65863,0.924683,
-1.66168,0.935364,
-1.66473,0.930786,
-1.66473,0.918579,
-1.66779,0.915527,
-1.67084,0.942993,
-1.67542,0.944519,
-1.67999,0.952148,
-1.68915,0.921631,
-1.6983,0.915527,
-1.70441,0.93689,
-1.71204,0.938416,
-1.71967,0.933838,
-1.72729,0.912476,
-1.73645,0.920105,
-1.73798,0.938416,
-1.74866,0.946045,
-1.75781,0.93689,
-1.76086,0.921631,
-1.77002,0.920105,
-1.77612,0.942993,
-1.78528,0.946045,
-1.79138,0.932312,
-1.80206,0.924683,
-1.80817,0.923157,
-1.8158,0.942993,
-1.8219,0.947571,
-1.83105,0.93689,
-1.84174,0.923157,
-1.84631,0.920105,
-1.85394,0.939941,
-1.86005,0.944519,
-1.8692,0.92926,
-1.87683,0.921631,
-1.88446,0.927734,
-1.89362,0.944519,
-1.90125,0.950623,
-1.91498,0.939941,
-1.92108,0.926208,
-1.93176,0.923157,
-1.94092,0.942993,
-1.94702,0.947571,
-1.95313,0.935364,
-1.9577,0.923157,
-1.96991,0.926208,
-1.97754,0.939941,
-1.98517,0.950623,
-1.99432,0.942993,
-2.00043,0.926208,
-2.00958,0.927734,
-2.01874,0.944519,
-2.02789,0.949097,
-2.03857,0.938416,
-2.0462,0.921631,
-2.05536,0.926208,
-2.06757,0.939941,
-2.07672,0.949097,
-2.09198,0.939941,
-2.10266,0.924683,
-2.10724,0.927734,
-2.11639,0.947571,
-2.12708,0.947571,
-2.13013,0.942993,
-2.14081,0.926208,
-2.15302,0.924683,
-2.16064,0.952148,
-2.1698,0.947571,
-2.18353,0.939941,
-2.19269,0.924683,
-2.20337,0.930786,
-2.2171,0.947571,
-2.22626,0.952148,
-2.24152,0.947571,
-2.25067,0.930786,
-2.2583,0.927734,
-2.26288,0.944519,
-2.27966,0.946045,
-2.28882,0.944519,
-2.30103,0.924683,
-2.31323,0.927734,
-2.31781,0.949097,
-2.33459,0.947571,
-2.34222,0.942993,
-2.35443,0.923157,
-2.35901,0.926208,
-2.36816,0.947571,
-2.37579,0.950623,
-2.38647,0.944519,
-2.39105,0.923157,
-2.39868,0.927734,
-2.39868,0.949097,
-2.39563,0.950623,
-2.40021,0.947571,
-2.388,0.92926,
-2.38342,0.927734,
-2.36816,0.950623,
-2.35443,0.9552,
-2.33459,0.944519,
-2.31018,0.926208,
-2.29034,0.92926,
-2.2583,0.952148,
-2.22778,0.950623,
-2.18811,0.939941,
-2.14691,0.935364,
-2.10724,0.926208,
-2.05994,0.950623,
-2.02179,0.953674,
-1.97906,0.946045,
-1.93024,0.927734,
-1.88293,0.927734,
-1.83563,0.950623,
-1.7868,0.947571,
-1.7395,0.946045,
-1.69373,0.932312,
-1.651,0.927734,
-1.61285,0.9552,
-1.57013,0.952148,
-1.53503,0.946045,
-1.49994,0.932312,
-1.46942,0.926208,
-1.44348,0.950623,
-1.41754,0.949097,
-1.39313,0.946045,
-1.36719,0.932312,
-1.34888,0.932312,
-1.33057,0.953674,
-1.31531,0.953674,
-1.3031,0.946045,
-1.29089,0.933838,
-1.28326,0.92926,
-1.27716,0.9552,
-1.27258,0.947571,
-1.26953,0.946045,
-1.26648,0.932312,
-1.26343,0.924683,
-1.26801,0.9552,
-1.26953,0.9552,
-1.27563,0.946045,
-1.28174,0.93689,
-1.28784,0.932312,
-1.297,0.953674,
-1.3031,0.9552,
-1.31226,0.949097,
-1.32141,0.935364,
-1.32446,0.92926,
-1.33057,0.9552,
-1.34583,0.956726,
-1.34888,0.949097,
-1.35956,0.935364,
-1.37024,0.933838,
-1.37634,0.952148,
-1.38855,0.958252,
-1.40076,0.950623,
-1.40991,0.939941,
-1.41754,0.935364,
-1.42975,0.944519,
-1.44348,0.961304,
-1.44958,0.946045,
-1.46332,0.93689,
-1.47705,0.932312,
-1.48926,0.952148,
-1.49689,0.956726,
-1.50757,0.950623,
-1.51672,0.933838,
-1.51978,0.932312,
-1.5274,0.956726,
-1.53809,0.958252,
-1.54572,0.949097,
-1.55029,0.930786,
-1.56097,0.932312,
-1.5625,0.952148,
-1.57013,0.959778,
-1.57166,0.950623,
-1.57318,0.935364,
-1.57166,0.935364,
-1.57166,0.9552,
-1.57318,0.958252,
-1.57166,0.950623,
-1.56555,0.930786,
-1.56403,0.933838,
-1.55945,0.953674,
-1.55182,0.959778,
-1.54724,0.950623,
-1.53809,0.933838,
-1.53046,0.938416,
-1.52588,0.9552,
-1.5213,0.959778,
-1.51978,0.952148,
-1.5152,0.93689,
-1.50909,0.933838,
-1.50299,0.952148,
-1.50146,0.958252,
-1.49384,0.949097,
-1.48773,0.932312,
-1.48468,0.938416,
-1.47858,0.9552,
-1.47247,0.9552,
-1.47095,0.952148,
-1.47095,0.935364,
-1.474,0.93689,
-1.46942,0.953674,
-1.474,0.956726,
-1.47705,0.950623,
-1.47705,0.933838,
-1.48468,0.932312,
-1.48926,0.958252,
-1.49536,0.956726,
-1.50146,0.953674,
-1.51215,0.935364,
-1.5213,0.93689,
-1.53046,0.958252,
-1.54572,0.958252,
-1.5564,0.952148,
-1.55792,0.932312,
-1.56708,0.927734,
-1.58081,0.96283,
-1.58844,0.958252,
-1.60217,0.978088,
-1.6098,0.926208,
-1.62201,0.93689,
-1.63727,0.964355,
-1.64337,0.961304,
-1.66016,0.9552,
-1.67084,0.930786,
-1.67999,0.935364,
-1.6922,0.959778,
-1.6983,0.959778,
-1.71051,0.953674,
-1.72119,0.93689,
-1.7334,0.93689,
-1.74103,0.961304,
-1.75323,0.961304,
-1.76392,0.9552,
-1.77307,0.938416,
-1.78375,0.938416,
-1.79138,0.96283,
-1.80359,0.956726,
-1.8158,0.9552,
-1.8219,0.93689,
-1.83411,0.933838,
-1.84326,0.961304,
-1.85547,0.96283,
-1.8631,0.952148,
-1.87225,0.939941,
-1.88599,0.939941,
-1.89362,0.96283,
-1.90582,0.961304,
-1.91193,0.949097,
-1.92261,0.938416,
-1.92871,0.933838,
-1.93939,0.956726,
-1.94702,0.96283,
-1.9577,0.952148,
-1.96686,0.939941,
-1.97144,0.939941,
-1.98669,0.9552,
-1.99738,0.959778,
-2.01263,0.952148,
-2.01569,0.938416,
-2.02484,0.935364,
-2.02942,0.956726,
-2.03705,0.961304,
-2.04163,0.950623,
-2.05383,0.93689,
-2.05688,0.942993,
-2.06604,0.958252,
-2.07367,0.959778,
-2.07672,0.952148,
-2.08588,0.942993,
-2.08893,0.935364,
-2.09808,0.944519,
-2.10419,0.9552,
-2.11029,0.949097,
-2.11792,0.93689,
-2.1225,0.938416,
-2.12555,0.956726,
-2.1347,0.956726,
-2.13928,0.952148,
-2.14386,0.920105,
-2.14691,0.930786,
-2.15454,0.956726,
-2.16217,0.965881,
-2.17133,0.950623,
-2.17896,0.933838,
-2.18658,0.935364,
-2.19269,0.959778,
-2.19727,0.959778,
-2.20795,0.9552,
-2.21558,0.935364,
-2.22168,0.93689,
-2.23083,0.958252,
-2.24304,0.959778,
-2.24762,0.9552,
-2.25677,0.933838,
-2.26746,0.933838,
-2.27356,0.950623,
-2.28882,0.956726,
-2.30103,0.944519,
-2.3056,0.933838,
-2.31323,0.938416,
-2.31781,0.958252,
-2.33307,0.958252,
-2.34375,0.953674,
-2.35596,0.935364,
-2.36664,0.935364,
-2.38037,0.953674,
-2.39105,0.959778,
-2.39868,0.953674,
-2.40936,0.920105,
-2.42004,0.935364,
-2.4292,0.953674,
-2.43683,0.953674,
-2.45056,0.950623,
-2.45667,0.935364,
-2.46277,0.927734,
-2.4765,0.958252,
-2.48718,0.956726,
-2.49176,0.952148,
-2.50549,0.93689,
-2.51312,0.930786,
-2.52838,0.959778,
-2.54059,0.9552,
-2.54669,0.942993,
-2.5589,0.933838,
-2.56653,0.932312,
-2.57416,0.958252,
-2.57874,0.959778,
-2.58942,0.950623,
-2.59857,0.935364,
-2.59857,0.93689,
-2.6123,0.958252,
-2.61993,0.9552,
-2.62451,0.950623,
-2.63367,0.93689,
-2.63672,0.933838,
-2.65045,0.959778,
-2.65808,0.959778,
-2.66876,0.949097,
-2.67944,0.946045,
-2.68707,0.930786,
-2.69623,0.959778,
-2.70996,0.961304,
-2.72064,0.947571,
-2.73285,0.938416,
-2.742,0.932312,
-2.74811,0.959778,
-2.76184,0.961304,
-2.77252,0.950623,
-2.78473,0.944519,
-2.79999,0.939941,
-2.80914,0.961304,
-2.82135,0.965881,
-2.83051,0.9552,
-2.83813,0.92926,
-2.84882,0.924683,
-2.8595,0.953674,
-2.86865,0.961304,
-2.87781,0.950623,
-2.88391,0.938416,
-2.89307,0.93689,
-2.89612,0.958252,
-2.9007,0.973511,
-2.90527,0.953674,
-2.89612,0.938416,
-2.88696,0.938416,
-2.87933,0.956726,
-2.86865,0.965881,
-2.84882,0.950623,
-2.83051,0.926208,
-2.80914,0.92926,
-2.7832,0.958252,
-2.75269,0.965881,
-2.72827,0.949097,
-2.69318,0.938416,
-2.65961,0.933838,
-2.62299,0.958252,
-2.58789,0.959778,
-2.54669,0.949097,
-2.51007,0.93689,
-2.46429,0.938416,
-2.4231,0.952148,
-2.38647,0.956726,
-2.35138,0.9552,
-2.30713,0.933838,
-2.27203,0.938416,
-2.22931,0.96283,
-2.19574,0.961304,
-2.16064,0.958252,
-2.12708,0.939941,
-2.09503,0.933838,
-2.06299,0.9552,
-2.03552,0.956726,
-2.00958,0.952148,
-1.98212,0.930786,
-1.95618,0.933838,
-1.93939,0.956726,
-1.91498,0.9552,
-1.90125,0.956726,
-1.87988,0.93689,
-1.87073,0.933838,
-1.85394,0.956726,
-1.84326,0.959778,
-1.83716,0.952148,
-1.83258,0.932312,
-1.82648,0.935364,
-1.82495,0.956726,
-1.82037,0.956726,
-1.81427,0.953674,
-1.8158,0.93689,
-1.81274,0.933838,
-1.81274,0.958252,
-1.8158,0.959778,
-1.81274,0.952148,
-1.8158,0.933838,
-1.81732,0.933838,
-1.8219,0.958252,
-1.82343,0.959778,
-1.82648,0.942993,
-1.83868,0.93689,
-1.84326,0.933838,
-1.84937,0.956726,
-1.85394,0.96283,
-1.8631,0.952148,
-1.87073,0.944519,
-1.87988,0.938416,
-1.88904,0.949097,
-1.90277,0.953674,
-1.91345,0.952148,
-1.92261,0.932312,
-1.93176,0.927734,
-1.94244,0.953674,
-1.95313,0.961304,
-1.96228,0.947571,
-1.97144,0.944519,
-1.98212,0.935364,
-1.98212,0.9552,
-1.98822,0.961304,
-1.99432,0.950623,
-1.9928,0.938416,
-1.99585,0.935364,
-2.00043,0.952148,
-2.005,0.959778,
-2.00195,0.946045,
-2.00043,0.932312,
-1.99738,0.932312,
-1.9928,0.950623,
-1.98669,0.959778,
-1.98059,0.949097,
-1.97601,0.932312,
-1.96991,0.942993,
-1.96381,0.956726,
-1.9577,0.961304,
-1.95007,0.950623,
-1.94397,0.933838,
-1.93329,0.935364,
-1.92566,0.956726,
-1.92261,0.950623,
-1.91803,0.950623,
-1.90735,0.932312,
-1.90582,0.935364,
-1.89972,0.953674,
-1.89514,0.959778,
-1.89056,0.958252,
-1.88446,0.93689,
-1.88293,0.932312,
-1.88141,0.9552,
-1.87683,0.959778,
-1.87683,0.947571,
-1.87836,0.930786,
-1.87225,0.933838,
-1.87073,0.956726,
-1.87225,0.959778,
-1.87073,0.950623,
-1.87073,0.932312,
-1.8692,0.932312,
-1.8692,0.950623,
-1.86768,0.979614,
-1.87225,0.952148,
-1.87225,0.930786,
-1.87836,0.933838,
-1.87988,0.956726,
-1.88293,0.953674,
-1.89056,0.952148,
-1.89819,0.935364,
-1.9043,0.932312,
-1.90735,0.946045,
-1.91345,0.956726,
-1.92413,0.946045,
-1.93024,0.932312,
-1.93634,0.926208,
-1.94702,0.956726,
-1.95313,0.9552,
-1.95923,0.952148,
-1.96686,0.933838,
-1.96838,0.930786,
-1.97601,0.956726,
-1.98212,0.956726,
-1.99127,0.946045,
-2.00043,0.932312,
-2.00958,0.935364,
-2.01416,0.953674,
-2.02179,0.952148,
-2.03552,0.944519,
-2.04163,0.932312,
-2.05231,0.92926,
-2.05994,0.958252,
-2.06909,0.958252,
-2.07672,0.949097,
-2.0874,0.932312,
-2.09503,0.932312,
-2.10114,0.9552,
-2.11182,0.956726,
-2.11792,0.946045,
-2.12402,0.932312,
-2.12708,0.927734,
-2.13776,0.953674,
-2.14386,0.959778,
-2.15149,0.946045,
-2.16064,0.932312,
-2.16217,0.932312,
-2.1698,0.958252,
-2.17438,0.9552,
-2.18201,0.946045,
-2.18811,0.933838,
-2.19574,0.924683,
-2.20337,0.953674,
-2.21405,0.959778,
-2.21405,0.939941,
-2.22321,0.933838,
-2.23083,0.930786,
-2.23999,0.952148,
-2.24762,0.961304,
-2.24915,0.947571,
-2.2583,0.92926,
-2.26746,0.92926,
-2.27051,0.949097,
-2.27966,0.9552,
-2.28271,0.939941,
-2.29034,0.92926,
-2.2995,0.930786,
-2.31018,0.952148,
-2.31781,0.959778,
-2.33154,0.946045,
-2.33917,0.930786,
-2.34375,0.930786,
-2.35138,0.950623,
-2.35901,0.9552,
-2.37122,0.944519,
-2.37732,0.92926,
-2.388,0.935364,
-2.39868,0.949097,
-2.40631,0.956726,
-2.41547,0.949097,
-2.4231,0.932312,
-2.43225,0.930786,
-2.43835,0.953674,
-2.45361,0.9552,
-2.45819,0.947571,
-2.46582,0.930786,
-2.47803,0.932312,
-2.48413,0.947571,
-2.49329,0.952148,
-2.49939,0.949097,
-2.50854,0.926208,
-2.51465,0.933838,
-2.5238,0.952148,
-2.53143,0.942993,
-2.54364,0.939941,
-2.54822,0.927734,
-2.56348,0.92926,
-2.57263,0.949097,
-2.58331,0.950623,
-2.59552,0.944519,
-2.60162,0.926208,
-2.61536,0.944519,
-2.62451,0.950623,
-2.63214,0.950623,
-2.64435,0.947571,
-2.6535,0.930786,
-2.65961,0.930786,
-2.67029,0.952148,
-2.67944,0.953674,
-2.69165,0.946045,
-2.70538,0.927734,
-2.71606,0.926208,
-2.72675,0.952148,
-2.742,0.947571,
-2.75116,0.947571,
-2.76031,0.926208,
-2.77252,0.927734,
-2.78473,0.952148,
-2.79694,0.953674,
-2.80609,0.944519,
-2.81525,0.92926,
-2.82593,0.926208,
-2.83508,0.952148,
-2.84729,0.950623,
-2.85187,0.944519,
-2.8595,0.930786,
-2.86865,0.927734,
-2.87628,0.950623,
-2.88544,0.9552,
-2.89917,0.942993,
-2.90527,0.926208,
-2.9129,0.927734,
-2.92969,0.950623,
-2.94037,0.9552,
-2.94647,0.938416,
-2.9541,0.92926,
-2.96326,0.923157,
-2.97089,0.947571,
-2.97546,0.953674,
-2.98462,0.942993,
-2.99377,0.924683,
-3.00293,0.92926,
-3.00903,0.947571,
-3.02124,0.953674,
-3.0304,0.939941,
-3.03497,0.92926,
-3.04108,0.92926,
-3.05328,0.9552,
-3.06244,0.949097,
-3.07312,0.944519,
-3.0838,0.921631,
-3.08838,0.926208,
-3.09601,0.947571,
-3.10974,0.952148,
-3.11432,0.942993,
-3.12195,0.912476,
-3.12805,0.923157,
-3.13263,0.938416,
-3.14178,0.950623,
-3.14636,0.942993,
-3.15857,0.926208,
-3.1662,0.923157,
-3.1723,0.965881,
-3.18451,0.950623,
-3.19672,0.938416,
-3.2074,0.923157,
-3.21808,0.921631,
-3.22418,0.938416,
-3.23181,0.947571,
-3.23334,0.935364,
-3.23639,0.923157,
-3.23334,0.927734,
-3.22113,0.939941,
-3.21198,0.950623,
-3.19977,0.938416,
-3.17688,0.924683,
-3.15247,0.926208,
-3.12653,0.939941,
-3.09448,0.947571,
-3.06244,0.938416,
-3.02277,0.921631,
-2.98309,0.923157,
-2.94037,0.93689,
-2.89917,0.946045,
-2.85797,0.949097,
-2.81067,0.920105,
-2.76489,0.924683,
-2.71454,0.942993,
-2.66724,0.950623,
-2.62146,0.939941,
-2.56958,0.923157,
-2.52838,0.93689,
-2.48566,0.942993,
-2.44293,0.947571,
-2.40326,0.93689,
-2.36969,0.920105,
-2.33154,0.923157,
-2.29797,0.942993,
-2.26288,0.959778,
-2.22931,0.939941,
-2.19727,0.917053,
-2.1698,0.923157,
-2.14233,0.939941,
-2.1225,0.947571,
-2.09198,0.942993,
-2.06909,0.914001,
-2.04468,0.920105,
-2.02484,0.942993,
-2.00653,0.942993,
-1.99127,0.93689,
-1.97754,0.924683,
-1.96381,0.918579,
-1.9577,0.944519,
-1.95007,0.946045,
-1.94397,0.938416,
-1.93634,0.920105,
-1.93176,0.921631,
-1.92719,0.938416,
-1.92719,0.939941,
-1.92719,0.933838,
-1.92719,0.926208,
-1.92566,0.918579,
-1.92719,0.944519,
-1.92566,0.947571,
-1.92566,0.93689,
-1.92719,0.921631,
-1.92719,0.917053,
-1.93024,0.939941,
-1.93024,0.944519,
-1.93329,0.933838,
-1.93176,0.921631,
-1.93481,0.918579,
-1.93481,0.938416,
-1.93787,0.944519,
-1.94855,0.930786,
-1.95007,0.920105,
-1.95618,0.921631,
-1.96075,0.939941,
-1.96991,0.946045,
-1.97601,0.932312,
-1.98364,0.921631,
-1.98975,0.917053,
-1.9928,0.938416,
-2.00195,0.947571,
-2.00653,0.930786,
-2.00806,0.921631,
-2.00958,0.926208,
-2.01416,0.933838,
-2.01569,0.938416,
-2.01416,0.935364,
-2.01416,0.920105,
-2.01874,0.920105,
-2.01721,0.935364,
-2.01874,0.942993,
-2.01569,0.932312,
-2.01263,0.927734,
-2.00806,0.930786,
-2.005,0.933838,
-2.00195,0.944519,
-2.00043,0.932312,
-1.99432,0.915527,
-1.98822,0.918579,
-1.97906,0.939941,
-1.96991,0.938416,
-1.96381,0.932312,
-1.95007,0.915527,
-1.93481,0.917053,
-1.92413,0.933838,
-1.9104,0.946045,
-1.90582,0.933838,
-1.89667,0.915527,
-1.88904,0.918579,
-1.88293,0.938416,
-1.87683,0.942993,
-1.8692,0.935364,
-1.86157,0.917053,
-1.85242,0.912476,
-1.84784,0.935364,
-1.84021,0.93689,
-1.83258,0.932312,
-1.83105,0.912476,
-1.828,0.918579,
-1.82648,0.935364,
-1.82343,0.938416,
-1.82648,0.930786,
-1.82648,0.915527,
-1.83105,0.915527,
-1.83258,0.933838,
-1.83258,0.93689,
-1.83105,0.927734,
-1.82648,0.914001,
-1.83105,0.915527,
-1.83258,0.933838,
-1.84021,0.935364,
-1.84479,0.92926,
-1.85242,0.914001,
-1.85547,0.915527,
-1.86615,0.935364,
-1.87225,0.93689,
-1.88446,0.92926,
-1.89056,0.914001,
-1.89667,0.909424,
-1.90277,0.933838,
-1.9104,0.930786,
-1.91956,0.924683,
-1.92566,0.914001,
-1.93176,0.909424,
-1.93481,0.933838,
-1.94397,0.932312,
-1.95007,0.927734,
-1.9577,0.912476,
-1.96381,0.912476,
-1.96838,0.932312,
-1.98059,0.932312,
-1.98364,0.926208,
-1.98975,0.897217,
-1.99585,0.901794,
-2.00195,0.93689,
-2.00958,0.93689,
-2.02179,0.927734,
-2.02789,0.917053,
-2.03857,0.915527,
-2.04773,0.932312,
-2.05536,0.938416,
-2.05994,0.926208,
-2.07214,0.914001,
-2.07977,0.90332,
-2.0874,0.932312,
-2.09351,0.933838,
-2.10266,0.923157,
-2.11029,0.915527,
-2.11639,0.909424,
-2.12555,0.92926,
-2.13013,0.935364,
-2.1347,0.926208,
-2.14081,0.917053,
-2.14081,0.90332,
-2.14539,0.926208,
-2.14996,0.9552,
-2.15454,0.920105,
-2.16064,0.914001,
-2.16675,0.907898,
-2.1698,0.926208,
-2.1759,0.938416,
-2.18353,0.926208,
-2.18506,0.930786,
-2.18811,0.909424,
-2.19421,0.92926,
-2.19879,0.935364,
-2.20795,0.923157,
-2.211,0.909424,
-2.211,0.909424,
-2.2171,0.92926,
-2.2171,0.93689,
-2.22321,0.926208,
-2.22931,0.914001,
-2.23846,0.917053,
-2.24457,0.932312,
-2.25067,0.92926,
-2.25372,0.909424,
-2.25983,0.907898,
-2.26135,0.906372,
-2.26898,0.927734,
-2.27203,0.930786,
-2.28424,0.935364,
-2.29034,0.909424,
-2.30255,0.915527,
-2.30713,0.930786,
-2.31476,0.935364,
-2.32086,0.927734,
-2.33459,0.904846,
-2.34375,0.907898,
-2.35443,0.926208,
-2.35748,0.927734,
-2.36664,0.924683,
-2.37274,0.907898,
-2.38037,0.909424,
-2.38953,0.933838,
-2.39868,0.930786,
-2.40784,0.927734,
-2.42004,0.909424,
-2.42462,0.907898,
-2.43225,0.92926,
-2.44598,0.92926,
-2.45514,0.923157,
-2.46277,0.904846,
-2.46735,0.904846,
-2.47955,0.92926,
-2.48413,0.92926,
-2.48871,0.926208,
-2.49481,0.907898,
-2.50244,0.906372,
-2.50702,0.933838,
-2.51312,0.933838,
-2.52228,0.924683,
-2.53296,0.907898,
-2.53906,0.923157,
-2.54974,0.923157,
-2.55737,0.92926,
-2.56805,0.920105,
-2.57568,0.907898,
-2.58331,0.901794,
-2.59247,0.926208,
-2.59857,0.92926,
-2.60925,0.927734,
-2.61993,0.909424,
-2.62909,0.901794,
-2.63672,0.926208,
-2.6474,0.92926,
-2.6535,0.920105,
-2.66113,0.904846,
-2.67487,0.901794,
-2.68555,0.926208,
-2.69623,0.92926,
-2.70538,0.918579,
-2.71454,0.909424,
-2.72217,0.90332,
-2.73438,0.924683,
-2.74353,0.932312,
-2.75574,0.921631,
-2.76794,0.907898,
-2.77252,0.90332,
-2.78168,0.923157,
-2.79236,0.932312,
-2.80304,0.915527,
-2.81525,0.904846,
-2.82593,0.906372,
-2.83813,0.923157,
-2.84424,0.932312,
-2.85797,0.918579,
-2.86102,0.907898,
-2.87628,0.906372,
-2.88239,0.927734,
-2.89459,0.933838,
-2.90222,0.921631,
-2.91443,0.906372,
-2.92358,0.904846,
-2.93121,0.923157,
-2.94342,0.926208,
-2.9541,0.917053,
-2.96021,0.900269,
-2.96783,0.901794,
-2.97394,0.927734,
-2.98462,0.926208,
-2.99377,0.920105,
-3.00446,0.904846,
-3.00598,0.901794,
-3.00903,0.926208,
-3.01208,0.927734,
-3.02124,0.920105,
-3.02429,0.901794,
-3.0304,0.901794,
-3.04108,0.924683,
-3.04413,0.923157,
-3.05328,0.921631,
-3.05786,0.906372,
-3.06396,0.900269,
-3.06854,0.926208,
-3.07312,0.92926,
-3.08075,0.920105,
-3.08533,0.904846,
-3.0899,0.906372,
-3.09448,0.92926,
-3.09448,0.923157,
-3.09296,0.920105,
-3.08533,0.90332,
-3.07617,0.900269,
-3.06549,0.927734,
-3.05176,0.92926,
-3.03497,0.920105,
-3.01666,0.906372,
-2.99225,0.904846,
-2.96631,0.920105,
-2.93427,0.927734,
-2.89917,0.918579,
-2.8656,0.900269,
-2.82593,0.897217,
-2.78473,0.923157,
-2.74963,0.924683,
-2.70691,0.915527,
-2.66113,0.907898,
-2.61841,0.901794,
-2.57416,0.921631,
-2.53296,0.927734,
-2.48413,0.915527,
-2.44141,0.900269,
-2.39868,0.898743,
-2.35748,0.918579,
-2.31781,0.927734,
-2.27966,0.915527,
-2.23846,0.90332,
-2.19879,0.901794,
-2.1637,0.920105,
-2.12708,0.927734,
-2.09656,0.920105,
-2.05841,0.900269,
-2.02942,0.90332,
-1.99738,0.924683,
-1.97754,0.926208,
-1.95465,0.914001,
-1.93176,0.900269,
-1.9104,0.898743,
-1.89056,0.920105,
-1.87683,0.923157,
-1.86005,0.915527,
-1.84479,0.901794,
-1.83105,0.901794,
-1.81732,0.924683,
-1.80511,0.924683,
-1.79749,0.915527,
-1.78833,0.900269,
-1.78223,0.900269,
-1.77002,0.920105,
-1.77002,0.921631,
-1.76239,0.914001,
-1.75781,0.898743,
-1.74866,0.897217,
-1.74713,0.921631,
-1.74561,0.921631,
-1.74103,0.917053,
-1.74561,0.894165,
-1.74408,0.898743,
-1.73798,0.914001,
-1.73798,0.920105,
-1.74713,0.918579,
-1.74713,0.883484,
-1.74713,0.898743,
-1.75171,0.907898,
-1.75629,0.920105,
-1.76086,0.917053,
-1.76697,0.898743,
-1.77002,0.895691,
-1.78223,0.924683,
-1.78375,0.914001,
-1.78833,0.914001,
-1.79596,0.898743,
-1.79901,0.897217,
-1.79901,0.920105,
-1.80359,0.917053,
-1.80359,0.915527,
-1.80511,0.898743,
-1.79901,0.894165,
-1.80206,0.906372,
-1.79596,0.920105,
-1.78833,0.914001,
-1.78528,0.900269,
-1.78375,0.889587,
-1.7746,0.918579,
-1.77002,0.917053,
-1.76086,0.912476,
-1.75476,0.897217,
-1.74561,0.895691,
-1.73645,0.920105,
-1.72882,0.920105,
-1.72119,0.912476,
-1.71661,0.900269,
-1.70746,0.897217,
-1.69525,0.933838,
-1.6861,0.912476,
-1.67084,0.907898,
-1.66321,0.898743,
-1.64948,0.889587,
-1.63574,0.915527,
-1.62964,0.920105,
-1.61896,0.907898,
-1.60675,0.892639,
-1.59607,0.897217,
-1.58691,0.915527,
-1.58386,0.921631,
-1.57318,0.912476,
-1.56555,0.892639,
-1.5564,0.892639,
-1.55334,0.917053,
-1.54724,0.923157,
-1.54114,0.907898,
-1.53656,0.895691,
-1.53351,0.897217,
-1.53198,0.917053,
-1.52435,0.915527,
-1.52435,0.914001,
-1.51978,0.897217,
-1.51978,0.894165,
-1.52283,0.914001,
-1.5213,0.920105,
-1.52435,0.92926,
-1.52435,0.894165,
-1.52588,0.897217,
-1.5274,0.912476,
-1.52893,0.918579,
-1.53351,0.914001,
-1.53656,0.895691,
-1.54419,0.898743,
-1.55029,0.917053,
-1.55487,0.918579,
-1.56097,0.907898,
-1.57318,0.894165,
-1.58386,0.892639,
-1.58844,0.909424,
-1.59912,0.920105,
-1.60828,0.907898,
-1.61743,0.895691,
-1.62354,0.894165,
-1.63574,0.914001,
-1.6449,0.917053,
-1.651,0.914001,
-1.6571,0.894165,
-1.66321,0.897217,
-1.66779,0.912476,
-1.67236,0.918579,
-1.68152,0.909424,
-1.69067,0.888062,
-1.6983,0.888062,
-1.70746,0.917053,
-1.71204,0.914001,
-1.72119,0.914001,
-1.72882,0.895691,
-1.7395,0.883484,
-1.74866,0.917053,
-1.75171,0.900269,
-1.75629,0.904846,
-1.76086,0.889587,
-1.76849,0.891113,
-1.7746,0.917053,
-1.78223,0.907898,
-1.78986,0.909424,
-1.79749,0.894165,
-1.80206,0.895691,
-1.80817,0.915527,
-1.81274,0.920105,
-1.82343,0.904846,
-1.82648,0.891113,
-1.828,0.87738,
-1.83563,0.914001,
-1.84174,0.912476,
-1.84479,0.906372,
-1.84784,0.894165,
-1.84937,0.888062,
-1.85699,0.909424,
-1.86157,0.917053,
-1.86768,0.904846,
-1.86768,0.897217,
-1.87531,0.889587,
-1.87988,0.915527,
-1.89056,0.914001,
-1.89514,0.906372,
-1.89972,0.892639,
-1.90582,0.888062,
-1.90887,0.909424,
-1.91345,0.917053,
-1.92108,0.904846,
-1.92871,0.895691,
-1.93634,0.892639,
-1.94244,0.914001,
-1.9516,0.912476,
-1.9577,0.904846,
-1.96381,0.892639,
-1.97144,0.886536,
-1.98059,0.912476,
-1.98822,0.915527,
-1.99432,0.894165,
-1.9989,0.915527,
-2.00653,0.889587,
-2.01263,0.912476,
-2.01874,0.917053,
-2.02484,0.90332,
-2.03552,0.889587,
-2.03857,0.888062,
-2.04468,0.907898,
-2.05688,0.915527,
-2.06757,0.901794,
-2.07825,0.891113,
-2.09198,0.889587,
-2.09808,0.906372,
-2.10876,0.917053,
-2.11487,0.906372,
-2.12555,0.888062,
-2.13623,0.888062,
-2.14539,0.907898,
-2.15759,0.914001,
-2.16675,0.900269,
-2.17896,0.889587,
-2.18658,0.891113,
-2.19879,0.906372,
-2.21405,0.915527,
-2.22168,0.90332,
-2.23083,0.891113,
-2.23999,0.892639,
-2.2522,0.906372,
-2.2583,0.915527,
-2.2644,0.901794,
-2.27661,0.888062,
-2.28424,0.891113,
-2.28882,0.906372,
-2.30103,0.914001,
-2.30713,0.900269,
-2.31171,0.891113,
-2.32086,0.892639,
-2.33154,0.909424,
-2.33612,0.912476,
-2.3468,0.900269,
-2.35138,0.894165,
-2.35748,0.891113,
-2.36664,0.926208,
-2.37427,0.907898,
-2.38647,0.90332,
-2.3941,0.886536,
-2.40021,0.894165,
-2.40479,0.909424,
-2.41547,0.915527,
-2.42462,0.906372,
-2.4292,0.886536,
-2.43683,0.891113,
-2.44446,0.909424,
-2.44904,0.909424,
-2.45514,0.904846,
-2.46277,0.886536,
-2.46582,0.889587,
-2.47498,0.904846,
-2.48108,0.900269,
-2.48871,0.907898,
-2.49634,0.891113,
-2.50549,0.889587,
-2.51312,0.907898,
-2.52075,0.909424,
-2.52991,0.897217,
-2.53754,0.886536,
-2.54364,0.888062,
-2.5528,0.909424,
-2.55737,0.904846,
-2.565,0.901794,
-2.56958,0.891113,
-2.57874,0.886536,
-2.59094,0.909424,
-2.59705,0.907898,
-2.60468,0.90332,
-2.61536,0.886536,
-2.61841,0.883484,
-2.62299,0.906372,
-2.63519,0.906372,
-2.64587,0.901794,
-2.6535,0.872803,
-2.65961,0.883484,
-2.66724,0.90332,
-2.66571,0.914001,
-2.67792,0.900269,
-2.6825,0.88501,
-2.68402,0.888062,
-2.69318,0.906372,
-2.69318,0.909424,
-2.6947,0.901794,
-2.69318,0.888062,
-2.69165,0.886536,
-2.68555,0.904846,
-2.67639,0.906372,
-2.66266,0.898743,
-2.64435,0.888062,
-2.62146,0.889587,
-2.59705,0.904846,
-2.56805,0.907898,
-2.53601,0.900269,
-2.50092,0.888062,
-2.45972,0.886536,
-2.41852,0.906372,
-2.37579,0.904846,
-2.33154,0.901794,
-2.28119,0.886536,
-2.23389,0.886536,
-2.18506,0.90332,
-2.13776,0.912476,
-2.08893,0.900269,
-2.0401,0.888062,
-1.99432,0.88501,
-1.94397,0.907898,
-1.89819,0.907898,
-1.85242,0.898743,
-1.80969,0.883484,
-1.76697,0.88501,
-1.72577,0.900269,
-1.68304,0.907898,
-1.64642,0.898743,
-1.61133,0.886536,
-1.57776,0.886536,
-1.54877,0.904846,
-1.51367,0.906372,
-1.48468,0.900269,
-1.45874,0.886536,
-1.43585,0.886536,
-1.41449,0.900269,
-1.39618,0.906372,
-1.37177,0.900269,
-1.35498,0.880432,
-1.33362,0.886536,
-1.31531,0.906372,
-1.30157,0.894165,
-1.29089,0.891113,
-1.28326,0.88501,
-1.27563,0.878906,
-1.26495,0.904846,
-1.26343,0.901794,
-1.2619,0.891113,
-1.25427,0.878906,
-1.25275,0.883484,
-1.25122,0.906372,
-1.24817,0.90332,
-1.24664,0.898743,
-1.24359,0.88501,
-1.24207,0.88501,
-1.24207,0.901794,
-1.24359,0.923157,
-1.24359,0.897217,
-1.24359,0.88501,
-1.24207,0.878906,
-1.24207,0.90332,
-1.24207,0.90332,
-1.24359,0.891113,
-1.24512,0.880432,
-1.24817,0.878906,
-1.25427,0.90332,
-1.25732,0.906372,
-1.26343,0.898743,
-1.26343,0.88501,
-1.26648,0.88501,
-1.26953,0.90332,
-1.27106,0.90332,
-1.27106,0.895691,
-1.27258,0.88501,
-1.27106,0.87738,
-1.27258,0.898743,
-1.27106,0.907898,
-1.27106,0.892639,
-1.26801,0.886536,
-1.27106,0.880432,
-1.27106,0.90332,
-1.26801,0.906372,
-1.26495,0.898743,
-1.25427,0.883484,
-1.24359,0.880432,
-1.23444,0.897217,
-1.22681,0.904846,
-1.2146,0.891113,
-1.20544,0.880432,
-1.19324,0.883484,
-1.18561,0.900269,
-1.17645,0.904846,
-1.1673,0.897217,
-1.15509,0.878906,
-1.14441,0.883484,
-1.13983,0.904846,
-1.12762,0.90332,
-1.11694,0.894165,
-1.10931,0.883484,
-1.09558,0.87738,
-1.091,0.897217,
-1.0849,0.906372,
-1.08337,0.898743,
-1.07269,0.880432,
-1.06812,0.883484,
-1.06659,0.904846,
-1.06201,0.90332,
-1.06506,0.898743,
-1.05896,0.880432,
-1.05743,0.904846,
-1.06049,0.900269,
-1.06049,0.90332,
-1.06354,0.897217,
-1.06201,0.878906,
-1.05743,0.87738,
-1.05896,0.892639,
-1.06201,0.898743,
-1.06964,0.898743,
-1.07574,0.880432,
-1.08032,0.875854,
-1.0849,0.901794,
-1.08795,0.901794,
-1.09406,0.894165,
-1.10016,0.880432,
-1.10626,0.878906,
-1.11237,0.900269,
-1.11694,0.898743,
-1.12457,0.892639,
-1.1322,0.87738,
-1.13983,0.874329,
-1.14746,0.901794,
-1.15509,0.904846,
-1.16425,0.888062,
-1.1673,0.888062,
-1.17645,0.87738,
-1.18256,0.898743,
-1.18866,0.90332,
-1.19934,0.892639,
-1.2085,0.878906,
-1.21613,0.868225,
-1.22528,0.898743,
-1.23596,0.901794,
-1.24512,0.891113,
-1.25885,0.880432,
-1.26495,0.878906,
-1.27411,0.898743,
-1.28326,0.901794,
-1.29395,0.894165,
-1.30005,0.868225,
-1.30615,0.883484,
-1.31683,0.891113,
-1.31836,0.901794,
-1.31989,0.889587,
-1.32446,0.878906,
-1.33057,0.87738,
-1.34125,0.892639,
-1.34583,0.907898,
-1.35193,0.897217,
-1.35803,0.87738,
-1.36871,0.87738,
-1.37329,0.898743,
-1.37634,0.900269,
-1.37939,0.895691,
-1.38702,0.874329,
-1.39008,0.87738,
-1.40076,0.897217,
-1.40228,0.895691,
-1.40991,0.895691,
-1.41296,0.872803,
-1.42059,0.875854,
-1.42517,0.900269,
-1.4267,0.898743,
-1.4328,0.894165,
-1.44348,0.87738,
-1.44958,0.87738,
-1.45874,0.898743,
-1.46484,0.900269,
-1.47247,0.895691,
-1.47705,0.872803,
-1.48621,0.875854,
-1.49689,0.897217,
-1.50757,0.898743,
-1.51978,0.895691,
-1.52588,0.866699,
-1.52588,0.901794,
-1.53046,0.897217,
-1.54266,0.901794,
-1.55182,0.894165,
-1.5564,0.880432,
-1.56555,0.869751,
-1.57166,0.897217,
-1.57928,0.892639,
-1.58691,0.87738,
-1.59454,0.87738,
-1.60217,0.875854,
-1.60675,0.898743,
-1.61438,0.898743,
-1.62811,0.891113,
-1.63422,0.878906,
-1.63879,0.87738,
-1.64795,0.897217,
-1.65405,0.897217,
-1.66626,0.892639,
-1.67542,0.87738,
-1.67999,0.872803,
-1.68915,0.895691,
-1.69983,0.900269,
-1.71051,0.889587,
-1.71967,0.87738,
-1.73187,0.87738,
-1.7395,0.898743,
-1.75476,0.898743,
-1.76239,0.889587,
-1.7746,0.878906,
-1.78223,0.874329,
-1.79291,0.892639,
-1.80969,0.898743,
-1.82037,0.891113,
-1.83105,0.87738,
-1.84326,0.87738,
-1.85547,0.895691,
-1.87073,0.901794,
-1.88599,0.892639,
-1.89209,0.87738,
-1.9043,0.875854,
-1.91956,0.892639,
-1.93176,0.898743,
-1.94855,0.888062,
-1.96075,0.872803,
-1.96838,0.878906,
-1.97906,0.892639,
-1.98822,0.898743,
-2.00653,0.880432,
-2.02179,0.871277,
-2.03857,0.875854,
-2.04926,0.894165,
-2.06451,0.90332,
-2.07977,0.891113,
-2.0874,0.875854,
-2.10266,0.875854,
-2.1225,0.888062,
-2.13776,0.894165,
-2.15759,0.888062,
-2.17133,0.874329,
-2.18811,0.874329,
-2.20337,0.895691,
-2.22321,0.900269,
-2.24152,0.892639,
-2.25525,0.875854,
-2.26898,0.872803,
-2.28729,0.892639,
-2.30103,0.900269,
-2.31781,0.889587,
-2.33307,0.871277,
-2.33765,0.871277,
-2.35443,0.897217,
-2.36359,0.898743,
-2.37427,0.895691,
-2.38342,0.875854,
-2.39105,0.872803,
-2.40021,0.900269,
-2.40631,0.898743,
-2.42004,0.891113,
-2.4292,0.871277,
-2.43683,0.872803,
-2.44751,0.898743,
-2.45972,0.898743,
-2.46582,0.894165,
-2.47345,0.875854,
-2.47955,0.872803,
-2.4765,0.897217,
-2.47803,0.892639,
-2.47498,0.891113,
-2.46735,0.874329,
-2.45667,0.874329,
-2.44446,0.894165,
-2.42462,0.894165,
-2.40173,0.883484,
-2.37885,0.892639,
-2.34833,0.869751,
-2.31628,0.897217,
-2.27814,0.900269,
-2.24304,0.889587,
-2.20032,0.874329,
-2.15607,0.880432,
-2.10724,0.894165,
-2.05841,0.895691,
-2.00806,0.872803,
-1.95618,0.872803,
-1.89972,0.872803,
-1.84937,0.892639,
-1.79138,0.898743,
-1.7395,0.88501,
-1.69067,0.875854,
-1.63574,0.872803,
-1.58844,0.894165,
-1.54266,0.901794,
-1.49841,0.891113,
-1.45416,0.875854,
-1.40839,0.869751,
-1.36261,0.894165,
-1.32446,0.898743,
-1.28784,0.888062,
-1.25427,0.869751,
-1.21765,0.875854,
-1.18713,0.892639,
-1.15509,0.901794,
-1.12762,0.891113,
-1.10626,0.871277,
-1.08032,0.872803,
-1.05896,0.88501,
-1.03607,0.898743,
-1.01318,0.886536,
-0.994873,0.872803,
-0.973511,0.872803,
-0.959778,0.886536,
-0.941467,0.901794,
-0.930786,0.878906,
-0.920105,0.892639,
-0.912476,0.869751,
-0.898743,0.894165,
-0.891113,0.898743,
-0.883484,0.888062,
-0.878906,0.868225,
-0.872803,0.871277,
-0.866699,0.891113,
-0.865173,0.898743,
-0.862122,0.886536,
-0.862122,0.866699,
-0.860596,0.874329,
-0.860596,0.895691,
-0.862122,0.895691,
-0.863647,0.888062,
-0.868225,0.868225,
-0.866699,0.872803,
-0.872803,0.892639,
-0.87738,0.894165,
-0.88501,0.888062,
-0.888062,0.866699,
-0.891113,0.875854,
-0.894165,0.894165,
-0.898743,0.897217,
-0.90332,0.889587,
-0.904846,0.871277,
-0.906372,0.868225,
-0.906372,0.894165,
-0.907898,0.895691,
-0.904846,0.88501,
-0.904846,0.866699,
-0.907898,0.866699,
-0.904846,0.891113,
-0.906372,0.891113,
-0.904846,0.889587,
-0.898743,0.865173,
-0.892639,0.869751,
-0.88501,0.888062,
-0.881958,0.897217,
-0.875854,0.889587,
-0.863647,0.868225,
-0.860596,0.866699,
-0.854492,0.889587,
-0.849915,0.897217,
-0.843811,0.886536,
-0.83313,0.869751,
-0.823975,0.866699,
-0.811768,0.894165,
-0.80719,0.900269,
-0.796509,0.886536,
-0.790405,0.866699,
-0.78125,0.869751,
-0.775146,0.888062,
-0.767517,0.895691,
-0.767517,0.883484,
-0.764465,0.871277,
-0.758362,0.866699,
-0.758362,0.891113,
-0.752258,0.895691,
-0.752258,0.88501,
-0.746155,0.871277,
-0.747681,0.863647,
-0.743103,0.891113,
-0.743103,0.898743,
-0.744629,0.88501,
-0.740051,0.871277,
-0.740051,0.866699,
-0.740051,0.889587,
-0.744629,0.897217,
-0.750732,0.878906,
-0.758362,0.874329,
-0.761414,0.869751,
-0.762939,0.891113,
-0.772095,0.898743,
-0.778198,0.883484,
-0.790405,0.872803,
-0.798035,0.865173,
-0.805664,0.886536,
-0.819397,0.898743,
-0.828552,0.878906,
-0.836182,0.869751,
-0.848389,0.868225,
-0.852966,0.888062,
-0.860596,0.900269,
-0.869751,0.88501,
-0.878906,0.874329,
-0.889587,0.871277,
-0.904846,0.888062,
-0.91095,0.897217,
-0.920105,0.878906,
-0.932312,0.868225,
-0.941467,0.866699,
-0.952148,0.883484,
-0.964355,0.897217,
-0.975037,0.886536,
-0.98877,0.868225,
-1.00098,0.869751,
-1.01013,0.889587,
-1.02386,0.895691,
-1.02997,0.88501,
-1.03607,0.868225,
-1.04218,0.866699,
-1.05286,0.88501,
-1.05896,0.895691,
-1.06812,0.880432,
-1.07117,0.865173,
-1.08337,0.871277,
-1.09406,0.892639,
-1.10016,0.888062,
-1.11084,0.886536,
-1.12457,0.868225,
-1.13068,0.868225,
-1.13983,0.886536,
-1.14594,0.880432,
-1.15509,0.880432,
-1.16425,0.863647,
-1.17188,0.865173,
-1.17493,0.888062,
-1.18713,0.892639,
-1.19476,0.886536,
-1.20239,0.866699,
-1.21002,0.868225,
-1.21918,0.888062,
-1.22223,0.892639,
-1.23138,0.88501,
-1.23901,0.863647,
-1.24512,0.865173,
-1.2558,0.888062,
-1.26038,0.894165,
-1.27106,0.87738,
-1.27716,0.888062,
-1.28174,0.868225,
-1.29242,0.889587,
-1.297,0.894165,
-1.3092,0.883484,
-1.31378,0.866699,
-1.31683,0.872803,
-1.32751,0.886536,
-1.33057,0.894165,
-1.33972,0.883484,
-1.34125,0.869751,
-1.34583,0.866699,
-1.34735,0.886536,
-1.35498,0.892639,
-1.36108,0.880432,
-1.36871,0.868225,
-1.37634,0.866699,
-1.37939,0.889587,
-1.38855,0.891113,
-1.39771,0.880432,
-1.40381,0.868225,
-1.41144,0.860596,
-1.41449,0.88501,
-1.42822,0.888062,
-1.4267,0.886536,
-1.43738,0.869751,
-1.44196,0.865173,
-1.45416,0.88501,
-1.46027,0.892639,
-1.4679,0.87738,
-1.47858,0.866699,
-1.48773,0.862122,
-1.49384,0.886536,
-1.50299,0.894165,
-1.51672,0.87738,
-1.52435,0.871277,
-1.53351,0.866699,
-1.54266,0.886536,
-1.55487,0.894165,
-1.56403,0.880432,
-1.57623,0.869751,
-1.58997,0.863647,
-1.60217,0.88501,
-1.61591,0.892639,
-1.63269,0.87738,
-1.6449,0.866699,
-1.66016,0.868225,
-1.66779,0.88501,
-1.67694,0.892639,
-1.69067,0.880432,
-1.69983,0.863647,
-1.71051,0.866699,
-1.72424,0.88501,
-1.73187,0.891113,
-1.74103,0.87738,
-1.74713,0.866699,
-1.75934,0.865173,
-1.76544,0.883484,
-1.77307,0.894165,
-1.7807,0.883484,
-1.78986,0.860596,
-1.79901,0.868225,
-1.81274,0.88501,
-1.82037,0.888062,
-1.83411,0.878906,
-1.84937,0.865173,
-1.85699,0.866699,
-1.8692,0.883484,
-1.87988,0.891113,
-1.89209,0.878906,
-1.89972,0.863647,
-1.90735,0.865173,
-1.91956,0.883484,
-1.93176,0.892639,
-1.94244,0.88501,
-1.95465,0.866699,
-1.95923,0.865173,
-1.96075,0.883484,
-1.9577,0.898743,
-1.96381,0.878906,
-1.96381,0.866699,
-1.96075,0.863647,
-1.95465,0.883484,
-1.94092,0.888062,
-1.92871,0.883484,
-1.9104,0.860596,
-1.89209,0.866699,
-1.86768,0.889587,
-1.84174,0.892639,
-1.80969,0.880432,
-1.77307,0.865173,
-1.73492,0.868225,
-1.6922,0.880432,
-1.651,0.88501,
-1.60675,0.878906,
-1.56403,0.868225,
-1.52588,0.863647,
-1.47705,0.886536,
-1.43585,0.888062,
-1.39618,0.875854,
-1.35193,0.868225,
-1.30463,0.868225,
-1.26801,0.88501,
-1.22986,0.888062,
-1.18713,0.87738,
-1.14899,0.868225,
-1.11389,0.865173,
-1.08185,0.875854,
-1.04675,0.878906,
-1.02081,0.874329,
-0.985718,0.866699,
-0.961304,0.865173,
-0.93689,0.883484,
-0.914001,0.888062,
-0.894165,0.875854,
-0.878906,0.868225,
-0.863647,0.849915,
-0.848389,0.872803,
-0.839233,0.891113,
-0.836182,0.874329,
-0.828552,0.866699,
-0.819397,0.866699,
-0.817871,0.878906,
-0.810242,0.891113,
-0.80719,0.883484,
-0.80719,0.863647,
-0.80719,0.863647,
-0.80719,0.883484,
-0.808716,0.888062,
-0.805664,0.875854,
-0.816345,0.863647,
-0.820923,0.866699,
-0.823975,0.878906,
-0.828552,0.889587,
-0.839233,0.880432,
-0.843811,0.863647,
-0.848389,0.863647,
-0.849915,0.883484,
-0.85907,0.888062,
-0.860596,0.87738,
-0.872803,0.862122,
-0.874329,0.866699,
-0.883484,0.880432,
-0.891113,0.88501,
-0.90332,0.878906,
-0.907898,0.863647,
-0.912476,0.872803,
-0.917053,0.880432,
-0.932312,0.891113,
-0.942993,0.87738,
-0.950623,0.862122,
-0.956726,0.863647,
-0.961304,0.87738,
-0.971985,0.891113,
-0.978088,0.87738,
-0.985718,0.862122,
-0.993347,0.865173,
-0.993347,0.880432,
-0.999451,0.883484,
-1.00098,0.878906,
-1.00555,0.860596,
-1.00708,0.860596,
-1.00403,0.87738,
-1.00555,0.886536,
-1.00555,0.878906,
-1.0025,0.862122,
-0.999451,0.85907,
-0.996399,0.88501,
-0.994873,0.880432,
-0.991821,0.87738,
-0.98877,0.866699,
-0.984192,0.860596,
-0.98114,0.883484,
-0.976563,0.888062,
-0.975037,0.874329,
-0.970459,0.862122,
-0.970459,0.85907,
-0.965881,0.87738,
-0.965881,0.880432,
-0.961304,0.878906,
-0.956726,0.863647,
-0.961304,0.860596,
-0.9552,0.880432,
-0.953674,0.883484,
-0.949097,0.875854,
-0.946045,0.868225,
-0.942993,0.862122,
-0.946045,0.87738,
-0.941467,0.878906,
-0.941467,0.872803,
-0.946045,0.863647,
-0.950623,0.863647,
-0.950623,0.880432,
-0.952148,0.888062,
-0.96283,0.880432,
-0.965881,0.865173,
-0.973511,0.860596,
-0.979614,0.880432,
-0.98877,0.883484,
-0.994873,0.872803,
-1.00555,0.863647,
-1.01471,0.860596,
-1.02539,0.880432,
-1.03912,0.886536,
-1.05286,0.874329,
-1.05896,0.863647,
-1.06964,0.860596,
-1.08032,0.88501,
-1.08948,0.875854,
-1.10168,0.866699,
-1.11694,0.85144,
-1.13068,0.860596,
-1.14136,0.875854,
-1.15509,0.889587,
-1.16425,0.871277,
-1.17493,0.871277,
-1.18713,0.863647,
-1.20087,0.87738,
-1.21155,0.891113,
-1.22833,0.875854,
-1.23901,0.865173,
-1.24817,0.862122,
-1.26495,0.87738,
-1.27563,0.886536,
-1.29242,0.871277,
-1.30005,0.862122,
-1.31073,0.860596,
-1.32599,0.872803,
-1.3382,0.888062,
-1.35193,0.87738,
-1.36261,0.865173,
-1.37787,0.863647,
-1.38855,0.868225,
-1.40076,0.880432,
-1.41449,0.874329,
-1.42517,0.85907,
-1.43738,0.863647,
-1.44501,0.871277,
-1.45111,0.889587,
-1.46027,0.891113,
-1.46942,0.849915,
-1.47858,0.863647,
-1.48926,0.878906,
-1.50146,0.88501,
-1.49994,0.875854,
-1.50757,0.862122,
-1.51672,0.860596,
-1.52435,0.856018,
-1.53198,0.886536,
-1.54419,0.875854,
-1.55334,0.860596,
-1.56403,0.857544,
-1.57471,0.874329,
-1.58539,0.88501,
-1.59302,0.87738,
-1.60065,0.863647,
-1.6098,0.862122,
-1.61285,0.874329,
-1.61591,0.88501,
-1.61896,0.875854,
-1.62201,0.862122,
-1.63116,0.860596,
-1.62964,0.87738,
-1.63422,0.883484,
-1.63879,0.875854,
-1.63879,0.863647,
-1.64185,0.85907,
-1.64795,0.875854,
-1.6571,0.888062,
-1.6571,0.874329,
-1.66168,0.857544,
-1.66473,0.860596,
-1.66779,0.875854,
-1.67236,0.880432,
-1.67542,0.875854,
-1.67847,0.866699,
-1.6861,0.85907,
-1.69373,0.878906,
-1.69983,0.88501,
-1.71051,0.874329,
-1.71661,0.865173,
-1.72577,0.85907,
-1.73492,0.874329,
-1.74713,0.883484,
-1.75476,0.875854,
-1.76392,0.862122,
-1.77002,0.857544,
-1.7807,0.87738,
-1.79138,0.888062,
-1.79596,0.872803,
-1.81122,0.865173,
-1.81885,0.846863,
-1.82495,0.87738,
-1.83868,0.880432,
-1.84326,0.871277,
-1.85394,0.862122,
-1.86615,0.856018,
-1.87836,0.87738,
-1.89056,0.886536,
-1.89972,0.871277,
-1.90735,0.865173,
-1.91345,0.862122,
-1.92413,0.878906,
-1.93176,0.889587,
-1.93634,0.872803,
-1.94855,0.85907,
-1.95465,0.857544,
-1.96533,0.872803,
-1.97296,0.886536,
-1.97906,0.872803,
-1.9928,0.862122,
-1.9989,0.862122,
-2.01111,0.87738,
-2.02332,0.888062,
-2.03552,0.871277,
-2.04315,0.860596,
-2.04926,0.860596,
-2.05688,0.874329,
-2.05994,0.886536,
-2.07214,0.871277,
-2.07214,0.85907,
-2.07367,0.860596,
-2.06757,0.875854,
-2.06299,0.888062,
-2.05231,0.874329,
-2.0401,0.860596,
-2.02179,0.860596,
-2.00043,0.872803,
-1.98212,0.888062,
-1.96075,0.869751,
-1.93329,0.857544,
-1.90582,0.860596,
-1.87531,0.871277,
-1.84937,0.907898,
-1.8219,0.87738,
-1.78375,0.854492,
-1.74866,0.862122,
-1.70746,0.87738,
-1.67542,0.880432,
-1.63574,0.87738,
-1.60217,0.846863,
-1.56555,0.857544,
-1.53503,0.871277,
-1.50757,0.880432,
-1.47552,0.871277,
-1.44501,0.856018,
-1.41449,0.862122,
-1.38855,0.875854,
-1.36871,0.883484,
-1.34125,0.871277,
-1.31531,0.85907,
-1.297,0.860596,
-1.28021,0.872803,
-1.26495,0.880432,
-1.25275,0.871277,
-1.24054,0.846863,
-1.23291,0.857544,
-1.21918,0.87738,
-1.21002,0.878906,
-1.20544,0.874329,
-1.20087,0.85907,
-1.19781,0.860596,
-1.19324,0.878906,
-1.19781,0.886536,
-1.19934,0.868225,
-1.19934,0.85907,
-1.19934,0.856018,
-1.20544,0.875854,
-1.2085,0.880432,
-1.21155,0.874329,
-1.21765,0.85907,
-1.22223,0.856018,
-1.23138,0.875854,
-1.24054,0.883484,
-1.24817,0.872803,
-1.26038,0.85907,
-1.27258,0.860596,
-1.28937,0.874329,
-1.30157,0.87738,
-1.31683,0.886536,
-1.33209,0.85907,
-1.3443,0.854492,
-1.36261,0.872803,
-1.38092,0.888062,
-1.39618,0.874329,
-1.41296,0.856018,
-1.42975,0.843811,
-1.44653,0.872803,
-1.46484,0.888062,
-1.47858,0.868225,
-1.49078,0.85907,
-1.50146,0.857544,
-1.51215,0.874329,
-1.52283,0.871277,
-1.53198,0.868225,
-1.54114,0.862122,
-1.54877,0.860596,
-1.55792,0.874329,
-1.56708,0.886536,
-1.57318,0.871277,
-1.57471,0.857544,
-1.57623,0.85144,
-1.57776,0.871277,
-1.58081,0.883484,
-1.58234,0.868225,
-1.58081,0.85907,
-1.57928,0.857544,
-1.57471,0.871277,
-1.57318,0.886536,
-1.56708,0.869751,
-1.56403,0.862122,
-1.55945,0.854492,
-1.55945,0.871277,
-1.5564,0.886536,
-1.55334,0.869751,
-1.55182,0.856018,
-1.54572,0.857544,
-1.54572,0.869751,
-1.54572,0.88501,
-1.54266,0.872803,
-1.53809,0.85907,
-1.53351,0.860596,
-1.53351,0.872803,
-1.53656,0.883484,
-1.53809,0.871277,
-1.54114,0.85907,
-1.54724,0.854492,
-1.55029,0.874329,
-1.5564,0.88501,
-1.5625,0.871277,
-1.57013,0.849915,
-1.57318,0.857544,
-1.57623,0.87738,
-1.58539,0.883484,
-1.59302,0.871277,
-1.6037,0.85907,
-1.6098,0.856018,
-1.61743,0.880432,
-1.63116,0.88501,
-1.63727,0.856018,
-1.64642,0.85144,
-1.65253,0.85907,
-1.66321,0.871277,
-1.67236,0.880432,
-1.68152,0.871277,
-1.69525,0.860596,
-1.70441,0.880432,
-1.71661,0.875854,
-1.73035,0.886536,
-1.73798,0.868225,
-1.75171,0.860596,
-1.76086,0.856018,
-1.7746,0.87738,
-1.78223,0.895691,
-1.79596,0.85144,
-1.80664,0.85907,
-1.81427,0.856018,
-1.82495,0.872803,
-1.83716,0.891113,
-1.84784,0.865173,
-1.86005,0.862122,
-1.87225,0.85907,
-1.87988,0.878906,
-1.88904,0.891113,
-1.90735,0.865173,
-1.92108,0.865173,
-1.92871,0.848389,
-1.94092,0.874329,
-1.95618,0.888062,
-1.96228,0.845337,
-1.97144,0.85907,
-1.98364,0.854492,
-1.98975,0.87738,
-2.00195,0.886536,
-2.01111,0.865173,
-2.01721,0.85907,
-2.02789,0.862122,
-2.03857,0.871277,
-2.04926,0.886536,
-2.05994,0.868225,
-2.06757,0.857544,
-2.07672,0.854492,
-2.08588,0.868225,
-2.09503,0.891113,
-2.10114,0.868225,
-2.10876,0.854492,
-2.11334,0.857544,
-2.11792,0.874329,
-2.12555,0.88501,
-2.13013,0.869751,
-2.1347,0.854492,
-2.14081,0.856018,
-2.14233,0.869751,
-2.14996,0.883484,
-2.15759,0.874329,
-2.1637,0.849915,
-2.17133,0.860596,
-2.18048,0.872803,
-2.18353,0.880432,
-2.18658,0.869751,
-2.19574,0.857544,
-2.20032,0.849915,
-2.2049,0.872803,
-2.21405,0.880432,
-2.21558,0.868225,
-2.22015,0.854492,
-2.22626,0.860596,
-2.22778,0.874329,
-2.23694,0.878906,
-2.24457,0.872803,
-2.25677,0.857544,
-2.25677,0.846863,
-2.2644,0.874329,
-2.27356,0.878906,
-2.27814,0.871277,
-2.28424,0.854492,
-2.29187,0.854492,
-2.2995,0.871277,
-2.30713,0.874329,
-2.31476,0.866699,
-2.32086,0.857544,
-2.33307,0.85144,
-2.34528,0.875854,
-2.35748,0.872803,
-2.36816,0.869751,
-2.38037,0.85907,
-2.38953,0.857544,
-2.39563,0.872803,
-2.40784,0.883484,
-2.41699,0.863647,
-2.4292,0.85907,
-2.43225,0.854492,
-2.44598,0.871277,
-2.45209,0.878906,
-2.46582,0.863647,
-2.47955,0.857544,
-2.49023,0.856018,
-2.50397,0.872803,
-2.51923,0.880432,
-2.53601,0.866699,
-2.54517,0.85907,
-2.56195,0.854492,
-2.57263,0.872803,
-2.58789,0.888062,
-2.60315,0.862122,
-2.6123,0.854492,
-2.62451,0.857544,
-2.63519,0.871277,
-2.65198,0.883484,
-2.66571,0.866699,
-2.68097,0.843811,
-2.69012,0.856018,
-2.69928,0.872803,
-2.71454,0.878906,
-2.72675,0.866699,
-2.73285,0.854492,
-2.742,0.85144,
-2.74811,0.857544,
-2.75269,0.878906,
-2.75574,0.866699,
-2.75421,0.85144,
-2.75726,0.854492,
-2.74811,0.875854,
-2.74048,0.883484,
-2.72675,0.872803,
-2.70844,0.856018,
-2.68707,0.85144,
-2.66266,0.872803,
-2.63214,0.878906,
-2.60315,0.868225,
-2.56958,0.85144,
-2.53143,0.856018,
-2.49329,0.871277,
-2.45361,0.875854,
-2.41852,0.869751,
-2.38495,0.860596,
-2.34528,0.856018,
-2.30865,0.874329,
-2.27509,0.88501,
-2.23999,0.85907,
-2.2049,0.856018,
-2.16827,0.843811,
-2.13623,0.868225,
-2.10571,0.875854,
-2.07672,0.868225,
-2.04315,0.849915,
-2.01569,0.849915,
-1.99127,0.869751,
-1.96533,0.880432,
-1.94244,0.862122,
-1.91803,0.886536,
-1.89819,0.842285,
-1.87836,0.872803,
-1.86615,0.878906,
-1.85089,0.865173,
-1.84021,0.856018,
-1.83258,0.856018,
-1.82037,0.865173,
-1.81732,0.875854,
-1.80817,0.860596,
-1.80206,0.854492,
-1.80206,0.856018,
-1.79749,0.866699,
-1.78528,0.878906,
-1.78528,0.869751,
-1.7807,0.856018,
-1.77917,0.856018,
-1.77612,0.869751,
-1.77917,0.878906,
-1.77765,0.866699,
-1.77002,0.854492,
-1.77002,0.856018,
-1.76849,0.865173,
-1.76849,0.875854,
-1.76697,0.869751,
-1.76849,0.856018,
-1.76849,0.854492,
-1.77307,0.868225,
-1.77612,0.87738,
-1.78223,0.866699,
-1.78375,0.856018,
-1.7868,0.85144,
-1.79443,0.866699,
-1.79596,0.874329,
-1.79749,0.866699,
-1.80511,0.849915,
-1.80511,0.854492,
-1.80511,0.868225,
-1.81122,0.875854,
-1.81427,0.865173,
-1.81732,0.854492,
-1.82037,0.846863,
-1.82037,0.87738,
-1.82495,0.869751,
-1.82495,0.866699,
-1.828,0.854492,
-1.828,0.849915,
-1.83105,0.871277,
-1.83258,0.871277,
-1.83716,0.868225,
-1.83868,0.857544,
-1.84021,0.849915,
-1.84326,0.869751,
-1.84631,0.868225,
-1.84937,0.868225,
-1.85394,0.856018,
-1.84937,0.849915,
-1.85394,0.869751,
-1.86005,0.872803,
-1.86005,0.862122,
-1.86157,0.856018,
-1.85699,0.848389,
-1.86005,0.866699,
-1.86768,0.872803,
-1.86462,0.868225,
-1.86462,0.85907,
-1.8631,0.854492,
-1.86615,0.869751,
-1.86615,0.883484,
-1.86768,0.866699,
-1.86615,0.856018,
-1.86768,0.849915,
-1.8692,0.866699,
-1.87073,0.874329,
-1.8692,0.862122,
-1.87225,0.856018,
-1.87378,0.854492,
-1.8692,0.865173,
-1.87683,0.87738,
-1.87836,0.869751,
-1.88293,0.854492,
-1.88599,0.856018,
-1.89667,0.869751,
-1.9043,0.87738,
-1.9104,0.865173,
-1.91498,0.849915,
-1.92261,0.85144,
-1.92566,0.863647,
-1.93329,0.875854,
-1.93787,0.871277,
-1.94397,0.856018,
-1.95313,0.854492,
-1.95923,0.868225,
-1.97144,0.871277,
-1.98212,0.868225,
-1.98975,0.85144,
-1.99585,0.856018,
-2.005,0.863647,
-2.01569,0.874329,
-2.02637,0.866699,
-2.0401,0.85144,
-2.04926,0.849915,
-2.05688,0.868225,
-2.06757,0.872803,
-2.07367,0.868225,
-2.08435,0.854492,
-2.10266,0.85144,
-2.11029,0.871277,
-2.1225,0.874329,
-2.13013,0.868225,
-2.13928,0.846863,
-2.14539,0.856018,
-2.15912,0.868225,
-2.16675,0.869751,
-2.17896,0.865173,
-2.18811,0.85144,
-2.19269,0.85144,
-2.20032,0.866699,
-2.2049,0.875854,
-2.21558,0.863647,
-2.22168,0.854492,
-2.22473,0.85144,
-2.23236,0.865173,
-2.24152,0.872803,
-2.24457,0.862122,
-2.25372,0.85144,
-2.2583,0.845337,
-2.26288,0.866699,
-2.27051,0.87738,
-2.27814,0.863647,
-2.28577,0.857544,
-2.29034,0.849915,
-2.29645,0.874329,
-2.29797,0.878906,
-2.30255,0.862122,
-2.30713,0.856018,
-2.31323,0.846863,
-2.31781,0.862122,
-2.31934,0.874329,
-2.32239,0.85907,
-2.33459,0.849915,
-2.33459,0.854492,
-2.33459,0.865173,
-2.34375,0.878906,
-2.35443,0.866699,
-2.35748,0.85144,
-2.36664,0.848389,
-2.36969,0.863647,
-2.37732,0.874329,
-2.38342,0.862122,
-2.38495,0.848389,
-2.38953,0.849915,
-2.39105,0.860596,
-2.39868,0.87738,
-2.40936,0.865173,
-2.42157,0.848389,
-2.43073,0.854492,
-2.44293,0.866699,
-2.45361,0.874329,
-2.46277,0.866699,
-2.46735,0.849915,
-2.47345,0.854492,
-2.48413,0.863647,
-2.49481,0.872803,
-2.50397,0.866699,
-2.51465,0.846863,
-2.52533,0.854492,
-2.53601,0.865173,
-2.54364,0.872803,
-2.5528,0.871277,
-2.56042,0.854492,
-2.56805,0.849915,
-2.57568,0.871277,
-2.58942,0.868225,
-2.59399,0.860596,
-2.60315,0.860596,
-2.60925,0.865173,
-2.61536,0.866699,
-2.62451,0.868225,
-2.63062,0.866699,
-2.63367,0.854492,
-2.63824,0.85144,
-2.6474,0.865173,
-2.64893,0.87738,
-2.6535,0.868225,
-2.65503,0.85144,
-2.66571,0.854492,
-2.67334,0.868225,
-2.67944,0.871277,
-2.67944,0.863647,
-2.68707,0.85144,
-2.6886,0.846863,
-2.69623,0.866699,
-2.70538,0.872803,
-2.70996,0.865173,
-2.71912,0.85144,
-2.72522,0.848389,
-2.7359,0.862122,
-2.74658,0.874329,
-2.75726,0.862122,
-2.76794,0.85144,
-2.77863,0.846863,
-2.7832,0.868225,
-2.79541,0.872803,
-2.79999,0.866699,
-2.80762,0.857544,
-2.82135,0.854492,
-2.82593,0.868225,
-2.83661,0.875854,
-2.85187,0.863647,
-2.8656,0.85144,
-2.87781,0.837708,
-2.88544,0.862122,
-2.89612,0.875854,
-2.9129,0.860596,
-2.92053,0.837708,
-2.93121,0.849915,
-2.94189,0.866699,
-2.94952,0.87738,
-2.95715,0.862122,
-2.97089,0.849915,
-2.97852,0.85144,
-2.98462,0.860596,
-2.99225,0.900269,
-2.99988,0.860596,
-3.00903,0.845337,
-3.01514,0.854492,
-3.02277,0.863647,
-3.02582,0.874329,
-3.03192,0.868225,
-3.03497,0.85144,
-3.03802,0.871277,
-3.03345,0.865173,
-3.03345,0.874329,
-3.0304,0.866699,
-3.02429,0.848389,
-3.00903,0.85144,
-2.99683,0.860596,
-2.97699,0.868225,
-2.95868,0.865173,
-2.93884,0.848389,
-2.91443,0.854492,
-2.88696,0.863647,
-2.85645,0.872803,
-2.82593,0.85907,
-2.79236,0.85144,
-2.76031,0.85144,
-2.72522,0.863647,
-2.6886,0.874329,
-2.65656,0.862122,
-2.62299,0.843811,
-2.58942,0.849915,
-2.55737,0.865173,
-2.52838,0.874329,
-2.49634,0.863647,
-2.4704,0.837708,
-2.44293,0.842285,
-2.42004,0.868225,
-2.39716,0.872803,
-2.37579,0.860596,
-2.34985,0.854492,
-2.33002,0.839233,
-2.31323,0.865173,
-2.29797,0.871277,
-2.28424,0.863647,
-2.27661,0.846863,
-2.26746,0.845337,
-2.25525,0.863647,
-2.24609,0.87738,
-2.23846,0.863647,
-2.22931,0.854492,
-2.22168,0.85144,
-2.21558,0.869751,
-2.21405,0.875854,
-2.211,0.860596,
-2.20947,0.85144,
-2.20795,0.848389,
-2.20184,0.860596,
-2.19727,0.875854,
-2.20032,0.856018,
-2.20032,0.848389,
-2.19879,0.854492,
-2.20032,0.863647,
-2.19574,0.878906,
-2.19727,0.862122,
-2.19727,0.848389,
-2.19879,0.849915,
-2.19116,0.857544,
-2.19421,0.874329,
-2.19269,0.860596,
-2.19269,0.848389,
-2.18658,0.848389,
-2.18658,0.85907,
-2.18506,0.883484,
-2.18353,0.860596,
-2.18201,0.848389,
-2.18353,0.85144,
-2.18353,0.863647,
-2.18811,0.87738,
-2.18964,0.863647,
-2.19269,0.846863,
-2.19574,0.846863,
-2.20032,0.860596,
-2.211,0.874329,
-2.21558,0.860596,
-2.22168,0.843811,
-2.22321,0.848389,
-2.22168,0.862122,
-2.22626,0.874329,
-2.22778,0.863647,
-2.23236,0.848389,
-2.22778,0.848389,
-2.22931,0.865173,
-2.22931,0.878906,
-2.22931,0.860596,
-2.22931,0.848389,
-2.22321,0.843811,
-2.22321,0.862122,
-2.22321,0.874329,
-2.22321,0.860596,
-2.22321,0.842285,
-2.22473,0.846863,
-2.21863,0.862122,
-2.21252,0.87738,
-2.21405,0.85907,
-2.21252,0.840759,
-2.21558,0.869751,
-2.211,0.860596,
-2.20795,0.880432,
-2.2049,0.862122,
-2.2049,0.85144,
-2.19727,0.845337,
-2.20184,0.860596,
-2.20032,0.87738,
-2.20032,0.856018,
-2.20184,0.849915,
-2.20184,0.849915,
-2.20337,0.85907,
-2.2049,0.87738,
-2.20795,0.860596,
-2.20947,0.849915,
-2.2171,0.848389,
-2.21405,0.860596,
-2.22015,0.875854,
-2.22473,0.85907,
-2.23083,0.843811,
-2.23236,0.846863,
-2.23846,0.857544,
-2.24304,0.878906,
-2.2522,0.862122,
-2.2583,0.845337,
-2.26288,0.848389,
-2.26746,0.862122,
-2.27203,0.875854,
-2.27966,0.860596,
-2.28577,0.846863,
-2.29187,0.848389,
-2.30255,0.862122,
-2.31171,0.872803,
-2.31781,0.862122,
-2.33002,0.843811,
-2.33612,0.848389,
-2.34528,0.860596,
-2.36053,0.872803,
-2.37122,0.862122,
-2.37885,0.848389,
-2.38953,0.848389,
-2.3941,0.863647,
-2.40479,0.878906,
-2.41394,0.856018,
-2.42157,0.848389,
-2.43073,0.843811,
-2.4353,0.862122,
-2.44293,0.872803,
-2.45209,0.862122,
-2.45819,0.846863,
-2.46582,0.845337,
-2.47345,0.862122,
-2.47803,0.872803,
-2.48871,0.856018,
-2.49176,0.85144,
-2.49939,0.849915,
-2.50092,0.860596,
-2.50549,0.87738,
-2.51617,0.862122,
-2.5238,0.845337,
-2.53296,0.849915,
-2.53754,0.85907,
-2.54211,0.875854,
-2.54974,0.854492,
-2.5589,0.846863,
-2.56348,0.849915,
-2.56653,0.857544,
-2.57111,0.865173,
-2.57568,0.848389,
-2.58331,0.846863,
-2.58331,0.846863,
-2.58789,0.85907,
-2.58942,0.875854,
-2.59705,0.862122,
-2.60162,0.845337,
-2.60773,0.846863,
-2.61688,0.848389,
-2.62604,0.87738,
-2.63367,0.854492,
-2.63824,0.845337,
-2.65045,0.849915,
-2.65503,0.85907,
-2.66571,0.872803,
-2.67334,0.849915,
-2.67944,0.846863,
-2.68555,0.849915,
-2.68707,0.860596,
-2.69012,0.875854,
-2.69623,0.85907,
-2.70538,0.845337,
-2.70996,0.846863,
-2.71759,0.848389,
-2.72675,0.872803,
-2.73743,0.856018,
-2.74353,0.846863,
-2.74506,0.845337,
-2.75269,0.856018,
-2.75574,0.872803,
-2.76642,0.862122,
-2.77252,0.849915,
-2.77252,0.843811,
-2.78015,0.860596,
-2.78625,0.872803,
-2.79388,0.85907,
-2.79999,0.846863,
-2.81067,0.842285,
-2.81372,0.85907,
-2.82135,0.875854,
-2.8244,0.856018,
-2.82898,0.848389,
-2.83508,0.849915,
-2.83813,0.860596,
-2.84271,0.878906,
-2.85034,0.863647,
-2.85339,0.848389,
-2.85645,0.845337,
-2.8595,0.860596,
-2.8717,0.874329,
-2.87323,0.854492,
-2.88544,0.845337,
-2.89307,0.845337,
-2.89917,0.848389,
-2.9129,0.863647,
-2.92206,0.862122,
-2.93121,0.846863,
-2.94037,0.848389,
-2.948,0.862122,
-2.95563,0.875854,
-2.96478,0.85907,
-2.97241,0.843811,
-2.98309,0.846863,
-2.99377,0.85907,
-3.00293,0.875854,
-3.00903,0.856018,
-3.01819,0.840759,
-3.02887,0.846863,
-3.03955,0.860596,
-3.04718,0.869751,
-3.05786,0.860596,
-3.06244,0.848389,
-3.07007,0.85144,
-3.07617,0.863647,
-3.08838,0.872803,
-3.09143,0.856018,
-3.10211,0.843811,
-3.11279,0.846863,
-3.12347,0.860596,
-3.13416,0.871277,
-3.14331,0.862122,
-3.15399,0.848389,
-3.1601,0.843811,
-3.1723,0.863647,
-3.18298,0.875854,
-3.19519,0.85907,
-3.19824,0.846863,
-3.20435,0.845337,
-3.2135,0.862122,
-3.22571,0.872803,
-3.23334,0.856018,
-3.24402,0.845337,
-3.2486,0.843811,
-3.25775,0.860596,
-3.26691,0.869751,
-3.27606,0.860596,
-3.28674,0.85144,
-3.29437,0.848389,
-3.30048,0.85907,
-3.30811,0.871277,
-3.31879,0.857544,
-3.32642,0.848389,
-3.32947,0.846863,
-3.33252,0.856018,
-3.32794,0.871277,
-3.32336,0.839233,
-3.31573,0.846863,
-3.2959,0.846863,
-3.28369,0.85907,
-3.26691,0.875854,
-3.24402,0.863647,
-3.22418,0.845337,
-3.19977,0.85144,
-3.17078,0.849915,
-3.14331,0.874329,
-3.11737,0.856018,
-3.08533,0.845337,
-3.05939,0.846863,
-3.02887,0.846863,
-2.99835,0.874329,
-2.96631,0.848389,
-2.93579,0.840759,
-2.91138,0.842285,
-2.88391,0.85907,
-2.8595,0.875854,
-2.83508,0.862122,
-2.80914,0.846863,
-2.78168,0.846863,
-2.76489,0.857544,
-2.73895,0.874329,
-2.71759,0.856018,
-2.70386,0.840759,
-2.68707,0.846863,
-2.66724,0.862122,
-2.64893,0.871277,
-2.63672,0.85907,
-2.62146,0.845337,
-2.60468,0.845337,
-2.59552,0.860596,
-2.58636,0.875854,
-2.57111,0.860596,
-2.565,0.846863,
-2.55737,0.839233,
-2.54517,0.849915,
-2.53601,0.871277,
-2.52838,0.857544,
-2.52075,0.846863,
-2.5116,0.845337,
-2.50702,0.856018,
-2.49939,0.869751,
-2.49634,0.857544,
-2.49329,0.843811,
-2.49023,0.848389,
-2.48871,0.85907,
-2.48566,0.874329,
-2.4826,0.856018,
-2.47803,0.843811,
-2.4765,0.843811,
-2.4765,0.857544,
-2.47498,0.872803,
-2.47803,0.856018,
-2.48108,0.846863,
-2.47803,0.846863,
-2.47803,0.857544,
-2.48108,0.872803,
-2.48413,0.85907,
-2.48108,0.843811,
-2.48718,0.848389,
-2.49176,0.854492,
-2.49023,0.872803,
-2.49329,0.842285,
-2.49481,0.843811,
-2.49634,0.846863,
-2.49939,0.85144,
-2.50397,0.872803,
-2.50854,0.860596,
-2.51007,0.846863,
-2.51465,0.845337,
-2.52075,0.857544,
-2.52533,0.872803,
-2.52533,0.857544,
-2.52991,0.845337,
-2.52991,0.849915,
-2.52838,0.857544,
-2.52991,0.872803,
-2.52991,0.85907,
-2.53143,0.840759,
-2.52991,0.842285,
-2.52838,0.856018,
-2.52838,0.868225,
-2.5238,0.85907,
-2.5238,0.845337,
-2.52228,0.837708,
-2.51617,0.862122,
-2.51312,0.872803,
-2.5116,0.857544,
-2.50092,0.842285,
-2.49329,0.840759,
-2.48718,0.857544,
-2.48413,0.868225,
-2.47498,0.856018,
-2.4704,0.845337,
-2.46735,0.840759,
-2.46582,0.860596,
-2.46429,0.871277,
-2.46277,0.854492,
-2.45972,0.845337,
-2.45972,0.846863,
-2.46429,0.857544,
-2.4704,0.869751,
-2.46582,0.856018,
-2.47192,0.845337,
-2.46582,0.840759,
-2.46429,0.856018,
-2.47345,0.871277,
-2.4704,0.856018,
-2.47192,0.845337,
-2.47192,0.843811,
-2.47498,0.854492,
-2.47803,0.874329,
-2.47803,0.85907,
-2.48566,0.845337,
-2.48718,0.843811,
-2.49329,0.856018,
-2.50244,0.871277,
-2.50397,0.856018,
-2.51007,0.842285,
-2.51617,0.843811,
-2.52228,0.85144,
-2.52533,0.872803,
-2.53296,0.856018,
-2.54059,0.845337,
-2.54822,0.840759,
-2.55127,0.85907,
-2.55737,0.868225,
-2.56042,0.857544,
-2.56348,0.840759,
-2.56958,0.845337,
-2.57111,0.854492,
-2.57568,0.869751,
-2.58026,0.856018,
-2.58331,0.840759,
-2.58789,0.842285,
-2.6001,0.85907,
-2.60925,0.868225,
-2.6123,0.857544,
-2.62299,0.846863,
-2.62909,0.839233,
-2.63672,0.856018,
-2.64587,0.871277,
-2.65198,0.857544,
-2.65961,0.842285,
-2.66724,0.842285,
-2.67029,0.856018,
-2.68555,0.869751,
-2.69318,0.854492,
-2.70233,0.843811,
-2.71149,0.834656,
-2.72064,0.85907,
-2.72827,0.865173,
-2.7359,0.85907,
-2.74506,0.849915,
-2.75116,0.845337,
-2.75574,0.860596,
-2.76489,0.857544,
-2.771,0.85144,
-2.77557,0.843811,
-2.78015,0.840759,
-2.78473,0.848389,
-2.7832,0.871277,
-2.79388,0.856018,
-2.79388,0.845337,
-2.79999,0.846863,
-2.80762,0.854492,
-2.81372,0.871277,
-2.81219,0.857544,
-2.82135,0.843811,
-2.82898,0.842285,
-2.83661,0.856018,
-2.84729,0.871277,
-2.85645,0.85144,
-2.86407,0.843811,
-2.87323,0.843811,
-2.88696,0.85144,
-2.90527,0.866699,
-2.91138,0.854492,
-2.92511,0.839233,
-2.94342,0.845337,
-2.95715,0.857544,
-2.96936,0.869751,
-2.98157,0.85907,
-2.99988,0.842285,
-3.00751,0.843811,
-3.01819,0.854492,
-3.02887,0.871277,
-3.0426,0.860596,
-3.05481,0.839233,
-3.06702,0.839233,
-3.07922,0.856018,
-3.0899,0.863647,
-3.09448,0.849915,
-3.10059,0.845337,
-3.10974,0.845337,
-3.1189,0.857544,
-3.125,0.869751,
-3.13416,0.854492,
-3.14178,0.845337,
-3.14941,0.840759,
-3.15399,0.854492,
-3.15857,0.866699,
-3.16772,0.85144,
-3.1723,0.845337,
-3.17993,0.839233,
-3.18604,0.854492,
-3.19519,0.868225,
-3.20129,0.85144,
-3.20892,0.845337,
-3.21808,0.845337,
-3.22723,0.854492,
-3.23334,0.871277,
-3.24402,0.857544,
-3.2486,0.845337,
-3.25623,0.843811,
-3.26385,0.856018,
-3.26843,0.868225,
-3.27606,0.85144,
-3.28522,0.843811,
-3.29132,0.843811,
-3.29742,0.849915,
-3.302,0.869751,
-3.31268,0.857544,
-3.31421,0.842285,
-3.32184,0.842285,
-3.32642,0.85144,
-3.33252,0.868225,
-3.33557,0.85144,
-3.34167,0.840759,
-3.34473,0.842285,
-3.34778,0.845337,
-3.35083,0.868225,
-3.35541,0.845337,
-3.35846,0.863647,
-3.36609,0.837708,
-3.37677,0.85907,
-3.38593,0.869751,
-3.3905,0.860596,
-3.40118,0.837708,
-3.41034,0.843811,
-3.41492,0.85144,
-3.41797,0.875854,
-3.42865,0.85144,
-3.4317,0.840759,
-3.43781,0.840759,
-3.44543,0.85907,
-3.44849,0.863647,
-3.45154,0.85907,
-3.45764,0.840759,
-3.46527,0.842285,
-3.4668,0.856018,
-3.46832,0.869751,
-3.46985,0.85144,
-3.47137,0.846863,
-3.47137,0.845337,
-3.47137,0.85907,
-3.46375,0.863647,
-3.45917,0.837708,
-3.44696,0.843811,
-3.43628,0.840759,
-3.41949,0.85144,
-3.40424,0.871277,
-3.3844,0.849915,
-3.36456,0.848389,
-3.34015,0.854492,
-3.31421,0.857544,
-3.28369,0.869751,
-3.25317,0.854492,
-3.2196,0.839233,
-3.18756,0.843811,
-3.15399,0.854492,
-3.12347,0.869751,
-3.09296,0.837708,
-3.05939,0.842285,
-3.02734,0.845337,
-2.99835,0.85144,
-2.96936,0.869751,
-2.94189,0.857544,
-2.90985,0.840759,
-2.88696,0.845337,
-2.8595,0.85144,
-2.83051,0.869751,
-2.81067,0.85907,
-2.78625,0.845337,
-2.76947,0.846863,
-2.75421,0.85144,
-2.73285,0.874329,
-2.71606,0.843811,
-2.69623,0.837708,
-2.68555,0.846863,
-2.66571,0.854492,
-2.65503,0.868225,
-2.63672,0.857544,
-2.62756,0.845337,
-2.61688,0.845337,
-2.6001,0.856018,
-2.58942,0.865173,
-2.58026,0.856018,
-2.56958,0.842285,
-2.56805,0.842285,
-2.56195,0.839233,
-2.5528,0.854492,
-2.54669,0.860596,
-2.53906,0.840759,
-2.53296,0.840759,
-2.52838,0.857544,
-2.52228,0.869751,
-2.51617,0.871277,
-2.51465,0.842285,
-2.51007,0.842285,
-2.50702,0.856018,
-2.50397,0.865173,
-2.49939,0.849915,
-2.49481,0.846863,
-2.49329,0.837708,
-2.49329,0.854492,
-2.49481,0.872803,
-2.49176,0.854492,
-2.49023,0.849915,
-2.48871,0.843811,
-2.48413,0.85144,
-2.48566,0.872803,
-2.48718,0.856018,
-2.48566,0.845337,
-2.48871,0.842285,
-2.48413,0.857544,
-2.48566,0.866699,
-2.48566,0.849915,
-2.48718,0.839233,
-2.48566,0.843811,
-2.48413,0.849915,
-2.48718,0.869751,
-2.48718,0.854492,
-2.48871,0.837708,
-2.48718,0.846863,
-2.48566,0.854492,
-2.48413,0.869751,
-2.48108,0.857544,
-2.4765,0.843811,
-2.47345,0.842285,
-2.46735,0.85144,
-2.45972,0.869751,
-2.45819,0.854492,
-2.45514,0.837708,
-2.45209,0.843811,
-2.45361,0.857544,
-2.44751,0.866699,
-2.44904,0.854492,
-2.44598,0.843811,
-2.44293,0.843811,
-2.43683,0.857544,
-2.44141,0.869751,
-2.4292,0.854492,
-2.42767,0.840759,
-2.42615,0.842285,
-2.42615,0.854492,
-2.42615,0.866699,
-2.42615,0.854492,
-2.42004,0.842285,
-2.42004,0.840759,
-2.41852,0.857544,
-2.41394,0.875854,
-2.41699,0.856018,
-2.41699,0.845337,
-2.42004,0.842285,
-2.41852,0.856018,
-2.42004,0.875854,
-2.42004,0.843811,
-2.4231,0.842285,
-2.4231,0.837708,
-2.42462,0.839233,
-2.42767,0.868225,
-2.4292,0.840759,
-2.4353,0.849915,
-2.44141,0.842285,
-2.44293,0.85144,
-2.44751,0.866699,
-2.45819,0.874329,
-2.46277,0.843811,
-2.46429,0.843811,
-2.47192,0.846863,
-2.47498,0.872803,
-2.4826,0.848389,
-2.48413,0.83313,
-2.49023,0.845337,
-2.49176,0.846863,
-2.50244,0.869751,
-2.50854,0.856018,
-2.5177,0.840759,
-2.52838,0.842285,
-2.53754,0.856018,
-2.54669,0.868225,
-2.5589,0.87738,
-2.565,0.831604,
-2.57416,0.845337,
-2.58636,0.85144,
-2.59552,0.871277,
-2.60162,0.854492,
-2.60773,0.837708,
-2.61688,0.837708,
-2.62146,0.856018,
-2.62756,0.868225,
-2.63367,0.854492,
-2.63977,0.845337,
-2.64893,0.843811,
-2.6535,0.857544,
-2.65961,0.865173,
-2.66724,0.856018,
-2.67639,0.842285,
-2.67944,0.840759,
-2.68707,0.849915,
-2.6947,0.868225,
-2.70386,0.856018,
-2.70844,0.842285,
-2.71606,0.842285,
-2.71759,0.856018,
-2.72827,0.871277,
-2.73438,0.837708,
-2.742,0.848389,
-2.75116,0.842285,
-2.75726,0.857544,
-2.76337,0.865173,
-2.771,0.85144,
-2.77557,0.842285,
-2.77863,0.839233,
-2.78473,0.85144,
-2.79236,0.869751,
-2.79846,0.849915,
-2.80304,0.845337,
-2.80914,0.840759,
-2.80914,0.856018,
-2.81372,0.874329,
-2.8244,0.854492,
-2.83051,0.845337,
-2.83203,0.840759,
-2.83661,0.856018,
-2.83661,0.868225,
-2.84119,0.849915,
-2.84424,0.842285,
-2.85339,0.842285,
-2.85797,0.854492,
-2.86255,0.874329,
-2.86713,0.856018,
-2.87323,0.840759,
-2.88239,0.848389,
-2.88086,0.846863,
-2.88544,0.872803,
-2.89154,0.845337,
-2.9007,0.866699,
-2.90833,0.842285,
-2.91443,0.849915,
-2.92053,0.866699,
-2.92816,0.854492,
-2.93732,0.830078,
-2.94342,0.843811,
-2.95258,0.85907,
-2.96021,0.886536,
-2.96936,0.860596,
-2.97394,0.840759,
-2.98462,0.840759,
-2.99225,0.854492,
-3.0014,0.868225,
-3.01514,0.854492,
-3.02429,0.856018,
-3.03192,0.839233,
-3.04413,0.854492,
-3.05634,0.866699,
-3.06396,0.856018,
-3.07465,0.843811,
-3.08533,0.842285,
-3.0899,0.854492,
-3.10059,0.871277,
-3.10974,0.856018,
-3.12042,0.842285,
-3.12805,0.840759,
-3.14026,0.843811,
-3.14789,0.869751,
-3.15704,0.85144,
-3.1662,0.842285,
-3.17078,0.837708,
-3.17993,0.849915,
-3.18604,0.871277,
-3.19824,0.840759,
-3.20435,0.845337,
-3.2135,0.843811,
-3.21808,0.854492,
-3.22876,0.863647,
-3.23334,0.856018,
-3.24097,0.842285,
-3.24554,0.842285,
-3.25012,0.85144,
-3.2608,0.868225,
-3.26843,0.849915,
-3.27606,0.840759,
-3.29132,0.839233,
-3.30353,0.856018,
-3.31421,0.868225,
-3.32184,0.856018,
-3.33252,0.839233,
-3.34015,0.843811,
-3.35083,0.85144,
-3.36151,0.868225,
-3.37677,0.85144,
-3.37982,0.836182,
-3.38745,0.843811,
-3.39355,0.848389,
-3.40729,0.868225,
-3.41797,0.856018,
-3.4317,0.840759,
-3.44086,0.843811,
-3.44696,0.856018,
-3.46069,0.866699,
-3.47443,0.856018,
-3.47748,0.843811,
-3.48816,0.842285,
-3.49731,0.85144,
-3.50037,0.865173,
-3.50647,0.856018,
-3.51868,0.839233,
-3.52173,0.840759,
-3.53088,0.849915,
-3.53088,0.866699,
-3.53394,0.854492,
-3.53546,0.840759,
-3.53088,0.840759,
-3.52631,0.857544,
-3.5202,0.869751,
-3.51105,0.85144,
-3.49884,0.842285,
-3.48969,0.843811,
-3.4729,0.854492,
-3.45764,0.866699,
-3.44086,0.85144,
-3.41797,0.839233,
-3.39661,0.837708,
-3.37219,0.85144,
-3.3493,0.869751,
-3.32794,0.849915,
-3.31268,0.842285,
-3.28979,0.843811,
-3.26996,0.85144,
-3.25012,0.866699,
-3.23486,0.854492,
-3.21503,0.840759,
-3.19672,0.842285,
-3.17841,0.854492,
-3.16162,0.866699,
-3.14484,0.854492,
-3.12958,0.840759,
-3.11432,0.842285,
-3.09753,0.849915,
-3.08838,0.872803,
-3.07465,0.854492,
-3.06244,0.840759,
-3.05481,0.843811,
-3.04413,0.849915,
-3.03345,0.85907,
-3.02582,0.846863,
-3.01666,0.839233,
-3.01056,0.840759,
-3.0014,0.849915,
-2.9953,0.866699,
-2.98615,0.85144,
-2.97852,0.837708,
-2.97394,0.839233,
-2.96783,0.849915,
-2.96021,0.865173,
-2.95563,0.856018,
-2.948,0.840759,
-2.94495,0.842285,
-2.93884,0.85144,
-2.93579,0.869751,
-2.93732,0.85907,
-2.93579,0.840759,
-2.92664,0.840759,
-2.92511,0.854492,
-2.92053,0.868225,
-2.92206,0.854492,
-2.91901,0.840759,
-2.91748,0.842285,
-2.91595,0.85144,
-2.9129,0.869751,
-2.91138,0.85144,
-2.9068,0.839233,
-2.90527,0.840759,
-2.90833,0.85144,
-2.90985,0.863647,
-2.91138,0.85144,
-2.91595,0.842285,
-2.91595,0.839233,
-2.91901,0.854492,
-2.92206,0.872803,
-2.92358,0.848389,
-2.92816,0.843811,
-2.92816,0.842285,
-2.92664,0.854492,
-2.92664,0.868225,
-2.92816,0.854492,
-2.92358,0.836182,
-2.92816,0.836182,
-2.92511,0.849915,
-2.92816,0.869751,
-2.92664,0.848389,
-2.92664,0.843811,
-2.92358,0.842285,
-2.92206,0.848389,
-2.92206,0.872803,
-2.91748,0.849915,
-2.91595,0.843811,
-2.90833,0.843811,
-2.89917,0.85144,
-2.89764,0.868225,
-2.89764,0.836182,
-2.89307,0.840759,
-2.88544,0.843811,
-2.88086,0.845337,
-2.87628,0.869751,
-2.8717,0.856018,
-2.86865,0.828552,
-2.8656,0.845337,
-2.86102,0.839233,
-2.85645,0.868225,
-2.8595,0.85907,
-2.85492,0.837708,
-2.84729,0.839233,
-2.84424,0.848389,
-2.83813,0.871277,
-2.83813,0.874329,
-2.83508,0.83313,
-2.83356,0.840759,
-2.83661,0.854492,
-2.83661,0.866699,
-2.83356,0.862122,
-2.83508,0.843811,
-2.83661,0.85907,
-2.83508,0.85144,
-2.83966,0.868225,
-2.84424,0.85144,
-2.84882,0.837708,
-2.85339,0.836182,
-2.85645,0.849915,
-2.86255,0.865173,
-2.8656,0.854492,
-2.87628,0.840759,
-2.87628,0.837708,
-2.88391,0.854492,
-2.88696,0.866699,
-2.89154,0.854492,
-2.89459,0.837708,
-2.89154,0.839233,
-2.89307,0.871277,
-2.89612,0.865173,
-2.90222,0.85144,
-2.9007,0.839233,
-2.9007,0.837708,
-2.90527,0.848389,
-2.90985,0.863647,
-2.91595,0.85144,
-2.91901,0.848389,
-2.92511,0.842285,
-2.92511,0.85144,
-2.93121,0.871277,
-2.93427,0.85144,
-2.93732,0.840759,
-2.94037,0.839233,
-2.948,0.872803,
-2.9541,0.863647,
-2.96326,0.849915,
-2.96783,0.839233,
-2.97241,0.837708,
-2.98004,0.848389,
-2.98309,0.871277,
-2.98615,0.856018,
-2.99225,0.840759,
-2.9953,0.842285,
-2.9953,0.854492,
-3.00598,0.869751,
-3.01208,0.85144,
-3.02124,0.842285,
-3.02124,0.837708,
-3.0304,0.845337,
-3.0365,0.866699,
-3.04565,0.85144,
-3.05481,0.840759,
-3.06091,0.843811,
-3.06854,0.854492,
-3.07617,0.869751,
-3.08685,0.85907,
-3.09143,0.839233,
-3.09753,0.842285,
-3.10211,0.846863,
-3.10822,0.868225,
-3.11584,0.849915,
-3.11737,0.837708,
-3.125,0.839233,
-3.12958,0.85144,
-3.13416,0.863647,
-3.14026,0.845337,
-3.14636,0.842285,
-3.15094,0.834656,
-3.1601,0.857544,
-3.16772,0.868225,
-3.1723,0.85907,
-3.17993,0.839233,
-3.18909,0.823975,
-3.19977,0.85144,
-3.2074,0.862122,
-3.21045,0.85144,
-3.21808,0.839233,
-3.22418,0.834656,
-3.23486,0.854492,
-3.24097,0.871277,
-3.24554,0.854492,
-3.25623,0.845337,
-3.25928,0.840759,
-3.26843,0.848389,
-3.27606,0.866699,
-3.28674,0.854492,
-3.29285,0.839233,
-3.30048,0.837708,
-3.30353,0.848389,
-3.31116,0.866699,
-3.31726,0.849915,
-3.32336,0.845337,
-3.33099,0.842285,
-3.33405,0.85144,
-3.34778,0.883484,
-3.35236,0.854492,
-3.35999,0.840759,
-3.36456,0.840759,
-3.37219,0.85144,
-3.37677,0.866699,
-3.38135,0.85144,
-3.3844,0.843811,
-3.38898,0.843811,
-3.39966,0.846863,
-3.40729,0.869751,
-3.41644,0.857544,
-3.41949,0.843811,
-3.4256,0.840759,
-3.4317,0.857544,
-3.43628,0.869751,
-3.43933,0.849915,
-3.44543,0.840759,
-3.45459,0.843811,
-3.46222,0.848389,
-3.4668,0.866699,
-3.4729,0.856018,
-3.479,0.839233,
-3.48206,0.843811,
-3.49426,0.863647,
-3.50494,0.865173,
-3.508,0.85907,
-3.52325,0.843811,
-3.52936,0.842285,
-3.54156,0.848389,
-3.55072,0.866699,
-3.55988,0.857544,
-3.5675,0.836182,
-3.57971,0.840759,
-3.58582,0.848389,
-3.59497,0.860596,
-3.59955,0.857544,
-3.60565,0.843811,
-3.61328,0.836182,
-3.62091,0.854492,
-3.63159,0.868225,
-3.63922,0.854492,
-3.64838,0.842285,
-3.65753,0.840759,
-3.66364,0.854492,
-3.67279,0.865173,
-3.68347,0.85144,
-3.69415,0.840759,
-3.6972,0.836182,
-3.70636,0.854492,
-3.71246,0.866699,
-3.72009,0.85144,
-3.7262,0.843811,
-3.7262,0.840759,
-3.72772,0.85144,
-3.73077,0.868225,
-3.72772,0.854492,
-3.72314,0.843811,
-3.71399,0.837708,
-3.70789,0.856018,
-3.70026,0.860596,
-3.68652,0.848389,
-3.67737,0.840759,
-3.66669,0.842285,
-3.64838,0.849915,
-3.62854,0.872803,
-3.61328,0.857544,
-3.59192,0.839233,
-3.57666,0.842285,
-3.55377,0.848389,
-3.53851,0.866699,
-3.51868,0.854492,
-3.49884,0.839233,
-3.4729,0.839233,
-3.45459,0.845337,
-3.43933,0.866699,
-3.42102,0.856018,
-3.40576,0.840759,
-3.38898,0.843811,
-3.37982,0.85144,
-3.36304,0.869751,
-3.35693,0.856018,
-3.34778,0.843811,
-3.3371,0.840759,
-3.33099,0.848389,
-3.32184,0.865173,
-3.31421,0.85144,
-3.30658,0.836182,
-3.29742,0.837708,
-3.29132,0.849915,
-3.28827,0.865173,
-3.28522,0.857544,
-3.27759,0.843811,
-3.27454,0.837708,
-3.26691,0.856018,
-3.26843,0.868225,
-3.26385,0.85907,
-3.26385,0.840759,
-3.26385,0.836182,
-3.2608,0.849915,
-3.25775,0.866699,
-3.2608,0.85907,
-3.2608,0.842285,
-3.25775,0.839233,
-3.2547,0.849915,
-3.25623,0.866699,
-3.25317,0.854492,
-3.25317,0.843811,
-3.24554,0.843811,
-3.24402,0.849915,
-3.24554,0.866699,
-3.24554,0.85144,
-3.24554,0.839233,
-3.24402,0.834656,
-3.24707,0.848389,
-3.2486,0.869751,
-3.2547,0.85144,
-3.25623,0.842285,
-3.2547,0.840759,
-3.25317,0.85144,
-3.25623,0.868225,
-3.26385,0.857544,
-3.2608,0.840759,
-3.25928,0.839233,
-3.26385,0.846863,
-3.26538,0.868225,
-3.26385,0.849915,
-3.26538,0.839233,
-3.26538,0.842285,
-3.26385,0.848389,
-3.26691,0.866699,
-3.26538,0.856018,
-3.2608,0.839233,
-3.26538,0.843811,
-3.2608,0.846863,
-3.26233,0.868225,
-3.25623,0.856018,
-3.25623,0.840759,
-3.2486,0.840759,
-3.24402,0.845337,
-3.24097,0.868225,
-3.23639,0.856018,
-3.23181,0.839233,
-3.22571,0.842285,
-3.22113,0.85144,
-3.21808,0.866699,
-3.21655,0.849915,
-3.21198,0.842285,
-3.20892,0.839233,
-3.20892,0.846863,
-3.20282,0.865173,
-3.20129,0.854492,
-3.20282,0.840759,
-3.20129,0.836182,
-3.19824,0.85144,
-3.19214,0.865173,
-3.19214,0.856018,
-3.18604,0.842285,
-3.18451,0.836182,
-3.18451,0.849915,
-3.18604,0.865173,
-3.18298,0.854492,
-3.18146,0.842285,
-3.17993,0.839233,
-3.18146,0.85144,
-3.18146,0.865173,
-3.18298,0.85144,
-3.17993,0.840759,
-3.17841,0.837708,
-3.18298,0.848389,
-3.17841,0.868225,
-3.17841,0.849915,
-3.17841,0.840759,
-3.18146,0.837708,
-3.18451,0.849915,
-3.18756,0.869751,
-3.18756,0.857544,
-3.18909,0.843811,
-3.18604,0.839233,
-3.18756,0.848389,
-3.19061,0.868225,
-3.19061,0.854492,
-3.19519,0.846863,
-3.20129,0.83313,
-3.20435,0.848389,
-3.20587,0.868225,
-3.21045,0.857544,
-3.21198,0.842285,
-3.22418,0.840759,
-3.22113,0.846863,
-3.22876,0.868225,
-3.22876,0.849915,
-3.23486,0.842285,
-3.23639,0.842285,
-3.24402,0.845337,
-3.2486,0.869751,
-3.25623,0.857544,
-3.26385,0.837708,
-3.26691,0.840759,
-3.26385,0.849915,
-3.26538,0.866699,
-3.26691,0.854492,
-3.26843,0.842285,
-3.26996,0.848389,
-3.26996,0.846863,
-3.27454,0.865173,
-3.27759,0.857544,
-3.27911,0.834656,
-3.28369,0.840759,
-3.28827,0.856018,
-3.29285,0.868225,
-3.29437,0.857544,
-3.29742,0.840759,
-3.29742,0.840759,
-3.2959,0.85144,
-3.302,0.866699,
-3.29895,0.856018,
-3.30811,0.836182,
-3.30658,0.837708,
-3.31268,0.849915,
-3.31573,0.863647,
-3.32184,0.856018,
-3.32031,0.845337,
-3.32794,0.839233,
-3.32794,0.849915,
-3.32947,0.869751,
-3.3371,0.856018,
-3.34167,0.839233,
-3.34778,0.837708,
-3.35083,0.849915,
-3.35541,0.85907,
-3.35999,0.85144,
-3.35999,0.845337,
-3.36456,0.839233,
-3.36914,0.849915,
-3.37219,0.868225,
-3.37524,0.85144,
-3.38135,0.842285,
-3.38898,0.840759,
-3.39203,0.840759,
-3.39203,0.868225,
-3.39355,0.854492,
-3.39966,0.834656,
-3.40271,0.840759,
-3.40881,0.845337,
-3.41034,0.857544,
-3.41187,0.856018,
-3.41339,0.842285,
-3.41644,0.840759,
-3.41797,0.846863,
-3.4256,0.871277,
-3.42865,0.860596,
-3.43323,0.843811,
-3.43781,0.839233,
-3.43933,0.849915,
-3.44543,0.866699,
-3.44391,0.854492,
-3.44696,0.839233,
-3.45154,0.839233,
-3.45459,0.848389,
-3.46069,0.868225,
-3.46527,0.857544,
-3.46832,0.840759,
-3.46985,0.842285,
-3.47137,0.849915,
-3.47595,0.869751,
-3.479,0.857544,
-3.48816,0.837708,
-3.49274,0.842285,
-3.49579,0.848389,
-3.49884,0.869751,
-3.50342,0.854492,
-3.508,0.839233,
-3.51257,0.839233,
-3.5202,0.848389,
-3.52325,0.863647,
-3.52783,0.87738,
-3.52936,0.842285,
-3.52783,0.839233,
-3.53394,0.85144,
-3.54004,0.865173,
-3.55072,0.862122,
-3.55682,0.842285,
-3.5614,0.839233,
-3.57361,0.85144,
-3.57819,0.863647,
-3.58429,0.854492,
-3.59039,0.839233,
-3.59344,0.836182,
-3.59344,0.849915,
-3.6026,0.869751,
-3.60565,0.854492,
-3.61023,0.845337,
-3.61786,0.837708,
-3.62549,0.846863,
-3.63312,0.866699,
-3.6377,0.857544,
-3.64227,0.839233,
-3.64685,0.837708,
-3.6499,0.848389,
-3.65448,0.869751,
-3.66058,0.846863,
-3.66516,0.840759,
-3.66821,0.840759,
-3.67432,0.846863,
-3.67584,0.868225,
-3.68042,0.862122,
-3.68347,0.837708,
-3.685,0.840759,
-3.69415,0.849915,
-3.6972,0.866699,
-3.69873,0.854492,
-3.70178,0.842285,
-3.70483,0.830078,
-3.70941,0.846863,
-3.71399,0.868225,
-3.71246,0.854492,
-3.71552,0.837708,
-3.71094,0.842285,
-3.70483,0.85907,
-3.70636,0.865173,
-3.69568,0.862122,
-3.68347,0.837708,
-3.67737,0.837708,
-3.66364,0.848389,
-3.6499,0.865173,
-3.63617,0.854492,
-3.61633,0.837708,
-3.59955,0.839233,
-3.57666,0.848389,
-3.5553,0.862122,
-3.53394,0.860596,
-3.51105,0.842285,
-3.49426,0.837708,
-3.4729,0.846863,
-3.45459,0.866699,
-3.43933,0.857544,
-3.42102,0.842285,
-3.40271,0.837708,
-3.3905,0.848389,
-3.37677,0.866699,
-3.36456,0.854492,
-3.35083,0.837708,
-3.34015,0.836182,
-3.32642,0.856018,
-3.31879,0.868225,
-3.31268,0.85144,
-3.30353,0.842285,
-3.29895,0.840759,
-3.29285,0.848389,
-3.28979,0.868225,
-3.28522,0.856018,
-3.27759,0.840759,
-3.27301,0.834656,
-3.26233,0.843811,
-3.25623,0.866699,
-3.25317,0.854492,
-3.24402,0.836182,
-3.24249,0.836182,
-3.23944,0.83313,
-3.23639,0.865173,
-3.23181,0.857544,
-3.22876,0.840759,
-3.22876,0.836182,
-3.22571,0.849915,
-3.2196,0.865173,
-3.21808,0.854492,
-3.21198,0.831604,
-3.21045,0.836182,
-3.21045,0.845337,
-3.20587,0.856018,
-3.20129,0.85144,
-3.19977,0.837708,
-3.19824,0.842285,
-3.19824,0.849915,
-3.19824,0.868225,
-3.19824,0.85907,
-3.19214,0.839233,
-3.19672,0.842285,
-3.19519,0.842285,
-3.19061,0.865173,
-3.19061,0.854492,
-3.18604,0.836182,
-3.18298,0.843811,
-3.18909,0.848389,
-3.19519,0.863647,
-3.19824,0.856018,
-3.20129,0.843811,
-3.19672,0.837708,
-3.19824,0.863647,
-3.19672,0.869751,
-3.19672,0.854492,
-3.19824,0.839233,
-3.19214,0.839233,
-3.19519,0.848389,
-3.19061,0.860596,
-3.19061,0.854492,
-3.18756,0.840759,
-3.18451,0.834656,
-3.18451,0.848389,
-3.18298,0.865173,
-3.18146,0.854492,
-3.18146,0.846863,
-3.17535,0.836182,
-3.17535,0.839233,
-3.17993,0.866699,
-3.17841,0.849915,
-3.17688,0.836182,
-3.17383,0.836182,
-3.17383,0.85144,
-3.17078,0.863647,
-3.17078,0.845337,
-3.16772,0.860596,
-3.1601,0.842285,
-3.16162,0.845337,
-3.15857,0.865173,
-3.15857,0.854492,
-3.16162,0.840759,
-3.1601,0.836182,
-3.1662,0.848389,
-3.1662,0.866699,
-3.1723,0.849915,
-3.17078,0.837708,
-3.17078,0.836182,
-3.1723,0.842285,
-3.17535,0.865173,
-3.17383,0.856018,
-3.16925,0.839233,
-3.17078,0.839233,
-3.16772,0.845337,
-3.16772,0.871277,
-3.17078,0.854492,
-3.1723,0.840759,
-3.17383,0.837708,
-3.17993,0.843811,
-3.18146,0.862122,
-3.18756,0.857544,
-3.18756,0.837708,
-3.19214,0.839233,
-3.19824,0.849915,
-3.19977,0.863647,
-3.20587,0.856018,
-3.20282,0.837708,
-3.20587,0.836182,
-3.20892,0.848389,
-3.2135,0.862122,
-3.21655,0.848389,
-3.2196,0.834656,
-3.22571,0.83313,
-3.22571,0.85144,
-3.22418,0.862122,
-3.22571,0.854492,
-3.22571,0.836182,
-3.22571,0.834656,
-3.22571,0.85144,
-3.22876,0.863647,
-3.23486,0.849915,
-3.23792,0.840759,
-3.23792,0.834656,
-3.23944,0.842285,
-3.24249,0.866699,
-3.23792,0.849915,
-3.23944,0.839233,
-3.24097,0.83313,
-3.23944,0.846863,
-3.23792,0.863647,
-3.23792,0.854492,
-3.23334,0.840759,
-3.23181,0.839233,
-3.23181,0.848389,
-3.23181,0.866699,
-3.23181,0.849915,
-3.23029,0.837708,
-3.22876,0.834656,
-3.23029,0.845337,
-3.22723,0.863647,
-3.23334,0.85144,
-3.23486,0.842285,
-3.23944,0.837708,
-3.23639,0.845337,
-3.23792,0.865173,
-3.23792,0.85144,
-3.23792,0.839233,
-3.23639,0.836182,
-3.23334,0.845337,
-3.23181,0.863647,
-3.23792,0.846863,
-3.23486,0.836182,
-3.23792,0.834656,
-3.24097,0.840759,
-3.23944,0.862122,
-3.24249,0.85144,
-3.24249,0.836182,
-3.24402,0.840759,
-3.25012,0.848389,
-3.2547,0.866699,
-3.2486,0.848389,
-3.25317,0.836182,
-3.25317,0.834656,
-3.2486,0.843811,
-3.25317,0.860596,
-3.25317,0.849915,
-3.25317,0.83313,
-3.25317,0.836182,
-3.25623,0.843811,
-3.25775,0.862122,
-3.26385,0.856018,
-3.26233,0.840759,
-3.25928,0.836182,
-3.25775,0.846863,
-3.26233,0.860596,
-3.26233,0.854492,
-3.26233,0.834656,
-3.26538,0.836182,
-3.26996,0.840759,
-3.27301,0.860596,
-3.27454,0.856018,
-3.27606,0.840759,
-3.27759,0.834656,
-3.28369,0.845337,
-3.28369,0.862122,
-3.28674,0.843811,
-3.29285,0.842285,
-3.29132,0.834656,
-3.29742,0.849915,
-3.30353,0.860596,
-3.31116,0.848389,
-3.31879,0.834656,
-3.32489,0.834656,
-3.32794,0.848389,
-3.33405,0.866699,
-3.34167,0.849915,
-3.34473,0.837708,
-3.34778,0.837708,
-3.35083,0.846863,
-3.35388,0.862122,
-3.35693,0.85144,
-3.35693,0.839233,
-3.36151,0.83313,
-3.36456,0.842285,
-3.36609,0.862122,
-3.36914,0.845337,
-3.37372,0.836182,
-3.37677,0.837708,
-3.38135,0.846863,
-3.38898,0.862122,
-3.39203,0.854492,
-3.40118,0.837708,
-3.40729,0.840759,
-3.41339,0.85144,
-3.41492,0.862122,
-3.42102,0.845337,
-3.42407,0.817871,
-3.4256,0.837708,
-3.4317,0.839233,
-3.43781,0.862122,
-3.43475,0.854492,
-3.44086,0.834656,
-3.44849,0.845337,
-3.45459,0.854492,
-3.45764,0.862122,
-3.46375,0.856018,
-3.47137,0.837708,
-3.4729,0.836182,
-3.4729,0.843811,
-3.47748,0.85144,
-3.48053,0.874329,
-3.48358,0.834656,
-3.48969,0.840759,
-3.49426,0.845337,
-3.50189,0.85907,
-3.50494,0.856018,
-3.50952,0.837708,
-3.508,0.83313,
-3.50952,0.845337,
-3.50952,0.862122,
-3.50189,0.843811,
-3.49121,0.836182,
-3.479,0.83313,
-3.4668,0.842285,
-3.45306,0.85907,
-3.43933,0.85144,
-3.4256,0.839233,
-3.40576,0.834656,
-3.38898,0.840759,
-3.37372,0.856018,
-3.35083,0.848389,
-3.32947,0.837708,
-3.31421,0.83313,
-3.29132,0.845337,
-3.27301,0.863647,
-3.25623,0.849915,
-3.23181,0.839233,
-3.21655,0.830078,
-3.19672,0.843811,
-3.17993,0.866699,
-3.16162,0.849915,
-3.14484,0.837708,
-3.1311,0.834656,
-3.1189,0.848389,
-3.11279,0.860596,
-3.10059,0.848389,
-3.09601,0.837708,
-3.08533,0.83313,
-3.07465,0.842285,
-3.06854,0.863647,
-3.06396,0.846863,
-3.05939,0.836182,
-3.05786,0.83313,
-3.05328,0.843811,
-3.05481,0.863647,
-3.05481,0.848389,
-3.05481,0.834656,
-3.05023,0.83313,
-3.04108,0.843811,
-3.03955,0.863647,
-3.03345,0.846863,
-3.0304,0.834656,
-3.02429,0.831604,
-3.01666,0.842285,
-3.01361,0.862122,
-3.01056,0.854492,
-3.00598,0.836182,
-2.99988,0.836182,
-2.99988,0.842285,
-2.99988,0.862122,
-2.9953,0.857544,
-2.99225,0.834656,
-2.9892,0.820923,
-2.9892,0.840759,
-2.98767,0.860596,
-2.98462,0.85144,
-2.97699,0.831604,
-2.97546,0.837708,
-2.98157,0.845337,
-2.97852,0.872803,
-2.98004,0.839233,
-2.97699,0.834656,
-2.97699,0.83313,
-2.97394,0.845337,
-2.97699,0.85907,
-2.97546,0.849915,
-2.97699,0.819397,
-2.97546,0.831604,
-2.97852,0.834656,
-2.97394,0.857544,
-2.97394,0.854492,
-2.97699,0.834656,
-2.97699,0.83313,
-2.98004,0.85144,
-2.97394,0.865173,
-2.97546,0.85144,
-2.97241,0.839233,
-2.96631,0.83313,
-2.96478,0.842285,
-2.95563,0.85907,
-2.95105,0.849915,
-2.948,0.836182,
-2.93732,0.827026,
-2.92664,0.843811,
-2.91901,0.863647,
-2.9129,0.848389,
-2.91138,0.836182,
-2.9068,0.83313,
-2.89917,0.845337,
-2.89917,0.863647,
-2.89764,0.840759,
-2.89612,0.823975,
-2.89459,0.830078,
-2.89154,0.842285,
-2.89154,0.862122,
-2.89459,0.842285,
-2.89001,0.836182,
-2.88849,0.836182,
-2.89001,0.85907,
-2.88544,0.866699,
-2.88849,0.848389,
-2.89001,0.834656,
-2.89154,0.834656,
-2.89459,0.845337,
-2.89154,0.863647,
-2.89764,0.843811,
-2.89764,0.837708,
-2.89917,0.83313,
-2.9007,0.840759,
-2.89917,0.862122,
-2.89459,0.849915,
-2.89459,0.831604,
-2.89612,0.837708,
-2.89307,0.840759,
-2.89917,0.862122,
-2.90222,0.848389,
-2.9068,0.836182,
-2.9068,0.83313,
-2.90985,0.839233,
-2.9129,0.85144,
-2.9129,0.85144,
-2.91595,0.83313,
-2.91595,0.83313,
-2.91595,0.843811,
-2.91443,0.856018,
-2.91748,0.85907,
-2.91595,0.837708,
-2.92053,0.83313,
-2.92206,0.842285,
-2.92358,0.860596,
-2.92511,0.849915,
-2.92816,0.831604,
-2.93427,0.83313,
-2.93884,0.843811,
-2.94342,0.856018,
-2.94495,0.849915,
-2.94342,0.83313,
-2.95258,0.831604,
-2.95715,0.845337,
-2.96021,0.863647,
-2.96021,0.854492,
-2.96478,0.836182,
-2.96631,0.828552,
-2.96936,0.842285,
-2.97241,0.860596,
-2.97241,0.845337,
-2.97241,0.836182,
-2.97241,0.831604,
-2.96936,0.842285,
-2.97241,0.860596,
-2.96783,0.848389,
-2.96783,0.836182,
-2.96631,0.83313,
-2.96783,0.843811,
-2.96631,0.860596,
-2.96783,0.845337,
-2.96936,0.836182,
-2.97089,0.828552,
-2.97089,0.840759,
-2.97394,0.862122,
-2.97852,0.845337,
-2.98462,0.836182,
-2.98157,0.834656,
-2.98462,0.837708,
-2.9892,0.863647,
-2.99377,0.85144,
-2.9953,0.831604,
-3.00293,0.839233,
-3.00598,0.839233,
-3.01361,0.863647,
-3.01819,0.842285,
-3.02277,0.831604,
-3.02429,0.834656,
-3.02887,0.840759,
-3.0365,0.862122,
-3.0426,0.849915,
-3.04565,0.831604,
-3.05176,0.836182,
-3.05786,0.840759,
-3.06396,0.860596,
-3.06854,0.85144,
-3.07312,0.836182,
-3.07922,0.834656,
-3.08228,0.842285,
-3.08228,0.85907,
-3.08533,0.848389,
-3.08838,0.830078,
-3.09143,0.834656,
-3.09296,0.837708,
-3.09448,0.860596,
-3.09296,0.856018,
-3.09296,0.836182,
-3.09296,0.831604,
-3.09906,0.843811,
-3.09753,0.85907,
-3.10211,0.848389,
-3.10364,0.83313,
-3.10211,0.831604,
-3.10516,0.845337,
-3.11127,0.856018,
-3.11127,0.854492,
-3.11584,0.830078,
-3.1189,0.828552,
-3.12347,0.842285,
-3.12653,0.85907,
-3.12958,0.845337,
-3.1311,0.837708,
-3.13263,0.83313,
-3.13263,0.840759,
-3.13416,0.860596,
-3.14026,0.846863,
-3.14026,0.834656,
-3.14331,0.827026,
-3.14331,0.840759,
-3.14636,0.860596,
-3.15094,0.849915,
-3.15552,0.837708,
-3.15704,0.83313,
-3.15704,0.845337,
-3.15857,0.862122,
-3.1662,0.846863,
-3.16772,0.83313,
-3.17383,0.830078,
-3.17535,0.839233,
-3.18146,0.863647,
-3.18604,0.846863,
-3.19061,0.834656,
-3.19824,0.831604,
-3.20129,0.840759,
-3.20892,0.862122,
-3.21655,0.848389,
-3.22113,0.837708,
-3.22876,0.83313,
-3.23181,0.842285,
-3.23486,0.860596,
-3.23639,0.843811,
-3.23792,0.831604,
-3.24249,0.831604,
-3.24554,0.843811,
-3.25623,0.860596,
-3.2608,0.85144,
-3.26691,0.831604,
-3.27301,0.836182,
-3.27911,0.845337,
-3.28979,0.860596,
-3.2959,0.845337,
-3.30048,0.834656,
-3.30505,0.83313,
-3.30811,0.837708,
-3.31268,0.85907,
-3.31421,0.846863,
-3.31573,0.827026,
-3.32489,0.83313,
-3.32642,0.845337,
-3.32642,0.863647,
-3.32794,0.849915,
-3.32794,0.831604,
-3.34015,0.83313,
-3.34473,0.843811,
-3.3493,0.857544,
-3.35236,0.849915,
-3.35693,0.834656,
-3.36151,0.828552,
-3.35999,0.843811,
-3.35999,0.856018,
-3.35999,0.848389,
-3.35846,0.836182,
-3.35083,0.830078,
-3.34167,0.843811,
-3.33099,0.85907,
-3.31726,0.848389,
-3.302,0.83313,
-3.28522,0.831604,
-3.26691,0.837708,
-3.24249,0.863647,
-3.22723,0.845337,
-3.20435,0.831604,
-3.18146,0.83313,
-3.15704,0.843811,
-3.13721,0.856018,
-3.11127,0.849915,
-3.09296,0.837708,
-3.07312,0.836182,
-3.05786,0.840759,
-3.03955,0.85907,
-3.02734,0.839233,
-3.01208,0.843811,
-2.99683,0.827026,
-2.98157,0.837708,
-2.97089,0.860596,
-2.95715,0.840759,
-2.94647,0.834656,
-2.93579,0.831604,
-2.92511,0.840759,
-2.91901,0.862122,
-2.90985,0.849915,
-2.9007,0.830078,
-2.89001,0.830078,
-2.88544,0.840759,
-2.87933,0.85907,
-2.87628,0.843811,
-2.86407,0.831604,
-2.86102,0.83313,
-2.85797,0.839233,
-2.85034,0.85907,
-2.84271,0.848389,
-2.83508,0.83313,
-2.83203,0.83313,
-2.82135,0.840759,
-2.81982,0.85907,
-2.81525,0.848389,
-2.80914,0.830078,
-2.80304,0.831604,
-2.79388,0.834656,
-2.78931,0.857544,
-2.78473,0.843811,
-2.77863,0.830078,
-2.77405,0.836182,
-2.76947,0.843811,
-2.76337,0.856018,
-2.75726,0.848389,
-2.75574,0.831604,
-2.74963,0.834656,
-2.74506,0.840759,
-2.742,0.857544,
-2.73743,0.849915,
-2.73285,0.827026,
-2.72827,0.828552,
-2.72522,0.839233,
-2.72064,0.856018,
-2.72064,0.846863,
-2.72064,0.83313,
-2.71759,0.831604,
-2.71606,0.845337,
-2.71454,0.857544,
-2.71606,0.846863,
-2.71454,0.83313,
-2.71301,0.830078,
-2.71759,0.842285,
-2.71454,0.85144,
-2.70844,0.846863,
-2.70538,0.823975,
-2.70538,0.828552,
-2.69318,0.837708,
-2.69165,0.85907,
-2.69165,0.845337,
-2.68707,0.83313,
-2.6825,0.834656,
-2.67792,0.840759,
-2.67029,0.860596,
-2.66266,0.845337,
-2.65808,0.831604,
-2.6535,0.830078,
-2.6474,0.840759,
-2.6474,0.857544,
-2.6413,0.842285,
-2.63824,0.830078,
-2.63367,0.834656,
-2.62909,0.837708,
-2.62756,0.860596,
-2.62299,0.846863,
-2.61536,0.834656,
-2.60773,0.831604,
-2.60315,0.840759,
-2.6001,0.857544,
-2.59552,0.846863,
-2.59247,0.831604,
-2.58331,0.830078,
-2.57874,0.834656,
-2.57568,0.854492,
-2.57111,0.842285,
-2.56805,0.830078,
-2.56805,0.83313,
-2.56348,0.842285,
-2.56195,0.856018,
-2.56348,0.849915,
-2.565,0.831604,
-2.56042,0.828552,
-2.56042,0.837708,
-2.5589,0.848389,
-2.55737,0.845337,
-2.55432,0.828552,
-2.55737,0.831604,
-2.55737,0.840759,
-2.55737,0.854492,
-2.56042,0.849915,
-2.56042,0.831604,
-2.56042,0.828552,
-2.565,0.840759,
-2.56805,0.863647,
-2.57111,0.845337,
-2.56958,0.828552,
-2.57111,0.830078,
-2.57416,0.842285,
-2.58179,0.854492,
-2.58026,0.843811,
-2.58636,0.83313,
-2.59094,0.828552,
-2.58942,0.840759,
-2.59094,0.857544,
-2.59705,0.843811,
-2.59857,0.827026,
-2.60162,0.828552,
-2.60315,0.842285,
-2.60773,0.85144,
-2.61536,0.843811,
-2.61841,0.83313,
-2.62299,0.828552,
-2.62909,0.840759,
-2.62909,0.856018,
-2.63214,0.846863,
-2.63519,0.830078,
-2.63367,0.830078,
-2.63672,0.840759,
-2.63367,0.856018,
-2.63367,0.842285,
-2.63672,0.83313,
-2.63519,0.823975,
-2.63519,0.839233,
-2.63824,0.857544,
-2.64435,0.840759,
-2.64587,0.83313,
-2.6474,0.830078,
-2.64435,0.839233,
-2.64893,0.85907,
-2.65045,0.845337,
-2.64893,0.830078,
-2.65198,0.827026,
-2.65503,0.836182,
-2.65656,0.854492,
-2.65961,0.843811,
-2.66113,0.828552,
-2.66418,0.831604,
-2.66418,0.837708,
-2.66571,0.860596,
-2.66571,0.848389,
-2.67487,0.834656,
-2.67487,0.830078,
-2.67487,0.819397,
-2.67487,0.860596,
-2.67792,0.843811,
-2.67944,0.828552,
-2.67639,0.83313,
-2.68097,0.831604,
-2.68555,0.860596,
-2.68707,0.866699,
-2.6886,0.816345,
-2.69623,0.831604,
-2.69928,0.842285,
-2.69928,0.857544,
-2.70538,0.843811,
-2.70996,0.823975,
-2.70996,0.831604,
-2.71149,0.831604,
-2.70996,0.862122,
-2.71454,0.845337,
-2.71606,0.823975,
-2.72064,0.83313,
-2.72064,0.837708,
-2.72369,0.856018,
-2.73285,0.846863,
-2.73743,0.827026,
-2.74506,0.83313,
-2.75116,0.840759,
-2.75574,0.856018,
-2.75574,0.845337,
-2.76184,0.830078,
-2.76947,0.828552,
-2.77252,0.840759,
-2.7771,0.843811,
-2.7832,0.846863,
-2.78931,0.83313,
-2.79388,0.830078,
-2.79846,0.842285,
-2.79999,0.854492,
-2.80609,0.840759,
-2.81067,0.816345,
-2.81525,0.8255,
-2.82593,0.840759,
-2.83051,0.85144,
-2.83966,0.843811,
-2.84424,0.836182,
-2.85187,0.830078,
-2.85187,0.842285,
-2.85645,0.85907,
-2.86255,0.842285,
-2.86713,0.831604,
-2.86865,0.830078,
-2.87781,0.839233,
-2.88544,0.85144,
-2.88849,0.840759,
-2.89307,0.831604,
-2.89764,0.8255,
-2.89917,0.840759,
-2.9068,0.857544,
-2.90985,0.842285,
-2.91443,0.83313,
-2.91901,0.83313,
-2.92358,0.837708,
-2.92816,0.857544,
-2.93121,0.843811,
-2.93579,0.831604,
-2.93579,0.827026,
-2.93884,0.839233,
-2.93884,0.857544,
-2.94495,0.837708,
-2.95105,0.827026,
-2.9541,0.827026,
-2.95715,0.837708,
-2.96326,0.85907,
-2.96783,0.845337,
-2.97394,0.83313,
-2.97546,0.828552,
-2.98309,0.837708,
-2.98462,0.856018,
-2.99377,0.839233,
-2.99835,0.827026,
-2.99988,0.830078,
-3.00598,0.836182,
-3.00903,0.854492,
-3.01056,0.848389,
-3.01056,0.828552,
-3.01056,0.834656,
-3.00903,0.840759,
-3.01514,0.856018,
-3.01361,0.846863,
-3.01514,0.819397,
-3.01819,0.830078,
-3.02124,0.83313,
-3.02582,0.856018,
-3.02582,0.843811,
-3.03192,0.8255,
-3.0365,0.836182,
-3.03497,0.839233,
-3.03497,0.854492,
-3.03497,0.845337,
-3.0304,0.830078,
-3.02582,0.828552,
-3.01819,0.836182,
-3.00903,0.856018,
-2.99988,0.845337,
-2.9892,0.83313,
-2.96783,0.828552,
-2.94952,0.839233,
-2.93579,0.849915,
-2.91595,0.845337,
-2.89459,0.831604,
-2.8717,0.8255,
-2.85034,0.839233,
-2.83356,0.854492,
-2.81067,0.848389,
-2.78931,0.820923,
-2.76794,0.828552,
-2.74963,0.8255,
-2.73285,0.849915,
-2.71301,0.843811,
-2.69165,0.830078,
-2.67639,0.8255,
-2.65961,0.836182,
-2.64435,0.857544,
-2.62756,0.840759,
-2.61078,0.834656,
-2.59247,0.827026,
-2.57568,0.836182,
-2.56348,0.85144,
-2.54974,0.843811,
-2.53754,0.828552,
-2.52533,0.8255,
-2.51312,0.836182,
-2.49634,0.857544,
-2.49329,0.840759,
-2.48108,0.830078,
-2.47192,0.828552,
-2.45819,0.840759,
-2.44751,0.85907,
-2.44293,0.842285,
-2.43683,0.8255,
-2.42615,0.827026,
-2.41547,0.837708,
-2.40479,0.856018,
-2.39868,0.837708,
-2.39105,0.831604,
-2.38342,0.830078,
-2.37732,0.834656,
-2.36511,0.854492,
-2.35443,0.842285,
-2.34528,0.830078,
-2.33459,0.828552,
-2.32239,0.8255,
-2.31476,0.857544,
-2.30255,0.837708,
-2.2934,0.823975,
-2.28424,0.831604,
-2.27356,0.83313,
-2.26746,0.856018,
-2.25525,0.845337,
-2.24609,0.828552,
-2.23694,0.823975,
-2.22778,0.837708,
-2.22473,0.856018,
-2.22473,0.842285,
-2.21405,0.830078,
-2.211,0.830078,
-2.20337,0.836182,
-2.19879,0.849915,
-2.19116,0.842285,
-2.18811,0.823975,
-2.18353,0.827026,
-2.18048,0.836182,
-2.17896,0.848389,
-2.1759,0.848389,
-2.17133,0.830078,
-2.16217,0.819397,
-2.15912,0.834656,
-2.15302,0.848389,
-2.14539,0.842285,
-2.14539,0.827026,
-2.14233,0.8255,
-2.13776,0.837708,
-2.1286,0.85907,
-2.1225,0.843811,
-2.11334,0.8255,
-2.10571,0.831604,
-2.10266,0.840759,
-2.09351,0.856018,
-2.08893,0.842285,
-2.0813,0.827026,
-2.0752,0.828552,
-2.07062,0.834656,
-2.06299,0.849915,
-2.05231,0.846863,
-2.04315,0.8255,
-2.03705,0.820923,
-2.03094,0.840759,
-2.02484,0.874329,
-2.02026,0.839233,
-2.01263,0.834656,
-2.00653,0.827026,
-1.99432,0.840759,
-1.98975,0.848389,
-1.98364,0.840759,
-1.98059,0.819397,
-1.97296,0.8255,
-1.97144,0.834656,
-1.96686,0.854492,
-1.96075,0.837708,
-1.95618,0.828552,
-1.94855,0.828552,
-1.94397,0.836182,
-1.93787,0.856018,
-1.93329,0.840759,
-1.93176,0.831604,
-1.93024,0.8255,
-1.93024,0.834656,
-1.93024,0.854492,
-1.92566,0.836182,
-1.92871,0.827026,
-1.93176,0.827026,
-1.92871,0.834656,
-1.93024,0.856018,
-1.93329,0.842285,
-1.93024,0.828552,
-1.93024,0.827026,
-1.92871,0.836182,
-1.93024,0.854492,
-1.92719,0.842285,
-1.92566,0.830078,
-1.92566,0.8255,
-1.92413,0.83313,
-1.92261,0.849915,
-1.92413,0.843811,
-1.92413,0.8255,
-1.92108,0.8255,
-1.92261,0.839233,
-1.92261,0.85144,
-1.92719,0.845337,
-1.92566,0.830078,
-1.92566,0.828552,
-1.92566,0.837708,
-1.92566,0.849915,
-1.92871,0.840759,
-1.93176,0.827026,
-1.93481,0.827026,
-1.93176,0.836182,
-1.92871,0.85144,
-1.93481,0.842285,
-1.93481,0.830078,
-1.93787,0.827026,
-1.93939,0.839233,
-1.94702,0.856018,
-1.9577,0.842285,
-1.95618,0.830078,
-1.96075,0.820923,
-1.96686,0.834656,
-1.96991,0.848389,
-1.97144,0.839233,
-1.97754,0.823975,
-1.97906,0.828552,
-1.98212,0.839233,
-1.98975,0.854492,
-1.9928,0.842285,
-1.9928,0.83313,
-1.99432,0.823975,
-1.99738,0.836182,
-2.00043,0.845337,
-2.00806,0.836182,
-2.01416,0.828552,
-2.01874,0.823975,
-2.02637,0.834656,
-2.034,0.85144,
-2.03857,0.839233,
-2.0462,0.830078,
-2.05078,0.828552,
-2.05383,0.834656,
-2.05994,0.856018,
-2.06757,0.842285,
-2.06757,0.831604,
-2.07062,0.820923,
-2.07672,0.834656,
-2.08282,0.840759,
-2.08893,0.83313,
-2.09808,0.828552,
-2.09961,0.827026,
-2.10266,0.831604,
-2.10876,0.85907,
-2.11792,0.843811,
-2.1225,0.827026,
-2.12708,0.823975,
-2.13165,0.840759,
-2.1347,0.85144,
-2.14081,0.836182,
-2.14539,0.828552,
-2.15454,0.823975,
-2.15759,0.834656,
-2.16522,0.843811,
-2.17285,0.840759,
-2.1759,0.823975,
-2.1759,0.831604,
-2.18048,0.836182,
-2.18353,0.85144,
-2.18506,0.842285,
-2.19116,0.827026,
-2.19116,0.827026,
-2.19269,0.83313,
-2.19574,0.848389,
-2.19879,0.840759,
-2.19879,0.8255,
-2.20032,0.8255,
-2.20795,0.837708,
-2.211,0.849915,
-2.21558,0.843811,
-2.22015,0.827026,
-2.22168,0.827026,
-2.22931,0.834656,
-2.23236,0.848389,
-2.23846,0.839233,
-2.23999,0.820923,
-2.24152,0.8255,
-2.24609,0.836182,
-2.25067,0.848389,
-2.25372,0.840759,
-2.25525,0.828552,
-2.25677,0.827026,
-2.25677,0.839233,
-2.26135,0.856018,
-2.26288,0.839233,
-2.26898,0.8255,
-2.27356,0.830078,
-2.27509,0.837708,
-2.27966,0.846863,
-2.28271,0.837708,
-2.28577,0.8255,
-2.2934,0.8255,
-2.2995,0.836182,
-2.30103,0.85144,
-2.30713,0.839233,
-2.31171,0.8255,
-2.31628,0.8255,
-2.31934,0.83313,
-2.32849,0.856018,
-2.33459,0.839233,
-2.33765,0.830078,
-2.34222,0.819397,
-2.35138,0.834656,
-2.35138,0.85144,
-2.36053,0.837708,
-2.36206,0.827026,
-2.36816,0.827026,
-2.37274,0.834656,
-2.37732,0.85144,
-2.38495,0.843811,
-2.39258,0.828552,
-2.39563,0.827026,
-2.40173,0.836182,
-2.40784,0.849915,
-2.41699,0.842285,
-2.41547,0.820923,
-2.42004,0.827026,
-2.42004,0.834656,
-2.42157,0.856018,
-2.42462,0.843811,
-2.4231,0.8255,
-2.42004,0.827026,
-2.41547,0.837708,
-2.40479,0.85144,
-2.39716,0.840759,
-2.38495,0.828552,
-2.36664,0.827026,
-2.34833,0.831604,
-2.33307,0.85144,
-2.31018,0.842285,
-2.29187,0.823975,
-2.27203,0.8255,
-2.24609,0.836182,
-2.22015,0.849915,
-2.19727,0.842285,
-2.1698,0.827026,
-2.14386,0.819397,
-2.12097,0.830078,
-2.09808,0.849915,
-2.07214,0.840759,
-2.04773,0.80719,
-2.02484,0.819397,
-2.005,0.836182,
-1.98364,0.845337,
-1.96075,0.842285,
-1.94244,0.8255,
-1.91956,0.813293,
-1.90125,0.836182,
-1.88293,0.849915,
-1.86768,0.840759,
-1.85089,0.8255,
-1.83258,0.823975,
-1.81885,0.837708,
-1.80511,0.846863,
-1.79443,0.837708,
-1.77612,0.823975,
-1.76239,0.820923,
-1.75323,0.837708,
-1.73798,0.85144,
-1.72729,0.839233,
-1.71814,0.827026,
-1.70746,0.8255,
-1.69525,0.837708,
-1.68762,0.848389,
-1.67694,0.836182,
-1.66779,0.823975,
-1.651,0.819397,
-1.64185,0.836182,
-1.63727,0.85144,
-1.62506,0.837708,
-1.61896,0.827026,
-1.61133,0.8255,
-1.60522,0.828552,
-1.59912,0.848389,
-1.58997,0.836182,
-1.58234,0.823975,
-1.58234,0.819397,
-1.57471,0.828552,
-1.57013,0.85144,
-1.5625,0.837708,
-1.5625,0.820923,
-1.55792,0.823975,
-1.54877,0.830078,
-1.54724,0.854492,
-1.54572,0.840759,
-1.54266,0.8255,
-1.54266,0.8255,
-1.53656,0.834656,
-1.53351,0.849915,
-1.52893,0.837708,
-1.52588,0.823975,
-1.51978,0.823975,
-1.51672,0.828552,
-1.50604,0.85144,
-1.49841,0.839233,
-1.49841,0.820923,
-1.49384,0.827026,
-1.48621,0.830078,
-1.48315,0.848389,
-1.47705,0.836182,
-1.46637,0.827026,
-1.46027,0.811768,
-1.45416,0.831604,
-1.44501,0.843811,
-1.44196,0.842285,
-1.43738,0.817871,
-1.43127,0.817871,
-1.42517,0.834656,
-1.41754,0.848389,
-1.41296,0.843811,
-1.40533,0.811768,
-1.40228,0.827026,
-1.3916,0.836182,
-1.39008,0.846863,
-1.37787,0.83313,
-1.37482,0.819397,
-1.36108,0.820923,
-1.35498,0.834656,
-1.34888,0.842285,
-1.33972,0.837708,
-1.33057,0.827026,
-1.32751,0.819397,
-1.32446,0.836182,
-1.31836,0.849915,
-1.31378,0.837708,
-1.30615,0.808716,
-1.29852,0.816345,
-1.29395,0.83313,
-1.28784,0.843811,
-1.28784,0.840759,
-1.28326,0.820923,
-1.27563,0.817871,
-1.27411,0.857544,
-1.27411,0.849915,
-1.27411,0.839233,
-1.27258,0.823975,
-1.26953,0.828552,
-1.27106,0.834656,
-1.26953,0.848389,
-1.26801,0.837708,
-1.26648,0.823975,
-1.26648,0.8255,
-1.26953,0.830078,
-1.26953,0.854492,
-1.27411,0.834656,
-1.27563,0.823975,
-1.27716,0.820923,
-1.27563,0.83313,
-1.27563,0.849915,
-1.27716,0.839233,
-1.28021,0.8255,
-1.27563,0.827026,
-1.28174,0.834656,
-1.28174,0.85144,
-1.28784,0.834656,
-1.29089,0.823975,
-1.29547,0.823975,
-1.30157,0.828552,
-1.30615,0.848389,
-1.30615,0.842285,
-1.31226,0.819397,
-1.31989,0.828552,
-1.32751,0.827026,
-1.33514,0.846863,
-1.34583,0.837708,
-1.34735,0.8255,
-1.35498,0.823975,
-1.36719,0.831604,
-1.37177,0.848389,
-1.37787,0.839233,
-1.38397,0.819397,
-1.38702,0.823975,
-1.39771,0.83313,
-1.40228,0.845337,
-1.40839,0.837708,
-1.41296,0.827026,
-1.41449,0.820923,
-1.41602,0.839233,
-1.41907,0.85144,
-1.42212,0.839233,
-1.42517,0.8255,
-1.42975,0.817871,
-1.43585,0.83313,
-1.44348,0.846863,
-1.44806,0.834656,
-1.45569,0.8255,
-1.46179,0.819397,
-1.46942,0.834656,
-1.47247,0.849915,
-1.47552,0.839233,
-1.48315,0.827026,
-1.49078,0.831604,
-1.49536,0.834656,
-1.49994,0.842285,
-1.50604,0.8255,
-1.51215,0.8255,
-1.5213,0.817871,
-1.52283,0.831604,
-1.53351,0.846863,
-1.54114,0.834656,
-1.54724,0.820923,
-1.55182,0.820923,
-1.5564,0.823975,
-1.57166,0.854492,
-1.57623,0.840759,
-1.57776,0.8255,
-1.58234,0.820923,
-1.58539,0.831604,
-1.59607,0.849915,
-1.6037,0.834656,
-1.60828,0.8255,
-1.61438,0.820923,
-1.62048,0.830078,
-1.63269,0.849915,
-1.63879,0.839233,
-1.64948,0.827026,
-1.651,0.820923,
-1.6571,0.831604,
-1.66321,0.846863,
-1.66473,0.843811,
-1.66931,0.8255,
-1.67236,0.823975,
-1.68152,0.830078,
-1.6861,0.843811,
-1.6922,0.856018,
-1.69983,0.823975,
-1.70135,0.820923,
-1.70898,0.837708,
-1.71814,0.842285,
-1.72119,0.837708,
-1.72729,0.830078,
-1.73492,0.8255,
-1.73798,0.83313,
-1.74713,0.849915,
-1.75476,0.840759,
-1.75934,0.8255,
-1.76392,0.8255,
-1.77307,0.83313,
-1.7807,0.842285,
-1.78986,0.836182,
-1.79901,0.823975,
-1.80817,0.817871,
-1.81122,0.831604,
-1.8158,0.848389,
-1.81885,0.836182,
-1.828,0.828552,
-1.83258,0.823975,
-1.83868,0.831604,
-1.84326,0.845337,
-1.85089,0.836182,
-1.85699,0.823975,
-1.8692,0.820923,
-1.8692,0.830078,
-1.87683,0.849915,
-1.88293,0.83313,
-1.88904,0.820923,
-1.89209,0.820923,
-1.89667,0.828552,
-1.89972,0.856018,
-1.90735,0.836182,
-1.91193,0.823975,
-1.91498,0.823975,
-1.92261,0.828552,
-1.93024,0.85144,
-1.92719,0.834656,
-1.93634,0.823975,
-1.93481,0.823975,
-1.93939,0.830078,
-1.93939,0.846863,
-1.94855,0.830078,
-1.95618,0.820923,
-1.95923,0.8255,
-1.96533,0.831604,
-1.96991,0.849915,
-1.97601,0.836182,
-1.98517,0.8255,
-1.98517,0.8255,
-1.98669,0.830078,
-1.98517,0.845337,
-1.98669,0.837708,
-1.98517,0.819397,
-1.97754,0.817871,
-1.96838,0.83313,
-1.96686,0.842285,
-1.95618,0.839233,
-1.95007,0.828552,
-1.93481,0.817871,
-1.92261,0.834656,
-1.90125,0.846863,
-1.88141,0.836182,
-1.8631,0.813293,
-1.84174,0.819397,
-1.8219,0.830078,
-1.79596,0.845337,
-1.77917,0.843811,
-1.76086,0.802612,
-1.73187,0.840759,
-1.70746,0.831604,
-1.67999,0.848389,
-1.6571,0.834656,
-1.63879,0.823975,
-1.61285,0.823975,
-1.58997,0.831604,
-1.56708,0.842285,
-1.55029,0.83313,
-1.5274,0.814819,
-1.50299,0.816345,
-1.47552,0.830078,
-1.46027,0.846863,
-1.44043,0.834656,
-1.42212,0.820923,
-1.40533,0.819397,
-1.38397,0.827026,
-1.37177,0.854492,
-1.36108,0.840759,
-1.34583,0.8255,
-1.33209,0.820923,
-1.31683,0.828552,
-1.30615,0.846863,
-1.28937,0.836182,
-1.27716,0.817871,
-1.2619,0.817871,
-1.24817,0.827026,
-1.23596,0.845337,
-1.22375,0.836182,
-1.20697,0.817871,
-1.19781,0.823975,
-1.18561,0.828552,
-1.17645,0.846863,
-1.1673,0.839233,
-1.15509,0.820923,
-1.14899,0.823975,
-1.13983,0.831604,
-1.12915,0.849915,
-1.12762,0.83313,
-1.12,0.805664,
-1.11237,0.816345,
-1.10931,0.834656,
-1.10931,0.843811,
-1.10474,0.837708,
-1.10168,0.816345,
-1.09558,0.820923,
-1.09558,0.831604,
-1.09406,0.854492,
-1.09253,0.836182,
-1.091,0.8255,
-1.09253,0.819397,
-1.091,0.831604,
-1.09253,0.842285,
-1.09253,0.837708,
-1.09558,0.820923,
-1.09711,0.816345,
-1.09863,0.831604,
-1.10016,0.846863,
-1.10016,0.831604,
-1.10474,0.820923,
-1.10016,0.820923,
-1.10016,0.8255,
-1.09711,0.85144,
-1.091,0.836182,
-1.08948,0.819397,
-1.08032,0.823975,
-1.07574,0.830078,
-1.07117,0.849915,
-1.06354,0.834656,
-1.05896,0.808716,
-1.05743,0.819397,
-1.04828,0.823975,
-1.04065,0.843811,
-1.0376,0.837708,
-1.02844,0.817871,
-1.02692,0.820923,
-1.02539,0.834656,
-1.01471,0.842285,
-1.00708,0.860596,
-1.00555,0.8255,
-0.996399,0.823975,
-0.993347,0.831604,
-0.98877,0.842285,
-0.979614,0.837708,
-0.978088,0.814819,
-0.976563,0.820923,
-0.973511,0.830078,
-0.976563,0.840759,
-0.978088,0.834656,
-0.976563,0.816345,
-0.973511,0.823975,
-0.971985,0.83313,
-0.970459,0.846863,
-0.967407,0.836182,
-0.968933,0.8255,
-0.965881,0.820923,
-0.965881,0.831604,
-0.964355,0.848389,
-0.967407,0.834656,
-0.967407,0.823975,
-0.968933,0.8255,
-0.964355,0.827026,
-0.967407,0.848389,
-0.968933,0.834656,
-0.973511,0.823975,
-0.978088,0.819397,
-0.98114,0.830078,
-0.985718,0.849915,
-0.991821,0.837708,
-0.994873,0.823975,
-0.999451,0.8255,
-1.00403,0.831604,
-1.01166,0.845337,
-1.01929,0.839233,
-1.02692,0.819397,
-1.0376,0.817871,
-1.04675,0.830078,
-1.05438,0.846863,
-1.06049,0.834656,
-1.06964,0.820923,
-1.08185,0.819397,
-1.09253,0.830078,
-1.09711,0.846863,
-1.10168,0.837708,
-1.10931,0.834656,
-1.11389,0.817871,
-1.12152,0.830078,
-1.12762,0.846863,
-1.13983,0.837708,
-1.14288,0.814819,
-1.15356,0.817871,
-1.15814,0.830078,
-1.17188,0.846863,
-1.17493,0.836182,
-1.18561,0.828552,
-1.19019,0.817871,
-1.19629,0.834656,
-1.20392,0.842285,
-1.20697,0.83313,
-1.2146,0.8255,
-1.21613,0.820923,
-1.22223,0.828552,
-1.22986,0.848389,
-1.23444,0.837708,
-1.24207,0.819397,
-1.25122,0.814819,
-1.2558,0.830078,
-1.2619,0.845337,
-1.26953,0.834656,
-1.27563,0.819397,
-1.28021,0.823975,
-1.28326,0.828552,
-1.29089,0.85144,
-1.297,0.837708,
-1.3031,0.820923,
-1.3092,0.837708,
-1.31226,0.830078,
-1.31836,0.849915,
-1.32904,0.830078,
-1.3382,0.817871,
-1.3443,0.820923,
-1.35193,0.823975,
-1.36108,0.848389,
-1.36871,0.848389,
-1.37787,0.819397,
-1.38855,0.823975,
-1.39771,0.828552,
-1.40228,0.846863,
-1.41449,0.836182,
-1.42212,0.819397,
-1.43585,0.827026,
-1.4389,0.820923,
-1.44043,0.845337,
-1.45111,0.834656,
-1.45874,0.816345,
-1.46637,0.819397,
-1.47095,0.83313,
-1.474,0.843811,
-1.48315,0.839233,
-1.48468,0.820923,
-1.49384,0.823975,
-1.49994,0.831604,
-1.50909,0.843811,
-1.51215,0.834656,
-1.51825,0.820923,
-1.52283,0.816345,
-1.52588,0.831604,
-1.53503,0.842285,
-1.53656,0.839233,
-1.54724,0.813293,
-1.55792,0.814819,
-1.56403,0.830078,
-1.57013,0.846863,
-1.57623,0.831604,
-1.58234,0.814819,
-1.58997,0.816345,
-1.59912,0.830078,
-1.60675,0.848389,
-1.61133,0.834656,
-1.62048,0.8255,
-1.62506,0.811768,
-1.63422,0.830078,
-1.64032,0.842285,
-1.6449,0.830078,
-1.64795,0.816345,
-1.65405,0.823975,
-1.66321,0.827026,
-1.67542,0.846863,
-1.68152,0.834656,
-1.68915,0.816345,
-1.69373,0.823975,
-1.70593,0.83313,
-1.71661,0.848389,
-1.72424,0.836182,
-1.73798,0.817871,
-1.74408,0.817871,
-1.75171,0.828552,
-1.75934,0.845337,
-1.77002,0.834656,
-1.78223,0.816345,
-1.78833,0.817871,
-1.79749,0.831604,
-1.80969,0.848389,
-1.82343,0.837708,
-1.83258,0.820923,
-1.84174,0.817871,
-1.85242,0.830078,
-1.86157,0.845337,
-1.8692,0.836182,
-1.88141,0.819397,
-1.89056,0.817871,
-1.90125,0.830078,
-1.90887,0.840759,
-1.91956,0.831604,
-1.93024,0.820923,
-1.94244,0.816345,
-1.95465,0.831604,
-1.96533,0.845337,
-1.97906,0.836182,
-1.98822,0.828552,
-1.99585,0.819397,
-2.00806,0.83313,
-2.01874,0.849915,
-2.02637,0.83313,
-2.034,0.817871,
-2.03857,0.814819,
-2.04468,0.828552,
-2.05078,0.846863,
-2.05383,0.830078,
-2.05231,0.817871,
-2.05078,0.816345,
-2.04926,0.828552,
-2.0462,0.848389,
-2.03552,0.834656,
-2.02332,0.819397,
-2.005,0.819397,
-1.99127,0.831604,
-1.97144,0.846863,
-1.95465,0.83313,
-1.92719,0.817871,
-1.90277,0.816345,
-1.88293,0.8255,
-1.85699,0.845337,
-1.83868,0.837708,
-1.81427,0.816345,
-1.79291,0.820923,
-1.7746,0.83313,
-1.75018,0.846863,
-1.72424,0.827026,
-1.70288,0.823975,
-1.67847,0.817871,
-1.65253,0.831604,
-1.63574,0.845337,
-1.61285,0.837708,
-1.59149,0.817871,
-1.57166,0.811768,
-1.55182,0.827026,
-1.53198,0.843811,
-1.51672,0.834656,
-1.49841,0.827026,
-1.47705,0.813293,
-1.45874,0.834656,
-1.44196,0.846863,
-1.42822,0.834656,
-1.40991,0.816345,
-1.39618,0.814819,
-1.37787,0.827026,
-1.36108,0.845337,
-1.34888,0.830078,
-1.3382,0.817871,
-1.32294,0.814819,
-1.30463,0.827026,
-1.297,0.846863,
-1.28784,0.831604,
-1.28174,0.813293,
-1.27106,0.820923,
-1.26343,0.828552,
-1.25427,0.849915,
-1.24817,0.834656,
-1.24359,0.819397,
-1.23901,0.819397,
-1.23596,0.830078,
-1.23596,0.845337,
-1.23138,0.83313,
-1.22986,0.819397,
-1.22986,0.816345,
-1.22681,0.823975,
-1.22528,0.846863,
-1.22375,0.834656,
-1.22681,0.808716,
-1.22223,0.823975,
-1.2146,0.830078,
-1.2146,0.842285,
-1.2146,0.831604,
-1.2085,0.819397,
-1.2085,0.817871,
-1.20697,0.823975,
-1.20544,0.843811,
-1.20392,0.83313,
-1.20392,0.808716,
-1.20392,0.817871,
-1.20239,0.828552,
-1.20544,0.842285,
-1.20544,0.836182,
-1.20392,0.813293,
-1.20239,0.813293,
-1.20087,0.830078,
-1.19934,0.843811,
-1.19629,0.836182,
-1.19476,0.820923,
-1.18866,0.816345,
-1.18713,0.830078,
-1.18561,0.842285,
-1.18256,0.83313,
-1.18256,0.816345,
-1.1795,0.813293,
-1.1734,0.8255,
-1.17798,0.845337,
-1.1734,0.83313,
-1.17188,0.819397,
-1.16882,0.819397,
-1.16119,0.827026,
-1.15967,0.845337,
-1.15662,0.831604,
-1.15356,0.820923,
-1.14899,0.813293,
-1.14441,0.8255,
-1.14746,0.846863,
-1.14746,0.830078,
-1.14288,0.816345,
-1.14288,0.817871,
-1.13525,0.8255,
-1.13068,0.848389,
-1.13678,0.836182,
-1.12915,0.819397,
-1.12762,0.820923,
-1.12305,0.828552,
-1.12762,0.843811,
-1.1261,0.83313,
-1.1261,0.820923,
-1.12305,0.814819,
-1.12457,0.827026,
-1.12152,0.842285,
-1.12305,0.836182,
-1.12,0.816345,
-1.11847,0.814819,
-1.11847,0.828552,
-1.11542,0.843811,
-1.11847,0.839233,
-1.12305,0.819397,
-1.12457,0.814819,
-1.12915,0.831604,
-1.1322,0.843811,
-1.13831,0.834656,
-1.14746,0.819397,
-1.14746,0.819397,
-1.15509,0.827026,
-1.16577,0.843811,
-1.17035,0.831604,
-1.17493,0.817871,
-1.18103,0.808716,
-1.18713,0.830078,
-1.19476,0.846863,
-1.20239,0.836182,
-1.2085,0.820923,
-1.21613,0.819397,
-1.22528,0.830078,
-1.23291,0.848389,
-1.24054,0.823975,
-1.24359,0.819397,
-1.25275,0.808716,
-1.26343,0.823975,
-1.27106,0.848389,
-1.28174,0.830078,
-1.29089,0.817871,
-1.29395,0.805664,
-1.29852,0.823975,
-1.30463,0.846863,
-1.31683,0.834656,
-1.32294,0.813293,
-1.32904,0.817871,
-1.33362,0.83313,
-1.33972,0.837708,
-1.33972,0.834656,
-1.3443,0.811768,
-1.34735,0.816345,
-1.35345,0.828552,
-1.35498,0.843811,
-1.35956,0.836182,
-1.36871,0.814819,
-1.37634,0.814819,
-1.37939,0.827026,
-1.3855,0.842285,
-1.39313,0.836182,
-1.39618,0.816345,
-1.40228,0.823975,
-1.40686,0.827026,
-1.41144,0.846863,
-1.41907,0.828552,
-1.42517,0.814819,
-1.43127,0.813293,
-1.43433,0.8255,
-1.44196,0.842285,
-1.44958,0.831604,
-1.45111,0.836182,
-1.45721,0.811768,
-1.4679,0.828552,
-1.47247,0.845337,
-1.48315,0.831604,
-1.48773,0.819397,
-1.49536,0.817871,
-1.50299,0.830078,
-1.50909,0.837708,
-1.51978,0.834656,
-1.52435,0.817871,
-1.53198,0.816345,
-1.53809,0.828552,
-1.54572,0.845337,
-1.55182,0.828552,
-1.55487,0.819397,
-1.56097,0.814819,
-1.5625,0.823975,
-1.56708,0.846863,
-1.57318,0.837708,
-1.57623,0.817871,
-1.58386,0.814819,
-1.58539,0.827026,
-1.59454,0.846863,
-1.60065,0.834656,
-1.60675,0.814819,
-1.61285,0.816345,
-1.61438,0.8255,
-1.62048,0.842285,
-1.62201,0.834656,
-1.63116,0.813293,
-1.63879,0.816345,
-1.6449,0.8255,
-1.651,0.842285,
-1.66168,0.840759,
-1.66473,0.820923,
-1.66931,0.808716,
-1.67236,0.814819,
-1.67999,0.839233,
-1.6922,0.834656,
-1.70135,0.808716,
-1.70746,0.811768,
-1.71661,0.8255,
-1.72424,0.840759,
-1.7334,0.834656,
-1.74408,0.823975,
-1.75018,0.813293,
-1.76086,0.823975,
-1.76849,0.846863,
-1.77612,0.834656,
-1.78833,0.813293,
-1.79291,0.816345,
-1.80817,0.827026,
-1.81274,0.843811,
-1.82037,0.836182,
-1.82495,0.816345,
-1.83716,0.816345,
-1.84479,0.823975,
-1.85089,0.840759,
-1.8631,0.830078,
-1.87378,0.813293,
-1.88446,0.816345,
-1.89362,0.827026,
-1.90125,0.845337,
-1.91193,0.834656,
-1.92108,0.814819,
-1.92871,0.816345,
-1.93787,0.819397,
-1.94702,0.842285,
-1.95313,0.831604,
-1.96075,0.816345,
-1.96075,0.814819,
-1.96381,0.827026,
-1.96381,0.846863,
-1.96075,0.834656,
-1.95618,0.816345,
-1.95007,0.820923,
-1.94397,0.816345,
-1.93176,0.845337,
-1.92108,0.830078,
-1.89972,0.817871,
-1.88141,0.817871,
-1.86615,0.827026,
-1.84937,0.845337,
-1.82495,0.830078,
-1.80511,0.811768,
-1.7807,0.816345,
-1.75781,0.823975,
-1.7334,0.843811,
-1.70593,0.840759,
-1.67999,0.819397,
-1.65253,0.817871,
-1.62506,0.8255,
-1.60217,0.843811,
-1.57776,0.831604,
-1.55182,0.816345,
-1.52893,0.814819,
-1.50452,0.823975,
-1.49078,0.846863,
-1.46637,0.834656,
-1.44653,0.817871,
-1.42517,0.810242,
-1.40686,0.8255,
-1.3855,0.845337,
-1.37177,0.849915,
-1.35956,0.814819,
-1.34735,0.816345,
-1.3382,0.827026,
-1.32751,0.845337,
-1.31836,0.828552,
-1.31073,0.820923,
-1.30005,0.816345,
-1.29395,0.823975,
-1.28937,0.845337,
-1.28479,0.831604,
-1.27563,0.817871,
-1.26801,0.816345,
-1.26343,0.827026,
-1.25885,0.837708,
-1.25427,0.831604,
-1.25122,0.820923,
-1.24664,0.813293,
-1.24207,0.823975,
-1.24207,0.843811,
-1.23901,0.831604,
-1.24054,0.816345,
-1.24359,0.817871,
-1.24359,0.827026,
-1.24817,0.843811,
-1.24817,0.828552,
-1.24817,0.817871,
-1.25122,0.814819,
-1.25122,0.8255,
-1.25427,0.842285,
-1.26038,0.828552,
-1.26038,0.817871,
-1.26648,0.816345,
-1.26801,0.820923,
-1.27258,0.845337,
-1.27563,0.83313,
-1.28174,0.816345,
-1.28174,0.817871,
-1.29089,0.8255,
-1.29547,0.843811,
-1.29547,0.83313,
-1.29547,0.813293,
-1.30005,0.816345,
-1.29852,0.823975,
-1.297,0.843811,
-1.30157,0.834656,
-1.30463,0.811768,
-1.3092,0.814819,
-1.30615,0.8255,
-1.31073,0.845337,
-1.31378,0.83313,
-1.31378,0.814819,
-1.31989,0.816345,
-1.31989,0.819397,
-1.32141,0.839233,
-1.32294,0.830078,
-1.31989,0.811768,
-1.31683,0.813293,
-1.31531,0.819397,
-1.31073,0.845337,
-1.31073,0.8255,
-1.30615,0.813293,
-1.30005,0.816345,
-1.297,0.8255,
-1.297,0.845337,
-1.29395,0.83313,
-1.29089,0.814819,
-1.29242,0.816345,
-1.28784,0.8255,
-1.28326,0.842285,
-1.28326,0.827026,
-1.28174,0.814819,
-1.28021,0.816345,
-1.27716,0.819397,
-1.28174,0.843811,
-1.28174,0.836182,
-1.28174,0.814819,
-1.28326,0.814819,
-1.28479,0.828552,
-1.28937,0.834656,
-1.29547,0.827026,
-1.297,0.813293,
-1.30005,0.817871,
-1.30157,0.820923,
-1.31073,0.843811,
-1.31378,0.831604,
-1.32446,0.819397,
-1.32904,0.813293,
-1.33972,0.819397,
-1.34888,0.842285,
-1.35651,0.827026,
-1.35803,0.817871,
-1.36719,0.813293,
-1.37634,0.828552,
-1.3855,0.842285,
-1.38855,0.830078,
-1.39923,0.816345,
-1.40228,0.808716,
-1.41296,0.823975,
-1.42517,0.845337,
-1.43738,0.8255,
-1.44348,0.820923,
-1.45416,0.814819,
-1.45874,0.8255,
-1.46637,0.839233,
-1.47552,0.816345,
-1.48315,0.802612,
-1.49078,0.810242,
-1.50757,0.823975,
-1.51367,0.842285,
-1.52283,0.831604,
-1.5274,0.820923,
-1.53809,0.813293,
-1.54724,0.8255,
-1.55487,0.842285,
-1.5625,0.831604,
-1.57166,0.820923,
-1.57471,0.817871,
-1.58386,0.823975,
-1.58997,0.843811,
-1.59912,0.8255,
-1.6098,0.814819,
-1.61285,0.816345,
-1.61896,0.823975,
-1.62201,0.842285,
-1.62811,0.831604,
-1.63269,0.814819,
-1.64185,0.831604,
-1.651,0.80719,
-1.66016,0.839233,
-1.66321,0.827026,
-1.67084,0.817871,
-1.68304,0.819397,
-1.68915,0.814819,
-1.69678,0.843811,
-1.70288,0.83313,
-1.71509,0.813293,
-1.72119,0.814819,
-1.72882,0.8255,
-1.73798,0.849915,
-1.74408,0.8255,
-1.74866,0.817871,
-1.75476,0.813293,
-1.75934,0.819397,
-1.76239,0.840759,
-1.76392,0.828552,
-1.77002,0.819397,
-1.77307,0.819397,
-1.7807,0.8255,
-1.78528,0.839233,
-1.79291,0.834656,
-1.79596,0.817871,
-1.80511,0.816345,
-1.81274,0.8255,
-1.81732,0.840759,
-1.8219,0.830078,
-1.83105,0.811768,
-1.83563,0.813293,
-1.83868,0.8255,
-1.84631,0.839233,
-1.85242,0.831604,
-1.8631,0.80719,
-1.8631,0.811768,
-1.87073,0.828552,
-1.87225,0.842285,
-1.88293,0.830078,
-1.88904,0.816345,
-1.89056,0.811768,
-1.89362,0.843811,
-1.89819,0.837708,
-1.90125,0.831604,
-1.90735,0.817871,
-1.91193,0.808716,
-1.91956,0.823975,
-1.92719,0.839233,
-1.93939,0.831604,
-1.95313,0.814819,
-1.95618,0.817871,
-1.96533,0.8255,
-1.97144,0.842285,
-1.97906,0.830078,
-1.98517,0.817871,
-1.98975,0.810242,
-1.99585,0.805664,
-2.005,0.848389,
-2.01111,0.828552,
-2.02179,0.814819,
-2.02789,0.813293,
-2.03552,0.823975,
-2.04315,0.845337,
-2.04773,0.843811,
-2.05688,0.819397,
-2.06451,0.817871,
-2.07214,0.823975,
-2.08435,0.842285,
-2.09503,0.828552,
-2.09961,0.813293,
-2.10266,0.814819,
-2.11029,0.817871,
-2.12097,0.840759,
-2.13165,0.830078,
-2.14081,0.811768,
-2.14996,0.814819,
-2.15607,0.816345,
-2.1698,0.842285,
-2.18201,0.831604,
-2.19269,0.814819,
-2.20184,0.813293,
-2.21252,0.823975,
-2.21863,0.840759,
-2.22626,0.827026,
-2.23083,0.813293,
-2.23999,0.811768,
-2.25067,0.8255,
-2.25983,0.839233,
-2.27051,0.830078,
-2.27966,0.814819,
-2.28577,0.819397,
-2.2934,0.828552,
-2.30713,0.840759,
-2.31323,0.831604,
-2.31781,0.811768,
-2.32697,0.813293,
-2.33307,0.823975,
-2.33459,0.840759,
-2.33917,0.828552,
-2.33917,0.813293,
-2.33612,0.811768,
-2.33459,0.816345,
-2.33307,0.845337,
-2.32544,0.827026,
-2.31628,0.811768,
-2.3056,0.817871,
-2.29187,0.819397,
-2.27661,0.840759,
-2.25677,0.830078,
-2.23236,0.814819,
-2.211,0.816345,
-2.19116,0.814819,
-2.16522,0.842285,
-2.13776,0.827026,
-2.11334,0.816345,
-2.08282,0.814819,
-2.05536,0.817871,
-2.02026,0.840759,
-1.98975,0.831604,
-1.96075,0.814819,
-1.93176,0.811768,
-1.90582,0.820923,
-1.87988,0.842285,
-1.85394,0.817871,
-1.83411,0.816345,
-1.80817,0.813293,
-1.78223,0.817871,
-1.76086,0.837708,
-1.73798,0.830078,
-1.71051,0.811768,
-1.68915,0.814819,
