-1.48468,0.642395,
-1.37634,0.637817,
-1.2619,0.643921,
-1.15204,0.650024,
-1.03912,0.650024,
-0.932312,0.642395,
-0.8255,0.637817,
-0.720215,0.637817,
-0.619507,0.648499,
-0.531006,0.653076,
-0.444031,0.643921,
-0.358582,0.639343,
-0.279236,0.639343,
-0.209045,0.650024,
-0.141907,0.648499,
-0.0808716,0.639343,
-0.0320435,0.637817,
0.0198364,0.639343,
0.0671387,0.650024,
0.100708,0.65155,
0.128174,0.640869,
0.151062,0.636292,
0.170898,0.639343,
0.186157,0.648499,
0.190735,0.645447,
0.192261,0.640869,
0.195313,0.636292,
0.193787,0.639343,
0.184631,0.645447,
0.172424,0.650024,
0.157166,0.640869,
0.143433,0.637817,
0.125122,0.639343,
0.105286,0.650024,
0.088501,0.645447,
0.0671387,0.637817,
0.0366211,0.634766,
0.0137329,0.642395,
-0.0152588,0.650024,
-0.0488281,0.650024,
-0.0778198,0.642395,
-0.111389,0.63324,
-0.140381,0.634766,
-0.180054,0.650024,
-0.210571,0.645447,
-0.245667,0.642395,
-0.279236,0.637817,
-0.315857,0.637817,
-0.346375,0.648499,
-0.387573,0.643921,
-0.418091,0.640869,
-0.45166,0.640869,
-0.480652,0.639343,
-0.506592,0.653076,
-0.534058,0.650024,
-0.559998,0.643921,
-0.579834,0.63324,
-0.605774,0.637817,
-0.622559,0.653076,
-0.637817,0.650024,
-0.657654,0.645447,
-0.672913,0.637817,
-0.682068,0.639343,
-0.688171,0.645447,
-0.694275,0.648499,
-0.70343,0.648499,
-0.706482,0.63324,
-0.708008,0.637817,
-0.704956,0.650024,
-0.706482,0.648499,
-0.694275,0.637817,
-0.686646,0.637817,
-0.67749,0.634766,
-0.666809,0.648499,
-0.653076,0.648499,
-0.637817,0.642395,
-0.630188,0.640869,
-0.614929,0.63324,
-0.604248,0.648499,
-0.588989,0.648499,
-0.572205,0.640869,
-0.559998,0.637817,
-0.546265,0.634766,
-0.535583,0.653076,
-0.526428,0.640869,
-0.517273,0.639343,
-0.511169,0.636292,
-0.505066,0.63324,
-0.502014,0.65155,
-0.498962,0.650024,
-0.500488,0.645447,
-0.502014,0.637817,
-0.50354,0.637817,
-0.509644,0.648499,
-0.520325,0.648499,
-0.531006,0.639343,
-0.540161,0.634766,
-0.549316,0.643921,
-0.558472,0.634766,
-0.569153,0.653076,
-0.584412,0.634766,
-0.59967,0.636292,
-0.614929,0.642395,
-0.63324,0.648499,
-0.654602,0.653076,
-0.674438,0.639343,
-0.691223,0.634766,
-0.714111,0.637817,
-0.730896,0.65155,
-0.756836,0.653076,
-0.778198,0.643921,
-0.798035,0.637817,
-0.816345,0.634766,
-0.836182,0.642395,
-0.85907,0.653076,
-0.880432,0.639343,
-0.906372,0.637817,
-0.927734,0.639343,
-0.950623,0.65155,
-0.973511,0.65155,
-0.997925,0.642395,
-1.02081,0.637817,
-1.04675,0.636292,
-1.06964,0.65155,
-1.09253,0.65155,
-1.12152,0.639343,
-1.14441,0.636292,
-1.1673,0.637817,
-1.18866,0.650024,
-1.2085,0.643921,
-1.23444,0.650024,
-1.25885,0.639343,
-1.28326,0.640869,
-1.30157,0.65155,
-1.32294,0.643921,
-1.34125,0.643921,
-1.36261,0.630188,
-1.38702,0.640869,
-1.40686,0.650024,
-1.4267,0.65155,
-1.44348,0.643921,
-1.46484,0.63324,
-1.48621,0.634766,
-1.50452,0.643921,
-1.5213,0.65155,
-1.54266,0.642395,
-1.5564,0.636292,
-1.57471,0.639343,
-1.58844,0.65155,
-1.61133,0.65155,
-1.62964,0.639343,
-1.64337,0.634766,
-1.66168,0.642395,
-1.67847,0.650024,
-1.69373,0.653076,
-1.70746,0.648499,
-1.72119,0.637817,
-1.73645,0.639343,
-1.74866,0.650024,
-1.76086,0.654602,
-1.77307,0.645447,
-1.7868,0.631714,
-1.79596,0.642395,
-1.80817,0.650024,
-1.81732,0.65918,
-1.828,0.648499,
-1.83411,0.631714,
-1.84784,0.637817,
-1.85547,0.645447,
-1.86462,0.654602,
-1.87225,0.643921,
-1.88293,0.634766,
-1.89514,0.640869,
-1.90735,0.65155,
-1.92108,0.648499,
-1.92719,0.648499,
-1.94092,0.639343,
-1.95923,0.639343,
-1.97144,0.648499,
-1.98212,0.650024,
-1.99432,0.639343,
-2.00806,0.636292,
-2.01874,0.637817,
-2.03094,0.648499,
-2.04315,0.653076,
-2.05383,0.648499,
-2.06451,0.636292,
-2.07977,0.637817,
-2.09198,0.650024,
-2.10571,0.65155,
-2.11792,0.642395,
-2.1286,0.640869,
-2.14081,0.639343,
-2.14996,0.645447,
-2.16064,0.654602,
-2.17285,0.645447,
-2.18658,0.639343,
-2.19879,0.639343,
-2.211,0.650024,
-2.23236,0.653076,
-2.24762,0.639343,
-2.2583,0.636292,
-2.27203,0.637817,
-2.28271,0.643921,
-2.30103,0.656128,
-2.31781,0.645447,
-2.33917,0.639343,
-2.35138,0.639343,
-2.36664,0.648499,
-2.38037,0.656128,
-2.39258,0.645447,
-2.40631,0.634766,
-2.42462,0.639343,
-2.43683,0.642395,
-2.45209,0.656128,
-2.47192,0.645447,
-2.48566,0.637817,
-2.50397,0.642395,
-2.52075,0.645447,
-2.53601,0.650024,
-2.5528,0.642395,
-2.56653,0.636292,
-2.58331,0.636292,
-2.6001,0.642395,
-2.61688,0.653076,
-2.63519,0.648499,
-2.6535,0.637817,
-2.66418,0.640869,
-2.67944,0.643921,
-2.69318,0.656128,
-2.70844,0.639343,
-2.72827,0.637817,
-2.74048,0.63324,
-2.75574,0.648499,
-2.77557,0.653076,
-2.79083,0.648499,
-2.80304,0.636292,
-2.81525,0.640869,
-2.82288,0.650024,
-2.82745,0.654602,
-2.82593,0.642395,
-2.8244,0.636292,
-2.81525,0.642395,
-2.79846,0.645447,
-2.77405,0.653076,
-2.74811,0.645447,
-2.70996,0.63324,
-2.66724,0.642395,
-2.61841,0.654602,
-2.56042,0.65918,
-2.49176,0.645447,
-2.41699,0.636292,
-2.33307,0.642395,
-2.24762,0.648499,
-2.15454,0.653076,
-2.05383,0.645447,
-1.95007,0.636292,
-1.84784,0.640869,
-1.7334,0.654602,
-1.61896,0.650024,
-1.50604,0.634766,
-1.3916,0.637817,
-1.27411,0.640869,
-1.16425,0.653076,
-1.05438,0.650024,
-0.946045,0.639343,
-0.840759,0.65155,
-0.741577,0.637817,
-0.646973,0.645447,
-0.556946,0.650024,
-0.469971,0.645447,
-0.392151,0.639343,
-0.32196,0.634766,
-0.256348,0.650024,
-0.201416,0.650024,
-0.154114,0.643921,
-0.105286,0.639343,
-0.0656128,0.639343,
-0.0320435,0.65155,
-0.00610352,0.65155,
0.0213623,0.643921,
0.0366211,0.637817,
0.0442505,0.640869,
0.0534058,0.654602,
0.0534058,0.657654,
0.0534058,0.645447,
0.0457764,0.637817,
0.0396729,0.639343,
0.0259399,0.650024,
0.012207,0.653076,
-0.00457764,0.639343,
-0.0198364,0.636292,
-0.0411987,0.636292,
-0.0640869,0.648499,
-0.0854492,0.657654,
-0.112915,0.645447,
-0.135803,0.639343,
-0.169373,0.642395,
-0.198364,0.653076,
-0.230408,0.656128,
-0.263977,0.643921,
-0.300598,0.639343,
-0.332642,0.639343,
-0.369263,0.645447,
-0.410461,0.656128,
-0.444031,0.640869,
-0.479126,0.639343,
-0.515747,0.640869,
-0.550842,0.65155,
-0.587463,0.656128,
-0.621033,0.648499,
-0.654602,0.640869,
-0.686646,0.639343,
-0.715637,0.645447,
-0.743103,0.657654,
-0.769043,0.639343,
-0.788879,0.628662,
-0.805664,0.640869,
-0.8255,0.650024,
-0.840759,0.656128,
-0.857544,0.642395,
-0.865173,0.639343,
-0.875854,0.637817,
-0.878906,0.650024,
-0.880432,0.657654,
-0.883484,0.645447,
-0.87738,0.636292,
-0.875854,0.637817,
-0.866699,0.643921,
-0.857544,0.654602,
-0.852966,0.643921,
-0.843811,0.636292,
-0.830078,0.643921,
-0.817871,0.65155,
-0.804138,0.654602,
-0.791931,0.645447,
-0.778198,0.637817,
-0.765991,0.640869,
-0.752258,0.645447,
-0.738525,0.653076,
-0.730896,0.643921,
-0.718689,0.637817,
-0.714111,0.639343,
-0.704956,0.650024,
-0.698853,0.654602,
-0.694275,0.648499,
-0.686646,0.639343,
-0.682068,0.639343,
-0.680542,0.650024,
-0.683594,0.65155,
-0.68512,0.643921,
-0.691223,0.637817,
-0.700378,0.640869,
-0.704956,0.650024,
-0.717163,0.650024,
-0.727844,0.643921,
-0.741577,0.643921,
-0.759888,0.642395,
-0.770569,0.650024,
-0.790405,0.656128,
-0.804138,0.645447,
-0.827026,0.639343,
-0.845337,0.640869,
-0.857544,0.645447,
-0.87738,0.640869,
-0.891113,0.642395,
-0.917053,0.640869,
-0.933838,0.636292,
-0.953674,0.645447,
-0.978088,0.656128,
-0.997925,0.643921,
-1.01471,0.642395,
-1.04065,0.642395,
-1.06354,0.648499,
-1.08795,0.653076,
-1.11542,0.642395,
-1.13678,0.639343,
-1.15967,0.637817,
-1.18561,0.648499,
-1.2146,0.65155,
-1.23901,0.639343,
-1.26495,0.640869,
-1.28784,0.642395,
-1.31226,0.648499,
-1.3382,0.654602,
-1.36719,0.645447,
-1.38702,0.637817,
-1.41144,0.640869,
-1.43433,0.645447,
-1.45111,0.654602,
-1.474,0.640869,
-1.49536,0.634766,
-1.5152,0.642395,
-1.53656,0.643921,
-1.56097,0.657654,
-1.58386,0.643921,
-1.60675,0.637817,
-1.62811,0.642395,
-1.64642,0.639343,
-1.66626,0.657654,
-1.6861,0.645447,
-1.70441,0.639343,
-1.72729,0.643921,
-1.74103,0.645447,
-1.75629,0.654602,
-1.77917,0.642395,
-1.79749,0.637817,
-1.81122,0.640869,
-1.82495,0.650024,
-1.84326,0.653076,
-1.85699,0.648499,
-1.87531,0.639343,
-1.88446,0.643921,
-1.89514,0.65155,
-1.90582,0.654602,
-1.91956,0.648499,
-1.93024,0.640869,
-1.94397,0.636292,
-1.95618,0.648499,
-1.96381,0.654602,
-1.98364,0.645447,
-1.99432,0.640869,
-2.01111,0.640869,
-2.02179,0.640869,
-2.034,0.672913,
-2.04926,0.645447,
-2.05841,0.645447,
-2.06909,0.640869,
-2.07977,0.650024,
-2.08893,0.653076,
-2.10571,0.650024,
-2.11792,0.642395,
-2.13165,0.639343,
-2.14386,0.642395,
-2.15302,0.656128,
-2.16827,0.65155,
-2.17438,0.642395,
-2.18506,0.642395,
-2.19421,0.645447,
-2.20337,0.656128,
-2.21405,0.650024,
-2.22778,0.642395,
-2.23846,0.639343,
-2.24915,0.648499,
-2.25983,0.657654,
-2.27509,0.645447,
-2.28729,0.640869,
-2.2995,0.640869,
-2.30865,0.648499,
-2.32086,0.65918,
-2.33765,0.645447,
-2.34985,0.639343,
-2.36664,0.640869,
-2.37732,0.645447,
-2.39563,0.653076,
-2.40631,0.648499,
-2.4292,0.637817,
-2.44141,0.642395,
-2.45514,0.643921,
-2.46582,0.657654,
-2.48566,0.648499,
-2.50244,0.640869,
-2.5177,0.642395,
-2.53448,0.65155,
-2.5528,0.65918,
-2.56805,0.648499,
-2.58331,0.639343,
-2.60162,0.640869,
-2.61536,0.642395,
-2.63214,0.654602,
-2.6474,0.65155,
-2.66418,0.640869,
-2.6825,0.639343,
-2.69623,0.648499,
-2.71606,0.654602,
-2.73132,0.648499,
-2.74811,0.643921,
-2.76947,0.643921,
-2.78168,0.653076,
-2.80151,0.653076,
-2.82288,0.648499,
-2.83356,0.643921,
-2.85187,0.642395,
-2.8656,0.65155,
-2.88391,0.654602,
-2.89917,0.645447,
-2.91748,0.639343,
-2.92816,0.642395,
-2.94647,0.648499,
-2.96021,0.653076,
-2.98004,0.65155,
-2.99683,0.639343,
-3.01514,0.642395,
-3.03192,0.653076,
-3.05176,0.65155,
-3.06702,0.640869,
-3.08685,0.642395,
-3.09906,0.639343,
-3.11432,0.65155,
-3.12805,0.654602,
-3.14484,0.645447,
-3.1601,0.639343,
-3.1723,0.640869,
-3.18451,0.648499,
-3.19977,0.653076,
-3.20892,0.643921,
-3.21808,0.640869,
-3.23029,0.639343,
-3.24249,0.645447,
-3.2486,0.654602,
-3.2547,0.645447,
-3.25775,0.639343,
-3.25317,0.640869,
-3.24097,0.645447,
-3.22418,0.653076,
-3.19672,0.65155,
-3.16772,0.643921,
-3.125,0.642395,
-3.07159,0.65155,
-3.01514,0.654602,
-2.9541,0.650024,
-2.88391,0.639343,
-2.80457,0.640869,
-2.72064,0.648499,
-2.63062,0.65155,
-2.53296,0.650024,
-2.4292,0.634766,
-2.32239,0.642395,
-2.21252,0.648499,
-2.10266,0.654602,
-1.98669,0.650024,
-1.8692,0.636292,
-1.75476,0.642395,
-1.64337,0.65155,
-1.52588,0.65155,
-1.41296,0.65155,
-1.30463,0.637817,
-1.20239,0.639343,
-1.10474,0.650024,
-1.00708,0.650024,
-0.920105,0.65155,
-0.837708,0.643921,
-0.762939,0.640869,
-0.692749,0.653076,
-0.630188,0.656128,
-0.575256,0.65155,
-0.521851,0.63324,
-0.4776,0.640869,
-0.440979,0.653076,
-0.408936,0.653076,
-0.379944,0.650024,
-0.358582,0.640869,
-0.341797,0.640869,
-0.328064,0.648499,
-0.326538,0.654602,
-0.325012,0.65155,
-0.32196,0.642395,
-0.328064,0.645447,
-0.335693,0.653076,
-0.343323,0.654602,
-0.358582,0.648499,
-0.375366,0.643921,
-0.393677,0.639343,
-0.411987,0.648499,
-0.430298,0.654602,
-0.453186,0.650024,
-0.4776,0.637817,
-0.502014,0.642395,
-0.52948,0.650024,
-0.55542,0.657654,
-0.584412,0.654602,
-0.619507,0.637817,
-0.656128,0.643921,
-0.689697,0.650024,
-0.720215,0.656128,
-0.750732,0.648499,
-0.785828,0.640869,
-0.822449,0.642395,
-0.856018,0.645447,
-0.889587,0.656128,
-0.923157,0.650024,
-0.959778,0.636292,
-0.990295,0.645447,
-1.02081,0.653076,
-1.0498,0.653076,
-1.07574,0.656128,
-1.10016,0.639343,
-1.12457,0.643921,
-1.14288,0.648499,
-1.15967,0.656128,
-1.1795,0.650024,
-1.19476,0.639343,
-1.20087,0.640869,
-1.20544,0.650024,
-1.2085,0.653076,
-1.21155,0.650024,
-1.20087,0.642395,
-1.20392,0.642395,
-1.19934,0.648499,
-1.19476,0.656128,
-1.18256,0.650024,
-1.17645,0.643921,
-1.17035,0.642395,
-1.15662,0.650024,
-1.14441,0.654602,
-1.12915,0.650024,
-1.11847,0.642395,
-1.10474,0.639343,
-1.08948,0.65155,
-1.07574,0.654602,
-1.06354,0.65155,
-1.05286,0.642395,
-1.03607,0.642395,
-1.02386,0.650024,
-1.01166,0.657654,
-0.996399,0.650024,
-0.993347,0.642395,
-0.984192,0.643921,
-0.98114,0.65155,
-0.976563,0.656128,
-0.976563,0.653076,
-0.975037,0.640869,
-0.975037,0.630188,
-0.979614,0.645447,
-0.985718,0.656128,
-0.991821,0.645447,
-0.997925,0.640869,
-1.00555,0.640869,
-1.01471,0.654602,
-1.02844,0.657654,
-1.0498,0.665283,
-1.06506,0.645447,
-1.0849,0.642395,
-1.10016,0.650024,
-1.11847,0.654602,
-1.14288,0.648499,
-1.16577,0.642395,
-1.18408,0.642395,
-1.2085,0.654602,
-1.22986,0.654602,
-1.24817,0.653076,
-1.26953,0.640869,
-1.28937,0.645447,
-1.31226,0.65155,
-1.33972,0.653076,
-1.36414,0.650024,
-1.38397,0.643921,
-1.40839,0.640869,
-1.42975,0.653076,
-1.44806,0.656128,
-1.47552,0.654602,
-1.49841,0.643921,
-1.51978,0.642395,
-1.54114,0.653076,
-1.5625,0.656128,
-1.58844,0.653076,
-1.6098,0.642395,
-1.63269,0.643921,
-1.651,0.656128,
-1.67847,0.65918,
-1.6983,0.65155,
-1.72272,0.634766,
-1.7395,0.643921,
-1.76544,0.650024,
-1.78223,0.656128,
-1.80359,0.65155,
-1.82343,0.645447,
-1.84631,0.642395,
-1.86462,0.668335,
-1.88293,0.65918,
-1.90582,0.654602,
-1.92566,0.637817,
-1.94244,0.642395,
-1.96075,0.654602,
-1.97906,0.656128,
-1.99432,0.654602,
-2.01111,0.643921,
-2.02637,0.642395,
-2.04163,0.656128,
-2.05536,0.657654,
-2.06909,0.654602,
-2.08435,0.645447,
-2.09808,0.642395,
-2.10876,0.65155,
-2.1225,0.671387,
-2.13318,0.653076,
-2.14691,0.643921,
-2.1637,0.648499,
-2.17438,0.65918,
-2.18658,0.657654,
-2.20032,0.65155,
-2.21558,0.639343,
-2.22626,0.645447,
-2.23999,0.654602,
-2.25372,0.660706,
-2.2644,0.653076,
-2.27509,0.648499,
-2.28577,0.643921,
-2.30103,0.65155,
-2.31476,0.657654,
-2.33307,0.65155,
-2.34528,0.645447,
-2.36053,0.642395,
-2.37274,0.650024,
-2.388,0.660706,
-2.40021,0.656128,
-2.40936,0.645447,
-2.42157,0.643921,
-2.43225,0.656128,
-2.44904,0.660706,
-2.46277,0.656128,
-2.47345,0.648499,
-2.4826,0.643921,
-2.49329,0.656128,
-2.49939,0.662231,
-2.50854,0.656128,
-2.52075,0.643921,
-2.53448,0.643921,
-2.54364,0.656128,
-2.55737,0.656128,
-2.56653,0.653076,
-2.57568,0.645447,
-2.58942,0.643921,
-2.60162,0.656128,
-2.61536,0.663757,
-2.62756,0.653076,
-2.63977,0.650024,
-2.6535,0.65155,
-2.66418,0.657654,
-2.68097,0.662231,
-2.69623,0.654602,
-2.70996,0.648499,
-2.72675,0.643921,
-2.742,0.650024,
-2.75726,0.660706,
-2.771,0.650024,
-2.78931,0.650024,
-2.80914,0.645447,
-2.82288,0.656128,
-2.83813,0.663757,
-2.8595,0.662231,
-2.8717,0.645447,
-2.88696,0.645447,
-2.89917,0.656128,
-2.91595,0.65918,
-2.92969,0.65155,
-2.948,0.648499,
-2.96631,0.645447,
-2.98309,0.65155,
-3.0014,0.663757,
-3.02124,0.656128,
-3.0365,0.650024,
-3.05939,0.650024,
-3.08075,0.654602,
-3.09906,0.663757,
-3.11127,0.653076,
-3.13263,0.642395,
-3.14789,0.645447,
-3.16925,0.654602,
-3.18756,0.663757,
-3.20587,0.653076,
-3.22571,0.648499,
-3.24554,0.645447,
-3.2608,0.654602,
-3.27606,0.665283,
-3.2959,0.654602,
-3.31421,0.648499,
-3.32947,0.648499,
-3.3493,0.657654,
-3.36304,0.663757,
-3.3783,0.657654,
-3.39661,0.645447,
-3.41187,0.643921,
-3.43018,0.657654,
-3.44238,0.660706,
-3.45459,0.656128,
-3.4729,0.65155,
-3.48969,0.648499,
-3.49884,0.653076,
-3.51715,0.666809,
-3.52936,0.656128,
-3.53699,0.65155,
-3.54919,0.653076,
-3.56293,0.657654,
-3.56598,0.666809,
-3.57056,0.654602,
-3.57056,0.648499,
-3.55835,0.650024,
-3.54462,0.657654,
-3.52478,0.666809,
-3.49579,0.653076,
-3.46527,0.65155,
-3.41797,0.650024,
-3.37372,0.657654,
-3.31879,0.665283,
-3.25928,0.654602,
-3.19824,0.65155,
-3.12195,0.645447,
-3.04108,0.65918,
-2.95715,0.666809,
-2.87018,0.657654,
-2.77557,0.65155,
-2.67792,0.650024,
-2.57721,0.653076,
-2.47498,0.680542,
-2.37122,0.639343,
-2.26746,0.650024,
-2.1637,0.650024,
-2.05841,0.656128,
-1.96228,0.665283,
-1.86768,0.657654,
-1.77612,0.656128,
-1.68762,0.65155,
-1.6037,0.656128,
-1.52435,0.657654,
-1.45111,0.65918,
-1.38397,0.648499,
-1.32599,0.645447,
-1.27258,0.65918,
-1.22681,0.671387,
-1.18408,0.665283,
-1.14746,0.65155,
-1.12152,0.648499,
-1.09253,0.660706,
-1.06812,0.663757,
-1.0498,0.660706,
-1.03455,0.650024,
-1.03149,0.650024,
-1.02234,0.657654,
-1.02539,0.662231,
-1.03149,0.657654,
-1.03607,0.650024,
-1.04675,0.650024,
-1.06201,0.656128,
-1.07727,0.657654,
-1.09863,0.656128,
-1.11694,0.65155,
-1.14441,0.65155,
-1.15967,0.65918,
-1.18561,0.663757,
-1.21155,0.657654,
-1.23444,0.65155,
-1.26038,0.650024,
-1.28479,0.657654,
-1.3092,0.665283,
-1.33514,0.656128,
-1.36414,0.650024,
-1.39618,0.650024,
-1.4267,0.657654,
-1.45721,0.665283,
-1.49078,0.65918,
-1.52283,0.654602,
-1.5564,0.650024,
-1.58844,0.65918,
-1.62811,0.665283,
-1.6571,0.657654,
-1.69067,0.648499,
-1.71661,0.650024,
-1.74713,0.653076,
-1.76697,0.662231,
-1.78833,0.662231,
-1.81274,0.65155,
-1.83258,0.650024,
-1.84631,0.662231,
-1.86005,0.65918,
-1.87378,0.668335,
-1.88141,0.65155,
-1.89056,0.650024,
-1.90277,0.657654,
-1.90735,0.660706,
-1.9104,0.662231,
-1.91193,0.648499,
-1.91345,0.645447,
-1.91498,0.657654,
-1.9104,0.663757,
-1.90277,0.662231,
-1.89819,0.656128,
-1.89362,0.650024,
-1.87988,0.662231,
-1.87683,0.665283,
-1.86462,0.662231,
-1.85089,0.654602,
-1.84174,0.653076,
-1.82648,0.662231,
-1.81885,0.660706,
-1.80817,0.660706,
-1.79749,0.648499,
-1.78833,0.650024,
-1.7746,0.65918,
-1.76544,0.665283,
-1.75629,0.662231,
-1.75323,0.653076,
-1.75323,0.65155,
-1.75323,0.657654,
-1.75323,0.666809,
-1.76086,0.662231,
-1.76239,0.650024,
-1.76849,0.653076,
-1.7746,0.656128,
-1.78223,0.665283,
-1.79443,0.657654,
-1.80664,0.648499,
-1.81732,0.65155,
-1.828,0.657654,
-1.84631,0.663757,
-1.86005,0.668335,
-1.87378,0.653076,
-1.88904,0.654602,
-1.90887,0.662231,
-1.92719,0.665283,
-1.94702,0.665283,
-1.96991,0.653076,
-1.98975,0.656128,
-2.00958,0.654602,
-2.03094,0.662231,
-2.05231,0.679016,
-2.0752,0.648499,
-2.09503,0.654602,
-2.11639,0.65918,
-2.13776,0.663757,
-2.16217,0.662231,
-2.18658,0.656128,
-2.20795,0.654602,
-2.23694,0.65918,
-2.25372,0.657654,
-2.27509,0.663757,
-2.30103,0.648499,
-2.32239,0.654602,
-2.34222,0.657654,
-2.36816,0.663757,
-2.39563,0.665283,
-2.41699,0.654602,
-2.43835,0.654602,
-2.46124,0.65918,
-2.48413,0.662231,
-2.50397,0.65918,
-2.51923,0.648499,
-2.53906,0.665283,
-2.5528,0.65155,
-2.57111,0.663757,
-2.59399,0.665283,
-2.6123,0.656128,
-2.63062,0.65155,
-2.64893,0.65918,
-2.66113,0.665283,
-2.68097,0.660706,
-2.69775,0.656128,
-2.71759,0.656128,
-2.7359,0.653076,
-2.75116,0.665283,
-2.76489,0.65918,
-2.78015,0.656128,
-2.79541,0.654602,
-2.81067,0.65918,
-2.82745,0.663757,
-2.84271,0.663757,
-2.8595,0.65155,
-2.8717,0.65155,
-2.88849,0.654602,
-2.90527,0.665283,
-2.91748,0.663757,
-2.93121,0.653076,
-2.94495,0.65918,
-2.95868,0.662231,
-2.97241,0.665283,
-2.98767,0.666809,
-3.00598,0.656128,
-3.02124,0.656128,
-3.0365,0.65918,
-3.05176,0.668335,
-3.06702,0.680542,
-3.08075,0.653076,
-3.09601,0.653076,
-3.11279,0.65918,
-3.125,0.662231,
-3.14026,0.666809,
-3.15399,0.653076,
-3.1662,0.656128,
-3.17688,0.65918,
-3.19061,0.665283,
-3.20282,0.663757,
-3.2135,0.653076,
-3.23029,0.653076,
-3.24249,0.65918,
-3.2547,0.668335,
-3.26385,0.662231,
-3.27759,0.65155,
-3.29285,0.654602,
-3.30658,0.656128,
-3.31726,0.665283,
-3.32947,0.663757,
-3.3371,0.654602,
-3.3493,0.650024,
-3.36151,0.660706,
-3.37219,0.668335,
-3.38287,0.679016,
-3.39355,0.654602,
-3.40424,0.648499,
-3.41797,0.65918,
-3.4317,0.666809,
-3.44391,0.660706,
-3.45764,0.654602,
-3.46985,0.654602,
-3.48358,0.656128,
-3.49426,0.668335,
-3.508,0.668335,
-3.5202,0.65155,
-3.52936,0.654602,
-3.54462,0.657654,
-3.5553,0.666809,
-3.56598,0.663757,
-3.57971,0.654602,
-3.5965,0.654602,
-3.60413,0.654602,
-3.61786,0.665283,
-3.63159,0.663757,
-3.64685,0.650024,
-3.66211,0.654602,
-3.67737,0.65918,
-3.69568,0.665283,
-3.70789,0.663757,
-3.72162,0.654602,
-3.72925,0.656128,
-3.74756,0.656128,
-3.75977,0.665283,
-3.77197,0.669861,
-3.78418,0.654602,
-3.79639,0.650024,
-3.80859,0.657654,
-3.82233,0.65918,
-3.83759,0.668335,
-3.85284,0.654602,
-3.86353,0.65155,
-3.87726,0.657654,
-3.88947,0.663757,
-3.9032,0.660706,
-3.91388,0.654602,
-3.92914,0.654602,
-3.93829,0.653076,
-3.95508,0.666809,
-3.96729,0.663757,
-3.98865,0.650024,
-3.99933,0.653076,
-4.01611,0.65155,
-4.02985,0.665283,
-4.04205,0.660706,
-4.06189,0.656128,
-4.07562,0.654602,
-4.0863,0.660706,
-4.10004,0.666809,
-4.11377,0.663757,
-4.12445,0.656128,
-4.13818,0.650024,
-4.15039,0.65918,
-4.1626,0.666809,
-4.1748,0.665283,
-4.18701,0.653076,
-4.19464,0.653076,
-4.2038,0.656128,
-4.21143,0.665283,
-4.216,0.665283,
-4.21143,0.657654,
-4.20532,0.653076,
-4.19617,0.657654,
-4.18549,0.665283,
-4.16107,0.666809,
-4.13513,0.654602,
-4.10461,0.653076,
-4.06799,0.65918,
-4.02069,0.663757,
-3.96729,0.666809,
-3.90625,0.65155,
-3.84521,0.650024,
-3.77808,0.660706,
-3.70026,0.662231,
-3.61938,0.663757,
-3.53699,0.657654,
-3.45154,0.650024,
-3.36151,0.660706,
-3.27301,0.665283,
-3.17688,0.660706,
-3.08228,0.656128,
-2.98309,0.653076,
-2.88696,0.65918,
-2.79388,0.662231,
-2.70538,0.663757,
-2.61688,0.654602,
-2.53296,0.645447,
-2.45514,0.660706,
-2.37427,0.663757,
-2.3056,0.660706,
-2.23389,0.654602,
-2.16522,0.653076,
-2.10724,0.657654,
-2.0462,0.665283,
-1.99738,0.653076,
-1.95465,0.645447,
-1.91345,0.65155,
-1.88446,0.65918,
-1.85394,0.666809,
-1.83105,0.665283,
-1.81122,0.65155,
-1.80206,0.645447,
-1.79138,0.650024,
-1.7868,0.663757,
-1.78528,0.665283,
-1.7868,0.648499,
-1.78986,0.654602,
-1.79291,0.660706,
-1.80664,0.665283,
-1.8158,0.662231,
-1.83258,0.656128,
-1.84784,0.654602,
-1.86462,0.657654,
-1.88446,0.660706,
-1.90582,0.662231,
-1.92413,0.650024,
-1.94702,0.650024,
-1.96838,0.657654,
-1.99738,0.665283,
-2.01721,0.65918,
-2.0401,0.654602,
-2.06604,0.650024,
-2.09198,0.65918,
-2.11639,0.666809,
-2.13776,0.663757,
-2.16675,0.654602,
-2.19116,0.654602,
-2.21863,0.662231,
-2.24915,0.660706,
-2.27661,0.666809,
-2.30255,0.656128,
-2.32849,0.643921,
-2.34985,0.65918,
-2.37122,0.665283,
-2.39563,0.662231,
-2.41547,0.653076,
-2.43683,0.648499,
-2.45361,0.657654,
-2.47345,0.666809,
-2.48718,0.662231,
-2.50244,0.653076,
-2.5116,0.645447,
-2.5238,0.660706,
-2.5238,0.665283,
-2.53296,0.65918,
-2.53296,0.656128,
-2.53296,0.648499,
-2.52991,0.657654,
-2.5238,0.662231,
-2.51923,0.660706,
-2.5116,0.65155,
-2.50549,0.642395,
-2.49939,0.65918,
-2.48871,0.663757,
-2.47955,0.660706,
-2.4704,0.656128,
-2.45514,0.650024,
-2.44598,0.654602,
-2.42767,0.668335,
-2.42157,0.672913,
-2.40784,0.65155,
-2.39868,0.648499,
-2.38495,0.65918,
-2.37427,0.65918,
-2.36664,0.662231,
-2.36053,0.656128,
-2.34985,0.65155,
-2.34833,0.65918,
-2.34375,0.665283,
-2.34222,0.666809,
-2.3407,0.653076,
-2.33612,0.650024,
-2.3407,0.660706,
-2.3407,0.663757,
-2.34528,0.660706,
-2.34985,0.654602,
-2.35748,0.648499,
-2.36359,0.657654,
-2.36969,0.666809,
-2.37885,0.657654,
-2.38953,0.654602,
-2.40173,0.650024,
-2.41394,0.65918,
-2.4292,0.665283,
-2.44751,0.663757,
-2.45819,0.657654,
-2.47498,0.648499,
-2.49176,0.656128,
-2.51312,0.666809,
-2.52991,0.660706,
-2.54517,0.650024,
-2.56348,0.648499,
-2.58331,0.653076,
-2.60468,0.662231,
-2.62146,0.665283,
-2.63672,0.653076,
-2.65656,0.643921,
-2.67792,0.65918,
-2.6886,0.663757,
-2.70691,0.665283,
-2.72522,0.656128,
-2.74048,0.65155,
-2.75726,0.657654,
-2.77252,0.665283,
-2.79236,0.67749,
-2.81372,0.656128,
-2.83203,0.643921,
-2.85492,0.657654,
-2.87018,0.663757,
-2.88696,0.657654,
-2.90222,0.654602,
-2.91901,0.648499,
-2.92969,0.657654,
-2.94647,0.657654,
-2.96326,0.660706,
-2.97852,0.654602,
-2.99377,0.650024,
-3.00903,0.662231,
-3.01514,0.665283,
-3.03192,0.662231,
-3.04565,0.656128,
-3.05939,0.648499,
-3.07617,0.657654,
-3.09296,0.663757,
-3.11279,0.653076,
-3.125,0.657654,
-3.14331,0.645447,
-3.15399,0.656128,
-3.16772,0.665283,
-3.17841,0.660706,
-3.19519,0.656128,
-3.20435,0.654602,
-3.2196,0.656128,
-3.23181,0.660706,
-3.24249,0.672913,
-3.25623,0.65155,
-3.26691,0.648499,
-3.27911,0.65155,
-3.28979,0.662231,
-3.30048,0.665283,
-3.31268,0.654602,
-3.32642,0.663757,
-3.33252,0.656128,
-3.34778,0.662231,
-3.35541,0.660706,
-3.37067,0.657654,
-3.3783,0.648499,
-3.38593,0.65918,
-3.39661,0.669861,
-3.40576,0.663757,
-3.41644,0.654602,
-3.4256,0.645447,
-3.43628,0.660706,
-3.44696,0.65918,
-3.46069,0.656128,
-3.47137,0.654602,
-3.47748,0.645447,
-3.48816,0.656128,
-3.49884,0.668335,
-3.51105,0.662231,
-3.52325,0.656128,
-3.53394,0.650024,
-3.54156,0.656128,
-3.55225,0.662231,
-3.56445,0.660706,
-3.57666,0.656128,
-3.58734,0.65155,
-3.5965,0.654602,
-3.60718,0.665283,
-3.61938,0.65155,
-3.63159,0.650024,
-3.6438,0.653076,
-3.64838,0.656128,
-3.65753,0.663757,
-3.66821,0.663757,
-3.67432,0.653076,
-3.68195,0.642395,
-3.69415,0.653076,
-3.70178,0.663757,
-3.70789,0.665283,
-3.72009,0.653076,
-3.73077,0.650024,
-3.74146,0.654602,
-3.75061,0.662231,
-3.75977,0.662231,
-3.7674,0.65155,
-3.78113,0.650024,
-3.79181,0.656128,
-3.79944,0.660706,
-3.81317,0.65918,
-3.82233,0.656128,
-3.83453,0.648499,
-3.84521,0.656128,
-3.85742,0.663757,
-3.87115,0.662231,
-3.88336,0.657654,
-3.89252,0.650024,
-3.9032,0.657654,
-3.91388,0.665283,
-3.92914,0.660706,
-3.94592,0.654602,
-3.95813,0.648499,
-3.96729,0.654602,
-3.97949,0.660706,
-3.99323,0.657654,
-4.00085,0.653076,
-4.01611,0.648499,
-4.02679,0.654602,
-4.04053,0.662231,
-4.05121,0.662231,
-4.05884,0.656128,
-4.07257,0.653076,
-4.08478,0.657654,
-4.09241,0.660706,
-4.10461,0.660706,
-4.1153,0.650024,
-4.12903,0.650024,
-4.13971,0.65155,
-4.14886,0.665283,
-4.16565,0.662231,
-4.17633,0.648499,
-4.18854,0.65155,
-4.19922,0.657654,
-4.20532,0.663757,
-4.216,0.663757,
-4.23126,0.643921,
-4.24194,0.650024,
-4.24805,0.654602,
-4.25262,0.660706,
-4.26483,0.660706,
-4.27551,0.65155,
-4.28162,0.645447,
-4.2923,0.654602,
-4.30603,0.660706,
-4.31519,0.65918,
-4.32739,0.654602,
-4.33655,0.648499,
-4.34113,0.653076,
-4.35333,0.665283,
-4.35944,0.65918,
-4.36707,0.653076,
-4.37012,0.653076,
-4.37012,0.65155,
-4.37317,0.665283,
-4.37317,0.65918,
-4.37012,0.65155,
-4.36249,0.65155,
-4.35333,0.653076,
-4.34113,0.666809,
-4.32129,0.660706,
-4.29535,0.648499,
-4.26331,0.642395,
-4.22668,0.648499,
-4.18701,0.662231,
-4.14124,0.660706,
-4.08936,0.65155,
-4.03748,0.65155,
-3.97186,0.654602,
-3.90778,0.662231,
-3.84064,0.660706,
-3.77045,0.648499,
-3.70178,0.648499,
-3.61786,0.650024,
-3.54156,0.65918,
-3.45917,0.65918,
-3.37524,0.643921,
-3.28979,0.663757,
-3.20282,0.657654,
-3.12195,0.660706,
-3.0365,0.65918,
-2.95258,0.650024,
-2.87323,0.648499,
-2.80151,0.654602,
-2.72675,0.663757,
-2.65503,0.65918,
-2.59399,0.653076,
-2.53143,0.645447,
-2.47192,0.65155,
-2.41852,0.65918,
-2.37274,0.65918,
-2.33154,0.650024,
-2.2934,0.645447,
-2.2583,0.65155,
-2.22626,0.662231,
-2.20184,0.660706,
-2.18201,0.653076,
-2.1637,0.645447,
-2.14691,0.65155,
-2.13623,0.665283,
-2.13318,0.65918,
-2.12708,0.650024,
-2.12708,0.648499,
-2.12402,0.65155,
-2.13013,0.663757,
-2.13623,0.656128,
-2.13928,0.65155,
-2.15149,0.650024,
-2.15607,0.650024,
-2.16827,0.660706,
-2.18353,0.657654,
-2.19574,0.653076,
-2.21405,0.648499,
-2.22778,0.65155,
-2.24304,0.660706,
-2.25983,0.653076,
-2.27661,0.645447,
-2.2934,0.645447,
-2.31171,0.650024,
-2.33307,0.656128,
-2.34833,0.65918,
-2.37122,0.643921,
-2.39563,0.645447,
-2.41547,0.65155,
-2.43683,0.65918,
-2.45972,0.656128,
-2.47955,0.65155,
-2.50549,0.643921,
-2.51923,0.654602,
-2.53906,0.662231,
-2.5528,0.65918,
-2.57416,0.648499,
-2.58789,0.643921,
-2.59857,0.650024,
-2.60315,0.65918,
-2.61536,0.656128,
-2.62756,0.650024,
-2.63367,0.643921,
-2.63672,0.648499,
-2.6413,0.656128,
-2.64587,0.657654,
-2.65045,0.650024,
-2.64893,0.650024,
-2.64587,0.650024,
-2.6413,0.660706,
-2.63977,0.657654,
-2.63672,0.648499,
-2.62909,0.645447,
-2.62146,0.650024,
-2.61078,0.65918,
-2.60162,0.657654,
-2.59094,0.650024,
-2.58179,0.648499,
-2.56805,0.650024,
-2.55432,0.65918,
-2.54364,0.657654,
-2.53143,0.643921,
-2.52228,0.645447,
-2.5116,0.654602,
-2.50244,0.654602,
-2.49023,0.657654,
-2.48566,0.648499,
-2.47955,0.645447,
-2.47192,0.645447,
-2.4704,0.657654,
-2.46429,0.656128,
-2.46277,0.648499,
-2.45972,0.634766,
-2.45667,0.650024,
-2.45667,0.653076,
-2.45972,0.657654,
-2.45972,0.650024,
-2.46124,0.642395,
-2.46735,0.645447,
-2.47192,0.65918,
-2.4765,0.662231,
-2.48108,0.650024,
-2.48718,0.643921,
-2.50092,0.645447,
-2.5116,0.656128,
-2.5238,0.656128,
-2.53601,0.648499,
-2.54517,0.640869,
-2.55737,0.648499,
-2.56653,0.657654,
-2.58026,0.653076,
-2.59247,0.645447,
-2.60315,0.643921,
-2.61841,0.648499,
-2.63214,0.65918,
-2.64435,0.657654,
-2.65656,0.65155,
-2.66724,0.643921,
-2.68707,0.645447,
-2.69928,0.660706,
-2.71301,0.656128,
-2.72522,0.642395,
-2.742,0.643921,
-2.75574,0.642395,
-2.77252,0.654602,
-2.79083,0.65918,
-2.80609,0.642395,
-2.82135,0.648499,
-2.83508,0.648499,
-2.85034,0.657654,
-2.86407,0.660706,
-2.88239,0.645447,
-2.89917,0.643921,
-2.91138,0.650024,
-2.92664,0.656128,
-2.94037,0.656128,
-2.95563,0.643921,
-2.96936,0.640869,
-2.98462,0.645447,
-2.99683,0.653076,
-3.00903,0.656128,
-3.02887,0.650024,
-3.03955,0.643921,
-3.05481,0.653076,
-3.06549,0.657654,
-3.08075,0.656128,
-3.09601,0.645447,
-3.10211,0.643921,
-3.1189,0.648499,
-3.12805,0.653076,
-3.14026,0.657654,
-3.14789,0.634766,
-3.15857,0.637817,
-3.17078,0.645447,
-3.17993,0.657654,
-3.19214,0.653076,
-3.2074,0.648499,
-3.21503,0.642395,
-3.21808,0.650024,
-3.22571,0.65918,
-3.23639,0.657654,
-3.24402,0.645447,
-3.25012,0.642395,
-3.25928,0.639343,
-3.26691,0.654602,
-3.27606,0.650024,
-3.28369,0.639343,
-3.29437,0.642395,
-3.30658,0.645447,
-3.31726,0.654602,
-3.32947,0.656128,
-3.34015,0.642395,
-3.3493,0.639343,
-3.35388,0.648499,
-3.36609,0.654602,
-3.37219,0.660706,
-3.38135,0.643921,
-3.39203,0.637817,
-3.39203,0.645447,
-3.39966,0.654602,
-3.40881,0.654602,
-3.41797,0.639343,
-3.42407,0.639343,
-3.43323,0.645447,
-3.44238,0.65155,
-3.44849,0.668335,
-3.45459,0.643921,
-3.46069,0.639343,
-3.46527,0.648499,
-3.47443,0.654602,
-3.479,0.657654,
-3.48663,0.643921,
-3.49121,0.639343,
-3.49884,0.650024,
-3.50342,0.653076,
-3.51715,0.654602,
-3.52325,0.642395,
-3.53241,0.636292,
-3.53699,0.643921,
-3.54614,0.654602,
-3.5553,0.654602,
-3.56445,0.643921,
-3.57513,0.640869,
-3.58276,0.645447,
-3.59192,0.657654,
-3.59955,0.660706,
-3.60565,0.643921,
-3.61176,0.639343,
-3.62091,0.645447,
-3.63464,0.654602,
-3.64075,0.653076,
-3.6499,0.640869,
-3.65601,0.637817,
-3.66211,0.643921,
-3.67279,0.653076,
-3.67584,0.656128,
-3.6911,0.642395,
-3.69568,0.639343,
-3.70636,0.654602,
-3.72162,0.65155,
-3.73688,0.653076,
-3.74451,0.643921,
-3.75519,0.627136,
-3.76129,0.642395,
-3.7674,0.65155,
-3.78265,0.653076,
-3.79181,0.637817,
-3.80707,0.639343,
-3.8147,0.637817,
-3.82538,0.648499,
-3.83759,0.656128,
-3.84674,0.645447,
-3.85437,0.634766,
-3.8681,0.650024,
-3.87421,0.653076,
-3.88336,0.656128,
-3.89557,0.645447,
-3.90167,0.636292,
-3.91083,0.650024,
-3.91846,0.653076,
-3.93219,0.653076,
-3.94287,0.640869,
-3.94135,0.634766,
-3.95203,0.642395,
-3.95813,0.654602,
-3.96271,0.653076,
-3.97034,0.642395,
-3.97644,0.640869,
-3.98712,0.645447,
-3.99475,0.653076,
-4.00391,0.653076,
-4.01459,0.642395,
-4.02222,0.637817,
-4.02832,0.645447,
-4.03137,0.654602,
-4.04053,0.653076,
-4.05273,0.640869,
-4.06036,0.639343,
-4.06799,0.640869,
-4.06952,0.65155,
-4.0802,0.653076,
-4.07867,0.637817,
-4.0741,0.639343,
-4.07257,0.642395,
-4.06189,0.65155,
-4.05426,0.654602,
-4.04205,0.643921,
-4.02069,0.637817,
-3.99628,0.642395,
-3.96423,0.650024,
-3.93066,0.653076,
-3.89252,0.639343,
-3.83911,0.636292,
-3.79181,0.642395,
-3.73688,0.65155,
-3.67432,0.650024,
-3.61633,0.643921,
-3.54919,0.634766,
-3.48053,0.642395,
-3.41034,0.650024,
-3.3371,0.650024,
-3.26691,0.642395,
-3.19061,0.639343,
-3.11584,0.643921,
-3.03497,0.653076,
-2.96021,0.65155,
-2.88849,0.639343,
-2.80914,0.63324,
-2.742,0.643921,
-2.66876,0.65155,
-2.6001,0.65155,
-2.53754,0.642395,
-2.4704,0.637817,
-2.40936,0.637817,
-2.34833,0.65155,
-2.30103,0.656128,
-2.25525,0.643921,
-2.20947,0.639343,
-2.16827,0.639343,
-2.1347,0.654602,
-2.10724,0.648499,
-2.07672,0.637817,
-2.05536,0.636292,
-2.03705,0.639343,
-2.01721,0.645447,
-2.00043,0.653076,
-1.98975,0.640869,
-1.97906,0.640869,
-1.97601,0.639343,
-1.96991,0.653076,
-1.97144,0.65155,
-1.96991,0.640869,
-1.97601,0.634766,
-1.97754,0.634766,
-1.98669,0.650024,
-1.9928,0.645447,
-2.00043,0.642395,
-2.01111,0.634766,
-2.02484,0.645447,
-2.03552,0.648499,
-2.04773,0.645447,
-2.05994,0.642395,
-2.07062,0.634766,
-2.0813,0.640869,
-2.09503,0.648499,
-2.11334,0.650024,
-2.13165,0.639343,
-2.14691,0.639343,
-2.15912,0.642395,
-2.17896,0.648499,
-2.19727,0.648499,
-2.21405,0.642395,
-2.22931,0.634766,
-2.2522,0.636292,
-2.26898,0.648499,
-2.28577,0.648499,
-2.2995,0.642395,
-2.31934,0.640869,
-2.33307,0.634766,
-2.34528,0.654602,
-2.35443,0.650024,
-2.36359,0.640869,
-2.37274,0.637817,
-2.37732,0.639343,
-2.37885,0.650024,
-2.38647,0.650024,
-2.38953,0.640869,
-2.388,0.640869,
-2.39258,0.628662,
-2.3941,0.645447,
-2.39105,0.656128,
-2.38495,0.637817,
-2.37427,0.639343,
-2.36664,0.643921,
-2.35748,0.648499,
-2.34833,0.65155,
-2.33765,0.634766,
-2.33002,0.639343,
-2.31781,0.640869,
-2.30713,0.643921,
-2.2995,0.648499,
-2.28729,0.642395,
-2.27814,0.639343,
-2.2644,0.634766,
-2.25677,0.637817,
-2.24915,0.645447,
-2.24457,0.642395,
-2.23999,0.63324,
-2.23236,0.639343,
-2.23083,0.65155,
-2.22931,0.643921,
-2.22931,0.642395,
-2.22778,0.636292,
-2.22473,0.637817,
-2.22931,0.645447,
-2.22778,0.643921,
-2.22626,0.645447,
-2.22931,0.63324,
-2.23083,0.634766,
-2.22778,0.648499,
-2.22931,0.640869,
-2.23694,0.640869,
-2.23846,0.640869,
-2.24152,0.637817,
-2.2522,0.648499,
-2.25525,0.650024,
-2.26746,0.640869,
-2.27661,0.636292,
-2.28424,0.636292,
-2.29645,0.643921,
-2.30255,0.654602,
-2.31781,0.637817,
-2.32544,0.639343,
-2.33612,0.634766,
-2.34375,0.645447,
-2.36053,0.65155,
-2.36969,0.631714,
-2.38495,0.637817,
-2.39716,0.637817,
-2.40936,0.642395,
-2.42615,0.648499,
-2.43835,0.639343,
-2.45056,0.636292,
-2.46429,0.636292,
-2.4765,0.643921,
-2.49176,0.648499,
-2.50549,0.642395,
-2.51007,0.63324,
-2.5238,0.639343,
-2.53448,0.642395,
-2.55127,0.645447,
-2.565,0.63324,
-2.57721,0.63324,
-2.58789,0.637817,
-2.60162,0.648499,
-2.61688,0.643921,
-2.62756,0.645447,
-2.63672,0.628662,
-2.65045,0.657654,
-2.66418,0.65155,
-2.67487,0.643921,
-2.68097,0.642395,
-2.69318,0.637817,
-2.69928,0.630188,
-2.70996,0.648499,
-2.71606,0.645447,
-2.72369,0.650024,
-2.73438,0.636292,
-2.74506,0.631714,
-2.75574,0.650024,
-2.76794,0.650024,
-2.77557,0.636292,
-2.78473,0.634766,
-2.79541,0.634766,
-2.80914,0.648499,
-2.81372,0.650024,
-2.81982,0.639343,
-2.83203,0.636292,
-2.84424,0.634766,
-2.85492,0.648499,
-2.8595,0.650024,
-2.86713,0.639343,
-2.87933,0.63324,
-2.88544,0.634766,
-2.89307,0.643921,
-2.9007,0.653076,
-2.90833,0.643921,
-2.92053,0.636292,
-2.92816,0.636292,
-2.93884,0.645447,
-2.94495,0.643921,
-2.95715,0.642395,
-2.96326,0.630188,
-2.97241,0.637817,
-2.98004,0.645447,
-2.98157,0.645447,
-2.99683,0.640869,
-3.00293,0.630188,
-3.00903,0.63324,
-3.01361,0.643921,
-3.02124,0.645447,
-3.03345,0.639343,
-3.03955,0.63324,
-3.0426,0.636292,
-3.05176,0.650024,
-3.06091,0.648499,
-3.06549,0.640869,
-3.07312,0.639343,
-3.08228,0.634766,
-3.08685,0.642395,
-3.09296,0.650024,
-3.10211,0.639343,
-3.11127,0.636292,
-3.1189,0.628662,
-3.12042,0.639343,
-3.12805,0.650024,
-3.1311,0.637817,
-3.14484,0.634766,
-3.14941,0.636292,
-3.15704,0.639343,
-3.1662,0.650024,
-3.17383,0.640869,
-3.17993,0.63324,
-3.18909,0.637817,
-3.19214,0.642395,
-3.19824,0.645447,
-3.20435,0.639343,
-3.21503,0.63324,
-3.21655,0.636292,
-3.22723,0.639343,
-3.23639,0.642395,
-3.24249,0.640869,
-3.25317,0.631714,
-3.26233,0.636292,
-3.27148,0.645447,
-3.28369,0.645447,
-3.29437,0.642395,
-3.302,0.636292,
-3.30658,0.634766,
-3.31573,0.650024,
-3.32489,0.648499,
-3.32947,0.640869,
-3.34625,0.63324,
-3.35236,0.634766,
-3.36456,0.643921,
-3.37219,0.645447,
-3.38745,0.637817,
-3.39661,0.637817,
-3.40881,0.631714,
-3.41644,0.648499,
-3.4256,0.650024,
-3.43475,0.637817,
-3.44391,0.634766,
-3.45459,0.636292,
-3.46527,0.650024,
-3.47137,0.648499,
-3.479,0.636292,
-3.48969,0.63324,
-3.49884,0.634766,
-3.50342,0.645447,
-3.51105,0.650024,
-3.52173,0.636292,
-3.52783,0.630188,
-3.53851,0.636292,
-3.54462,0.643921,
-3.55377,0.650024,
-3.56445,0.636292,
-3.57513,0.630188,
-3.58276,0.63324,
-3.59039,0.643921,
-3.59497,0.643921,
-3.60413,0.639343,
-3.61328,0.631714,
-3.61786,0.634766,
-3.62854,0.642395,
-3.63617,0.645447,
-3.6377,0.640869,
-3.63617,0.63324,
-3.63312,0.63324,
-3.63312,0.648499,
-3.62396,0.640869,
-3.61328,0.636292,
-3.6026,0.63324,
-3.57513,0.631714,
-3.5553,0.645447,
-3.52325,0.648499,
-3.49121,0.639343,
-3.45001,0.637817,
-3.41339,0.63324,
-3.36456,0.643921,
-3.31573,0.65155,
-3.25928,0.634766,
-3.20435,0.631714,
-3.14636,0.628662,
-3.08228,0.640869,
-3.01361,0.650024,
-2.94342,0.63324,
-2.87781,0.628662,
-2.80609,0.63324,
-2.73132,0.636292,
-2.6535,0.654602,
-2.58026,0.637817,
-2.50854,0.63324,
-2.43683,0.636292,
-2.36206,0.642395,
-2.29034,0.650024,
-2.22168,0.637817,
-2.15454,0.628662,
-2.0874,0.63324,
-2.02942,0.640869,
-1.97296,0.65155,
-1.92413,0.637817,
-1.87073,0.628662,
-1.828,0.63324,
-1.78528,0.637817,
-1.74561,0.640869,
-1.71509,0.636292,
-1.68304,0.631714,
-1.66168,0.63324,
-1.64032,0.643921,
-1.62048,0.65155,
-1.60828,0.637817,
-1.59607,0.631714,
-1.58386,0.634766,
-1.57623,0.642395,
-1.57166,0.650024,
-1.57013,0.637817,
-1.57166,0.628662,
-1.57471,0.630188,
-1.57776,0.639343,
-1.58691,0.650024,
-1.58844,0.631714,
-1.60065,0.63324,
-1.60675,0.634766,
-1.61591,0.639343,
-1.62964,0.65155,
-1.64032,0.636292,
-1.651,0.631714,
-1.67084,0.63324,
-1.6861,0.642395,
-1.69983,0.648499,
-1.71661,0.637817,
-1.7334,0.627136,
-1.75171,0.63324,
-1.77002,0.636292,
-1.78986,0.650024,
-1.80359,0.637817,
-1.82495,0.628662,
-1.84479,0.630188,
-1.86157,0.637817,
-1.87683,0.643921,
-1.89514,0.643921,
-1.90582,0.63324,
-1.92108,0.636292,
-1.93481,0.642395,
-1.95007,0.648499,
-1.95923,0.634766,
-1.96686,0.631714,
-1.98059,0.628662,
-1.98822,0.640869,
-1.99432,0.645447,
-1.99585,0.63324,
-1.9928,0.631714,
-1.98975,0.622559,
-1.98822,0.636292,
-1.98364,0.650024,
-1.97906,0.639343,
-1.97144,0.631714,
-1.96533,0.636292,
-1.95923,0.639343,
-1.95313,0.648499,
-1.94244,0.636292,
-1.93329,0.631714,
-1.92413,0.631714,
-1.91498,0.639343,
-1.90277,0.650024,
-1.89514,0.637817,
-1.88446,0.628662,
-1.87531,0.63324,
-1.8692,0.63324,
-1.85699,0.645447,
-1.84937,0.637817,
-1.84021,0.631714,
-1.828,0.634766,
-1.8219,0.642395,
-1.81885,0.648499,
-1.81274,0.637817,
-1.81122,0.636292,
-1.80664,0.63324,
-1.80511,0.640869,
-1.80664,0.645447,
-1.80511,0.640869,
-1.79901,0.628662,
-1.80511,0.630188,
-1.80511,0.639343,
-1.80969,0.645447,
-1.81427,0.636292,
-1.81732,0.630188,
-1.82037,0.62561,
-1.82495,0.636292,
-1.83411,0.642395,
-1.84021,0.634766,
-1.84479,0.63324,
-1.85242,0.63324,
-1.86157,0.636292,
-1.87073,0.645447,
-1.87988,0.636292,
-1.89209,0.634766,
-1.90125,0.630188,
-1.9104,0.637817,
-1.92413,0.643921,
-1.93329,0.636292,
-1.94092,0.627136,
-1.9516,0.634766,
-1.96228,0.636292,
-1.97906,0.645447,
-1.98669,0.636292,
-1.99585,0.630188,
-2.00653,0.634766,
-2.01416,0.639343,
-2.02484,0.642395,
-2.03705,0.63324,
-2.05078,0.630188,
-2.06451,0.63324,
-2.07672,0.63324,
-2.08435,0.643921,
-2.09503,0.634766,
-2.11029,0.624084,
-2.11639,0.63324,
-2.13013,0.637817,
-2.14386,0.640869,
-2.15607,0.637817,
-2.16827,0.631714,
-2.18353,0.631714,
-2.19574,0.637817,
-2.21252,0.648499,
-2.22321,0.636292,
-2.23694,0.630188,
-2.2522,0.631714,
-2.27356,0.640869,
-2.2934,0.642395,
-2.30865,0.634766,
-2.31781,0.628662,
-2.33459,0.628662,
-2.34222,0.634766,
-2.35443,0.643921,
-2.36664,0.634766,
-2.37579,0.630188,
-2.39258,0.630188,
-2.40173,0.63324,
-2.41547,0.645447,
-2.42615,0.634766,
-2.43378,0.628662,
-2.44293,0.630188,
-2.45361,0.63324,
-2.46124,0.640869,
-2.46735,0.636292,
-2.47498,0.627136,
-2.48108,0.628662,
-2.48413,0.634766,
-2.48871,0.639343,
-2.49481,0.636292,
-2.50244,0.62561,
-2.51007,0.63324,
-2.51465,0.637817,
-2.52228,0.640869,
-2.5238,0.637817,
-2.53296,0.630188,
-2.53906,0.628662,
-2.54669,0.639343,
-2.55737,0.643921,
-2.5589,0.636292,
-2.565,0.627136,
-2.57568,0.631714,
-2.58331,0.637817,
-2.59705,0.639343,
-2.60315,0.63324,
-2.6123,0.628662,
-2.61841,0.621033,
-2.62451,0.637817,
-2.63519,0.642395,
-2.64587,0.634766,
-2.65198,0.630188,
-2.65656,0.634766,
-2.65961,0.636292,
-2.67334,0.640869,
-2.68402,0.636292,
-2.69012,0.630188,
-2.69775,0.630188,
-2.70691,0.636292,
-2.71454,0.639343,
-2.72522,0.634766,
-2.7359,0.628662,
-2.74811,0.634766,
-2.75421,0.63324,
-2.76031,0.639343,
-2.76947,0.634766,
-2.77405,0.628662,
-2.77863,0.63324,
-2.78473,0.637817,
-2.79541,0.636292,
-2.80304,0.637817,
-2.81372,0.630188,
-2.82593,0.631714,
-2.83508,0.639343,
-2.84119,0.637817,
-2.84882,0.636292,
-2.85339,0.628662,
-2.86407,0.627136,
-2.86865,0.637817,
-2.87781,0.636292,
-2.88696,0.634766,
-2.89917,0.631714,
-2.90833,0.630188,
-2.91748,0.636292,
-2.92511,0.640869,
-2.93884,0.636292,
-2.95258,0.630188,
-2.96478,0.637817,
-2.97241,0.637817,
-2.98462,0.642395,
-2.9892,0.636292,
-3.00293,0.630188,
-3.01056,0.631714,
-3.02277,0.63324,
-3.03802,0.634766,
-3.04718,0.634766,
-3.05786,0.627136,
-3.06702,0.630188,
-3.07922,0.630188,
-3.09143,0.640869,
-3.10211,0.637817,
-3.10974,0.622559,
-3.1189,0.628662,
-3.12958,0.637817,
-3.14331,0.642395,
-3.15399,0.640869,
-3.16772,0.62561,
-3.17383,0.628662,
-3.18298,0.634766,
-3.19061,0.639343,
-3.20282,0.637817,
-3.2135,0.624084,
-3.22113,0.627136,
-3.22876,0.636292,
-3.23639,0.640869,
-3.24097,0.636292,
-3.24554,0.628662,
-3.25012,0.628662,
-3.2547,0.637817,
-3.26233,0.642395,
-3.26233,0.631714,
-3.26233,0.628662,
-3.25623,0.627136,
-3.24554,0.637817,
-3.22876,0.645447,
-3.21045,0.628662,
-3.18298,0.630188,
-3.15552,0.627136,
-3.11737,0.631714,
-3.07617,0.639343,
-3.03192,0.63324,
-2.98462,0.627136,
-2.92816,0.627136,
-2.87628,0.636292,
-2.81372,0.640869,
-2.74506,0.636292,
-2.67639,0.627136,
-2.60162,0.631714,
-2.5238,0.637817,
-2.44751,0.643921,
-2.36816,0.639343,
-2.29187,0.630188,
-2.21252,0.628662,
-2.13318,0.634766,
-2.05688,0.640869,
-1.98059,0.634766,
-1.90582,0.62561,
-1.83411,0.630188,
-1.76697,0.640869,
-1.70135,0.637817,
-1.64337,0.637817,
-1.58844,0.630188,
-1.53351,0.627136,
-1.49078,0.637817,
-1.43738,0.642395,
-1.39771,0.639343,
-1.35956,0.627136,
-1.32446,0.62561,
-1.29089,0.643921,
-1.26038,0.630188,
-1.23444,0.63324,
-1.21765,0.631714,
-1.20544,0.619507,
-1.19476,0.634766,
-1.18103,0.639343,
-1.17493,0.631714,
-1.16882,0.627136,
-1.17493,0.630188,
-1.17188,0.631714,
-1.17188,0.639343,
-1.1734,0.637817,
-1.17645,0.62561,
-1.18256,0.628662,
-1.18713,0.639343,
-1.19781,0.640869,
-1.20697,0.634766,
-1.21918,0.627136,
-1.23444,0.630188,
-1.24817,0.634766,
-1.26343,0.639343,
-1.28021,0.634766,
-1.29395,0.610352,
-1.30463,0.628662,
-1.32446,0.639343,
-1.34125,0.640869,
-1.35803,0.634766,
-1.38092,0.628662,
-1.40076,0.627136,
-1.41754,0.640869,
-1.43433,0.640869,
-1.45721,0.634766,
-1.47552,0.628662,
-1.49689,0.62561,
-1.51367,0.634766,
-1.53046,0.639343,
-1.54724,0.63324,
-1.55792,0.628662,
-1.57166,0.62561,
-1.57928,0.636292,
-1.59302,0.639343,
-1.60065,0.634766,
-1.60828,0.630188,
-1.61438,0.628662,
-1.61896,0.636292,
-1.62354,0.642395,
-1.62354,0.637817,
-1.62506,0.627136,
-1.62354,0.630188,
-1.62354,0.63324,
-1.62048,0.642395,
-1.61133,0.63324,
-1.60828,0.628662,
-1.59912,0.62561,
-1.58844,0.636292,
-1.57928,0.637817,
-1.57318,0.63324,
-1.5625,0.624084,
-1.55487,0.630188,
-1.54419,0.636292,
-1.53809,0.642395,
-1.5274,0.640869,
-1.51825,0.630188,
-1.50909,0.628662,
-1.49994,0.637817,
-1.49841,0.640869,
-1.49689,0.636292,
-1.49536,0.627136,
-1.49078,0.624084,
-1.48926,0.637817,
-1.48773,0.639343,
-1.48773,0.63324,
-1.48926,0.630188,
-1.49078,0.624084,
-1.48621,0.634766,
-1.49231,0.640869,
-1.49536,0.63324,
-1.49841,0.627136,
-1.50452,0.630188,
-1.50757,0.634766,
-1.51672,0.645447,
-1.5213,0.63324,
-1.5274,0.628662,
-1.53503,0.62561,
-1.54724,0.636292,
-1.55487,0.636292,
-1.56403,0.631714,
-1.57623,0.627136,
-1.58386,0.628662,
-1.59607,0.630188,
-1.6098,0.640869,
-1.62201,0.631714,
-1.63727,0.622559,
-1.6449,0.628662,
-1.65863,0.637817,
-1.67542,0.643921,
-1.69067,0.634766,
-1.69983,0.628662,
-1.71509,0.624084,
-1.72272,0.634766,
-1.73645,0.642395,
-1.74866,0.636292,
-1.75934,0.624084,
-1.7746,0.624084,
-1.78833,0.636292,
-1.79749,0.643921,
-1.81427,0.631714,
-1.82648,0.62561,
-1.84326,0.622559,
-1.86005,0.639343,
-1.8692,0.643921,
-1.87988,0.63324,
-1.89209,0.62561,
-1.90125,0.624084,
-1.91956,0.63324,
-1.92261,0.636292,
-1.94092,0.630188,
-1.9577,0.628662,
-1.96991,0.624084,
-1.98364,0.631714,
-1.9989,0.643921,
-2.01263,0.628662,
-2.02332,0.627136,
-2.0401,0.62561,
-2.05078,0.636292,
-2.06604,0.645447,
-2.08282,0.634766,
-2.09656,0.62561,
-2.10724,0.627136,
-2.11792,0.634766,
-2.13013,0.642395,
-2.14081,0.63324,
-2.15149,0.624084,
-2.16217,0.630188,
-2.17285,0.63324,
-2.18658,0.643921,
-2.19421,0.63324,
-2.2049,0.62561,
-2.2171,0.62561,
-2.22778,0.636292,
-2.24152,0.637817,
-2.24915,0.634766,
-2.26288,0.628662,
-2.27203,0.622559,
-2.28271,0.634766,
-2.2934,0.640869,
-2.3056,0.630188,
-2.31781,0.628662,
-2.33154,0.630188,
-2.33917,0.639343,
-2.3468,0.640869,
-2.35596,0.628662,
-2.36359,0.630188,
-2.37427,0.621033,
-2.37885,0.631714,
-2.39105,0.643921,
-2.40173,0.631714,
-2.41241,0.62561,
-2.4231,0.62561,
-2.43225,0.636292,
-2.44141,0.643921,
-2.44751,0.634766,
-2.45667,0.630188,
-2.46735,0.627136,
-2.47345,0.62561,
-2.48413,0.630188,
-2.49176,0.631714,
-2.49634,0.624084,
-2.50702,0.62561,
-2.51617,0.628662,
-2.5238,0.640869,
-2.53448,0.630188,
-2.54364,0.621033,
-2.55432,0.62561,
-2.56348,0.637817,
-2.57263,0.640869,
-2.58636,0.636292,
-2.59399,0.62561,
-2.59857,0.631714,
-2.61536,0.636292,
-2.62146,0.640869,
-2.62604,0.636292,
-2.63367,0.624084,
-2.63977,0.627136,
-2.64893,0.634766,
-2.65503,0.639343,
-2.66418,0.63324,
-2.67639,0.628662,
-2.6825,0.619507,
-2.69165,0.634766,
-2.70233,0.636292,
-2.70996,0.630188,
-2.71912,0.62561,
-2.72827,0.627136,
-2.73743,0.636292,
-2.74963,0.639343,
-2.76337,0.63324,
-2.76947,0.628662,
-2.77863,0.627136,
-2.79083,0.631714,
-2.79694,0.639343,
-2.80609,0.631714,
-2.81067,0.624084,
-2.8244,0.62561,
-2.83356,0.630188,
-2.84271,0.639343,
-2.85797,0.63324,
-2.8717,0.624084,
-2.88086,0.62561,
-2.89307,0.631714,
-2.90222,0.634766,
-2.91443,0.636292,
-2.92206,0.627136,
-2.92969,0.62561,
-2.94189,0.63324,
-2.95258,0.631714,
-2.96478,0.637817,
-2.96936,0.622559,
-2.97852,0.624084,
-2.98767,0.630188,
-2.99988,0.637817,
-3.00598,0.634766,
-3.01208,0.627136,
-3.02277,0.62561,
-3.02887,0.631714,
-3.0304,0.640869,
-3.03192,0.636292,
-3.03955,0.628662,
-3.04718,0.627136,
-3.04565,0.631714,
-3.04413,0.640869,
-3.0365,0.63324,
-3.02887,0.627136,
-3.01361,0.628662,
-2.99835,0.627136,
-2.96936,0.639343,
-2.93884,0.630188,
-2.90222,0.624084,
-2.86407,0.627136,
-2.82288,0.630188,
-2.77252,0.639343,
-2.72217,0.640869,
-2.65961,0.62561,
-2.6001,0.627136,
-2.53448,0.630188,
-2.46429,0.636292,
-2.3941,0.637817,
-2.31781,0.627136,
-2.23999,0.622559,
-2.16217,0.630188,
-2.0813,0.63324,
-2.00653,0.637817,
-1.92413,0.622559,
-1.85089,0.622559,
-1.77612,0.631714,
-1.70288,0.63324,
-1.63116,0.634766,
-1.5625,0.62561,
-1.49536,0.621033,
-1.43585,0.63324,
-1.37787,0.634766,
-1.32141,0.636292,
-1.27106,0.621033,
-1.22375,0.627136,
-1.1795,0.63324,
-1.14288,0.634766,
-1.10931,0.634766,
-1.08185,0.627136,
-1.05743,0.627136,
-1.03455,0.63324,
-1.02081,0.631714,
-1.00098,0.631714,
-0.990295,0.622559,
-0.982666,0.628662,
-0.973511,0.628662,
-0.971985,0.63324,
-0.976563,0.636292,
-0.976563,0.62561,
-0.982666,0.630188,
-0.994873,0.631714,
-0.997925,0.634766,
-1.00708,0.637817,
-1.02234,0.62561,
-1.03455,0.62561,
-1.0498,0.630188,
-1.06354,0.636292,
-1.08032,0.636292,
-1.09558,0.622559,
-1.11542,0.621033,
-1.1322,0.63324,
-1.15204,0.636292,
-1.16882,0.631714,
-1.19019,0.628662,
-1.21155,0.619507,
-1.23291,0.630188,
-1.25732,0.63324,
-1.28021,0.630188,
-1.30615,0.630188,
-1.33362,0.62561,
-1.35651,0.631714,
-1.37787,0.637817,
-1.39771,0.636292,
-1.41602,0.62561,
-1.43127,0.62561,
-1.44653,0.627136,
-1.46484,0.636292,
-1.47552,0.631714,
-1.48773,0.622559,
-1.49841,0.624084,
-1.50604,0.628662,
-1.5152,0.634766,
-1.51978,0.634766,
-1.52435,0.622559,
-1.52588,0.62561,
-1.5274,0.628662,
-1.52588,0.636292,
-1.52435,0.636292,
-1.51672,0.622559,
-1.51367,0.627136,
-1.50757,0.63324,
-1.49994,0.634766,
-1.49078,0.636292,
-1.48621,0.622559,
-1.4801,0.624084,
-1.47247,0.628662,
-1.46332,0.634766,
-1.45721,0.634766,
-1.44653,0.627136,
-1.44043,0.622559,
-1.42822,0.628662,
-1.41602,0.634766,
-1.40686,0.634766,
-1.39313,0.624084,
-1.3855,0.624084,
-1.37329,0.631714,
-1.36719,0.63324,
-1.36108,0.63324,
-1.35651,0.624084,
-1.34888,0.608826,
-1.3504,0.62561,
-1.34735,0.636292,
-1.3443,0.631714,
-1.3443,0.622559,
-1.34888,0.624084,
-1.34888,0.624084,
-1.35193,0.634766,
-1.35956,0.634766,
-1.36414,0.619507,
-1.37329,0.622559,
-1.38092,0.62561,
-1.3916,0.636292,
-1.40228,0.63324,
-1.41296,0.619507,
-1.42517,0.624084,
-1.43433,0.628662,
-1.44501,0.63324,
-1.45569,0.634766,
-1.46942,0.621033,
-1.4801,0.624084,
-1.49536,0.630188,
-1.50757,0.631714,
-1.51672,0.63324,
-1.53046,0.624084,
-1.53809,0.621033,
-1.55182,0.631714,
-1.56403,0.637817,
-1.57623,0.63324,
-1.59149,0.624084,
-1.60828,0.621033,
-1.61896,0.628662,
-1.63116,0.63324,
-1.64948,0.631714,
-1.66321,0.622559,
-1.67694,0.619507,
-1.6922,0.627136,
-1.70441,0.637817,
-1.71661,0.630188,
-1.72882,0.624084,
-1.74408,0.621033,
-1.75781,0.62561,
-1.76849,0.636292,
-1.78223,0.636292,
-1.79596,0.624084,
-1.81427,0.622559,
-1.82343,0.627136,
-1.83868,0.63324,
-1.85242,0.634766,
-1.86768,0.624084,
-1.88293,0.622559,
-1.89514,0.627136,
-1.91345,0.634766,
-1.92719,0.619507,
-1.94092,0.624084,
-1.9577,0.622559,
-1.97296,0.62561,
-1.98517,0.630188,
-1.99585,0.63324,
-2.01111,0.624084,
-2.01569,0.621033,
-2.02789,0.627136,
-2.04163,0.631714,
-2.04926,0.630188,
-2.05994,0.624084,
-2.06909,0.619507,
-2.07825,0.628662,
-2.09503,0.63324,
-2.10876,0.631714,
-2.12402,0.622559,
-2.13928,0.619507,
-2.15149,0.62561,
-2.16064,0.63324,
-2.17285,0.630188,
-2.18506,0.617981,
-2.19421,0.619507,
-2.20184,0.62561,
-2.21252,0.63324,
-2.22015,0.637817,
-2.23236,0.622559,
-2.24152,0.619507,
-2.25067,0.628662,
-2.25677,0.634766,
-2.2644,0.63324,
-2.27203,0.621033,
-2.28424,0.619507,
-2.2934,0.627136,
-2.30408,0.63324,
-2.31018,0.636292,
-2.31781,0.614929,
-2.32697,0.621033,
-2.33459,0.627136,
-2.34375,0.631714,
-2.35443,0.63324,
-2.36359,0.622559,
-2.37274,0.622559,
-2.37427,0.630188,
-2.38037,0.636292,
-2.39105,0.63324,
-2.40173,0.624084,
-2.40784,0.621033,
-2.4231,0.631714,
-2.43378,0.630188,
-2.44141,0.630188,
-2.45209,0.622559,
-2.46124,0.619507,
-2.4704,0.62561,
-2.48413,0.654602,
-2.49481,0.630188,
-2.50092,0.622559,
-2.50854,0.621033,
-2.5177,0.624084,
-2.52991,0.63324,
-2.53754,0.63324,
-2.54974,0.622559,
-2.5589,0.621033,
-2.57111,0.62561,
-2.58026,0.637817,
-2.58942,0.63324,
-2.6001,0.622559,
-2.60925,0.619507,
-2.61688,0.628662,
-2.62451,0.630188,
-2.63367,0.630188,
-2.64435,0.613403,
-2.65808,0.613403,
-2.66571,0.62561,
-2.67944,0.631714,
-2.6886,0.63324,
-2.69623,0.622559,
-2.70844,0.619507,
-2.71454,0.637817,
-2.72675,0.636292,
-2.73285,0.631714,
-2.742,0.62561,
-2.75116,0.619507,
-2.76184,0.630188,
-2.76794,0.628662,
-2.77252,0.645447,
-2.7771,0.62561,
-2.7832,0.621033,
-2.79236,0.62561,
-2.79846,0.636292,
-2.80151,0.630188,
-2.80151,0.624084,
-2.79999,0.619507,
-2.79541,0.622559,
-2.78931,0.634766,
-2.77405,0.63324,
-2.75726,0.622559,
-2.73743,0.621033,
-2.70996,0.630188,
-2.67944,0.63324,
-2.64587,0.636292,
-2.60468,0.622559,
-2.56042,0.621033,
-2.5116,0.627136,
-2.45667,0.634766,
-2.40173,0.63324,
-2.34222,0.624084,
-2.27509,0.614929,
-2.20795,0.628662,
-2.1347,0.634766,
-2.05841,0.628662,
-1.98364,0.627136,
-1.90735,0.614929,
-1.828,0.62561,
-1.75781,0.634766,
-1.67694,0.630188,
-1.60828,0.622559,
-1.53198,0.619507,
-1.46179,0.627136,
-1.39618,0.631714,
-1.32751,0.63324,
-1.26648,0.62561,
-1.21155,0.621033,
-1.15967,0.622559,
-1.10931,0.634766,
-1.06201,0.627136,
-1.02692,0.62561,
-0.990295,0.617981,
-0.9552,0.627136,
-0.924683,0.63324,
-0.901794,0.630188,
-0.881958,0.619507,
-0.862122,0.619507,
-0.849915,0.627136,
-0.837708,0.63324,
-0.830078,0.634766,
-0.823975,0.627136,
-0.819397,0.617981,
-0.820923,0.628662,
-0.819397,0.631714,
-0.820923,0.631714,
-0.822449,0.624084,
-0.830078,0.619507,
-0.839233,0.62561,
-0.848389,0.63324,
-0.860596,0.63324,
-0.875854,0.624084,
-0.886536,0.617981,
-0.907898,0.624084,
-0.923157,0.637817,
-0.944519,0.628662,
-0.967407,0.621033,
-0.990295,0.619507,
-1.01166,0.62561,
-1.03149,0.63324,
-1.05591,0.631714,
-1.08185,0.62561,
-1.10626,0.617981,
-1.13068,0.627136,
-1.15814,0.634766,
-1.1795,0.634766,
-1.20239,0.627136,
-1.22681,0.617981,
-1.24664,0.622559,
-1.26343,0.630188,
-1.28326,0.63324,
-1.297,0.619507,
-1.31226,0.614929,
-1.32294,0.628662,
-1.33514,0.631714,
-1.35193,0.630188,
-1.35803,0.624084,
-1.36719,0.619507,
-1.37482,0.627136,
-1.38245,0.630188,
-1.37939,0.630188,
-1.3855,0.627136,
-1.37939,0.619507,
-1.37939,0.62561,
-1.37329,0.637817,
-1.37024,0.630188,
-1.36261,0.622559,
-1.35651,0.619507,
-1.3504,0.622559,
-1.3443,0.636292,
-1.33362,0.628662,
-1.32446,0.621033,
-1.31073,0.619507,
-1.30615,0.614929,
-1.297,0.637817,
-1.28937,0.628662,
-1.28021,0.621033,
-1.27106,0.621033,
-1.26495,0.619507,
-1.25732,0.634766,
-1.24817,0.622559,
-1.24207,0.624084,
-1.24054,0.617981,
-1.23901,0.62561,
-1.23596,0.634766,
-1.23596,0.63324,
-1.24207,0.622559,
-1.24207,0.617981,
-1.24664,0.619507,
-1.24817,0.622559,
-1.2558,0.628662,
-1.26343,0.627136,
-1.26801,0.613403,
-1.27411,0.62561,
-1.28632,0.63324,
-1.29242,0.636292,
-1.3031,0.62561,
-1.31378,0.617981,
-1.32599,0.622559,
-1.3382,0.636292,
-1.35345,0.631714,
-1.36108,0.62561,
-1.37939,0.617981,
-1.39008,0.622559,
-1.41144,0.634766,
-1.42212,0.630188,
-1.43738,0.62561,
-1.45416,0.619507,
-1.46637,0.62561,
-1.48315,0.631714,
-1.49841,0.63324,
-1.51367,0.624084,
-1.5274,0.624084,
-1.54877,0.627136,
-1.56403,0.631714,
-1.58234,0.636292,
-1.58997,0.624084,
-1.6098,0.617981,
-1.61591,0.62561,
-1.63422,0.63324,
-1.6449,0.63324,
-1.66473,0.624084,
-1.67694,0.614929,
-1.68915,0.622559,
-1.70288,0.634766,
-1.71661,0.630188,
-1.72882,0.627136,
-1.74103,0.617981,
-1.75171,0.624084,
-1.76697,0.631714,
-1.77917,0.631714,
-1.79138,0.621033,
-1.80359,0.619507,
-1.81122,0.622559,
-1.828,0.63324,
-1.84174,0.631714,
-1.85394,0.634766,
-1.8692,0.621033,
-1.87836,0.622559,
-1.89514,0.631714,
-1.9043,0.631714,
-1.91956,0.622559,
-1.93176,0.619507,
-1.94092,0.622559,
-1.95465,0.63324,
-1.97296,0.627136,
-1.98364,0.62561,
-1.9928,0.617981,
-2.01111,0.624084,
-2.02179,0.630188,
-2.03094,0.628662,
-2.0462,0.62561,
-2.05688,0.613403,
-2.06451,0.628662,
-2.07825,0.636292,
-2.08893,0.628662,
-2.09961,0.627136,
-2.10876,0.622559,
-2.1225,0.627136,
-2.13013,0.631714,
-2.14081,0.627136,
-2.15149,0.621033,
-2.16064,0.622559,
-2.16827,0.622559,
-2.17896,0.631714,
-2.19269,0.630188,
-2.20032,0.621033,
-2.20947,0.608826,
-2.21863,0.621033,
-2.22931,0.630188,
-2.23389,0.631714,
-2.24457,0.624084,
-2.25677,0.628662,
-2.26746,0.62561,
-2.27509,0.631714,
-2.28119,0.634766,
-2.28882,0.622559,
-2.29645,0.62561,
-2.30408,0.627136,
-2.31018,0.630188,
-2.32544,0.631714,
-2.33002,0.621033,
-2.33154,0.622559,
-2.33459,0.62561,
-2.3468,0.628662,
-2.35596,0.631714,
-2.36664,0.622559,
-2.37274,0.619507,
-2.38037,0.62561,
-2.38953,0.631714,
-2.40173,0.631714,
-2.41394,0.624084,
-2.4231,0.619507,
-2.43378,0.624084,
-2.44598,0.628662,
-2.45972,0.628662,
-2.4704,0.624084,
-2.48108,0.621033,
-2.49176,0.622559,
-2.50397,0.631714,
-2.5116,0.627136,
-2.5238,0.622559,
-2.53143,0.621033,
-2.54059,0.622559,
-2.55737,0.63324,
-2.56653,0.634766,
-2.57568,0.622559,
-2.59247,0.622559,
-2.60162,0.622559,
-2.61536,0.630188,
-2.62451,0.630188,
-2.63672,0.621033,
-2.64587,0.619507,
-2.65198,0.621033,
-2.65961,0.630188,
-2.67334,0.630188,
-2.68402,0.619507,
-2.6947,0.617981,
-2.70691,0.624084,
-2.71606,0.63324,
-2.72522,0.63324,
-2.73285,0.62561,
-2.742,0.617981,
-2.74506,0.62561,
-2.74963,0.63324,
-2.74811,0.628662,
-2.74811,0.622559,
-2.73743,0.621033,
-2.72217,0.622559,
-2.70996,0.634766,
-2.6825,0.630188,
-2.65961,0.622559,
-2.62451,0.621033,
-2.58331,0.622559,
-2.54364,0.636292,
-2.49481,0.628662,
-2.43835,0.611877,
-2.37885,0.621033,
-2.31476,0.619507,
-2.24609,0.631714,
-2.17133,0.631714,
-2.0874,0.624084,
-2.01111,0.617981,
-1.92719,0.624084,
-1.84326,0.631714,
-1.75781,0.630188,
-1.67542,0.622559,
-1.58997,0.617981,
-1.50757,0.621033,
-1.42517,0.63324,
-1.34583,0.630188,
-1.26801,0.624084,
-1.19324,0.619507,
-1.12305,0.621033,
-1.05896,0.628662,
-0.994873,0.628662,
-0.935364,0.622559,
-0.881958,0.613403,
-0.834656,0.619507,
-0.788879,0.63324,
-0.750732,0.630188,
-0.723267,0.627136,
-0.695801,0.619507,
-0.666809,0.622559,
-0.643921,0.63324,
-0.62561,0.631714,
-0.6073,0.617981,
-0.595093,0.619507,
-0.587463,0.622559,
-0.582886,0.630188,
-0.579834,0.630188,
-0.579834,0.631714,
-0.585938,0.619507,
-0.582886,0.62561,
-0.587463,0.628662,
-0.596619,0.630188,
-0.601196,0.617981,
-0.613403,0.611877,
-0.624084,0.622559,
-0.636292,0.628662,
-0.648499,0.628662,
-0.65918,0.622559,
-0.67749,0.613403,
-0.695801,0.62561,
-0.717163,0.628662,
-0.733948,0.627136,
-0.753784,0.624084,
-0.778198,0.614929,
-0.799561,0.624084,
-0.823975,0.628662,
-0.845337,0.628662,
-0.869751,0.624084,
-0.895691,0.614929,
-0.918579,0.624084,
-0.942993,0.631714,
-0.965881,0.627136,
-0.98877,0.622559,
-1.00098,0.619507,
-1.02234,0.621033,
-1.03912,0.628662,
-1.05896,0.630188,
-1.07574,0.619507,
-1.0849,0.617981,
-1.09711,0.624084,
-1.10779,0.627136,
-1.11847,0.63324,
-1.1261,0.619507,
-1.13068,0.619507,
-1.13068,0.624084,
-1.13678,0.63324,
-1.13831,0.630188,
-1.13678,0.619507,
-1.1322,0.614929,
-1.1261,0.624084,
-1.12,0.630188,
-1.12,0.627136,
-1.11237,0.617981,
-1.10779,0.613403,
-1.09863,0.622559,
-1.09253,0.630188,
-1.08337,0.628662,
-1.07117,0.624084,
-1.06201,0.613403,
-1.05896,0.619507,
-1.05133,0.631714,
-1.0437,0.630188,
-1.03912,0.619507,
-1.03149,0.617981,
-1.02692,0.622559,
-1.01776,0.627136,
-1.01776,0.630188,
-1.01471,0.622559,
-1.01471,0.614929,
-1.01166,0.614929,
-1.01166,0.627136,
-1.01776,0.628662,
-1.02234,0.614929,
-1.03302,0.617981,
-1.03455,0.622559,
-1.04675,0.62561,
-1.05286,0.630188,
-1.06354,0.622559,
-1.07117,0.613403,
-1.08185,0.627136,
-1.09711,0.628662,
-1.10931,0.628662,
-1.12,0.622559,
-1.12915,0.617981,
-1.14288,0.624084,
-1.15662,0.627136,
-1.17035,0.628662,
-1.18408,0.619507,
-1.19934,0.613403,
-1.2146,0.621033,
-1.22986,0.630188,
-1.24054,0.62561,
-1.25732,0.614929,
-1.27106,0.614929,
-1.28937,0.619507,
-1.30615,0.630188,
-1.32446,0.63324,
-1.3443,0.619507,
-1.35651,0.614929,
-1.37329,0.62561,
-1.38702,0.62561,
-1.40533,0.631714,
-1.42822,0.617981,
-1.44348,0.613403,
-1.46484,0.621033,
-1.48468,0.628662,
-1.50146,0.631714,
-1.52283,0.621033,
-1.54266,0.611877,
-1.55945,0.621033,
-1.58691,0.62561,
-1.60217,0.628662,
-1.62201,0.619507,
-1.63879,0.611877,
-1.651,0.622559,
-1.67236,0.63324,
-1.68915,0.631714,
-1.70441,0.622559,
-1.72119,0.614929,
-1.73645,0.619507,
-1.75476,0.631714,
-1.76697,0.631714,
-1.78223,0.619507,
-1.79443,0.619507,
-1.81274,0.622559,
-1.828,0.628662,
-1.84174,0.636292,
-1.85547,0.619507,
-1.87073,0.614929,
-1.88293,0.621033,
-1.89362,0.628662,
-1.9043,0.630188,
-1.92261,0.617981,
-1.93787,0.610352,
-1.94397,0.624084,
-1.96075,0.62561,
-1.97296,0.627136,
-1.98517,0.619507,
-1.99738,0.604248,
-2.00958,0.621033,
-2.02026,0.628662,
-2.02942,0.628662,
-2.04468,0.619507,
-2.05841,0.613403,
-2.05994,0.622559,
-2.07367,0.634766,
-2.08435,0.630188,
-2.09198,0.613403,
-2.10571,0.610352,
-2.11487,0.621033,
-2.12555,0.630188,
-2.13928,0.628662,
-2.15149,0.617981,
-2.16217,0.611877,
-2.17438,0.619507,
-2.18506,0.627136,
-2.19879,0.636292,
-2.2049,0.617981,
-2.21405,0.610352,
-2.22473,0.624084,
-2.23694,0.62561,
-2.24915,0.630188,
-2.25525,0.621033,
-2.26898,0.613403,
-2.27966,0.624084,
-2.28729,0.62561,
-2.29797,0.63324,
-2.30865,0.617981,
-2.31476,0.611877,
-2.32697,0.624084,
-2.33765,0.62561,
-2.34222,0.627136,
-2.35443,0.619507,
-2.36511,0.6073,
-2.37732,0.624084,
-2.38647,0.627136,
-2.3941,0.624084,
-2.40631,0.614929,
-2.41852,0.613403,
-2.42615,0.619507,
-2.43378,0.631714,
-2.44598,0.627136,
-2.45514,0.624084,
-2.46582,0.610352,
-2.4765,0.621033,
-2.48413,0.617981,
-2.49481,0.628662,
-2.50854,0.622559,
-2.51923,0.6073,
-2.53754,0.622559,
-2.54822,0.62561,
-2.56195,0.62561,
-2.57568,0.631714,
-2.58636,0.610352,
-2.60162,0.62561,
-2.61841,0.624084,
-2.62604,0.628662,
-2.6413,0.621033,
-2.6535,0.610352,
-2.66571,0.624084,
-2.67487,0.62561,
-2.69012,0.62561,
-2.70386,0.622559,
-2.71912,0.613403,
-2.73285,0.621033,
-2.74506,0.628662,
-2.76031,0.628662,
-2.771,0.614929,
-2.78015,0.613403,
-2.78625,0.624084,
-2.79388,0.630188,
-2.79999,0.630188,
-2.79846,0.619507,
-2.79694,0.613403,
-2.79388,0.613403,
-2.7771,0.62561,
-2.76184,0.630188,
-2.73743,0.614929,
-2.71301,0.608826,
-2.68402,0.622559,
-2.64587,0.624084,
-2.60773,0.630188,
-2.56195,0.621033,
-2.51312,0.611877,
-2.45514,0.62561,
-2.3941,0.62561,
-2.33154,0.628662,
-2.2583,0.621033,
-2.18964,0.613403,
-2.11487,0.621033,
-2.04163,0.627136,
-1.96075,0.622559,
-1.88599,0.619507,
-1.81122,0.610352,
-1.73492,0.617981,
-1.66168,0.628662,
-1.58691,0.619507,
-1.51825,0.614929,
-1.44806,0.614929,
-1.37939,0.614929,
-1.31073,0.627136,
-1.25275,0.627136,
-1.19476,0.621033,
-1.14594,0.611877,
-1.09406,0.619507,
-1.05438,0.628662,
-1.00861,0.628662,
-0.973511,0.619507,
-0.942993,0.613403,
-0.915527,0.619507,
-0.889587,0.630188,
-0.868225,0.627136,
-0.854492,0.619507,
-0.843811,0.617981,
-0.836182,0.619507,
-0.828552,0.62561,
-0.827026,0.62561,
-0.823975,0.621033,
-0.828552,0.610352,
-0.828552,0.622559,
-0.83313,0.62561,
-0.843811,0.627136,
-0.85144,0.621033,
-0.866699,0.614929,
-0.875854,0.617981,
-0.888062,0.628662,
-0.904846,0.628662,
-0.915527,0.622559,
-0.930786,0.617981,
-0.941467,0.617981,
-0.96283,0.630188,
-0.976563,0.627136,
-0.999451,0.621033,
-1.01471,0.619507,
-1.03455,0.613403,
-1.05743,0.627136,
-1.07727,0.627136,
-1.10474,0.619507,
-1.1261,0.617981,
-1.15051,0.614929,
-1.17493,0.62561,
-1.19476,0.62561,
-1.21307,0.624084,
-1.23901,0.617981,
-1.25885,0.619507,
-1.28174,0.627136,
-1.29852,0.627136,
-1.31226,0.62561,
-1.32599,0.619507,
-1.34125,0.621033,
-1.35193,0.627136,
-1.35956,0.628662,
-1.37329,0.610352,
-1.38092,0.614929,
-1.39008,0.610352,
-1.39771,0.628662,
-1.39923,0.624084,
-1.40381,0.622559,
-1.40533,0.624084,
-1.40076,0.617981,
-1.40076,0.627136,
-1.39923,0.631714,
-1.3916,0.624084,
-1.38855,0.621033,
-1.38397,0.62561,
-1.37787,0.628662,
-1.37177,0.627136,
-1.36871,0.624084,
-1.35956,0.621033,
-1.3504,0.621033,
-1.34583,0.630188,
-1.34125,0.627136,
-1.33362,0.622559,
-1.33209,0.614929,
-1.32904,0.619507,
-1.32446,0.62561,
-1.32446,0.627136,
-1.32446,0.62561,
-1.32751,0.611877,
-1.32599,0.621033,
-1.33057,0.628662,
-1.33362,0.62561,
-1.33972,0.62561,
-1.34735,0.621033,
-1.35193,0.622559,
-1.35956,0.63324,
-1.36871,0.630188,
-1.37329,0.627136,
-1.38092,0.621033,
-1.38702,0.619507,
-1.39313,0.628662,
-1.40686,0.63324,
-1.41296,0.624084,
-1.42517,0.617981,
-1.4389,0.617981,
-1.44958,0.627136,
-1.46637,0.63324,
-1.48773,0.621033,
-1.50146,0.614929,
-1.51825,0.621033,
-1.53198,0.631714,
-1.55029,0.631714,
-1.56708,0.62561,
-1.58539,0.614929,
-1.60065,0.62561,
-1.61133,0.628662,
-1.63116,0.62561,
-1.6449,0.62561,
-1.66321,0.621033,
-1.67847,0.619507,
-1.69373,0.630188,
-1.70898,0.628662,
-1.72424,0.627136,
-1.73645,0.617981,
-1.75018,0.62561,
-1.76086,0.631714,
-1.7807,0.628662,
-1.79443,0.628662,
-1.81274,0.621033,
-1.83105,0.617981,
-1.84479,0.630188,
-1.86615,0.630188,
-1.88141,0.627136,
-1.89972,0.621033,
-1.92108,0.622559,
-1.93481,0.631714,
-1.95313,0.631714,
-1.96228,0.624084,
-1.97754,0.621033,
-1.98975,0.614929,
-2.005,0.621033,
-2.02179,0.634766,
-2.03552,0.624084,
-2.04926,0.617981,
-2.05994,0.622559,
-2.0752,0.630188,
-2.0874,0.63324,
-2.09961,0.627136,
-2.11182,0.614929,
-2.12097,0.628662,
-2.1347,0.636292,
-2.14081,0.636292,
-2.15454,0.628662,
-2.16522,0.624084,
-2.1759,0.622559,
-2.18811,0.642395,
-2.19727,0.636292,
-2.20947,0.631714,
-2.2171,0.619507,
-2.22168,0.622559,
-2.22931,0.636292,
-2.23999,0.631714,
-2.24609,0.628662,
-2.25525,0.62561,
-2.26288,0.62561,
-2.27203,0.63324,
-2.28424,0.630188,
-2.29034,0.624084,
-2.29797,0.624084,
-2.31018,0.624084,
-2.32086,0.637817,
-2.33307,0.636292,
-2.34375,0.630188,
-2.35443,0.622559,
-2.36206,0.628662,
-2.36816,0.634766,
-2.37274,0.637817,
-2.38037,0.628662,
-2.38647,0.614929,
-2.39563,0.627136,
-2.39868,0.63324,
-2.40936,0.636292,
-2.41699,0.63324,
-2.42615,0.624084,
-2.43378,0.62561,
-2.44751,0.637817,
-2.45819,0.637817,
-2.46735,0.636292,
-2.48108,0.627136,
-2.49481,0.627136,
-2.50702,0.636292,
-2.51465,0.640869,
-2.5238,0.634766,
-2.53601,0.627136,
-2.54822,0.621033,
-2.565,0.637817,
-2.57568,0.637817,
-2.58789,0.631714,
-2.60162,0.627136,
-2.61688,0.624084,
-2.62909,0.628662,
-2.63977,0.640869,
-2.6535,0.631714,
-2.66418,0.622559,
-2.67792,0.630188,
-2.6886,0.63324,
-2.70538,0.640869,
-2.71149,0.63324,
-2.72522,0.622559,
-2.7359,0.63324,
-2.74963,0.636292,
-2.75726,0.639343,
-2.76794,0.63324,
-2.78015,0.627136,
-2.79694,0.62561,
-2.80457,0.636292,
-2.81219,0.637817,
-2.81982,0.634766,
-2.82135,0.624084,
-2.82135,0.630188,
-2.81372,0.640869,
-2.80914,0.634766,
-2.80151,0.634766,
-2.79541,0.631714,
-2.77863,0.624084,
-2.75421,0.639343,
-2.72522,0.643921,
-2.6947,0.631714,
-2.66571,0.630188,
-2.62451,0.630188,
-2.57874,0.639343,
-2.53143,0.648499,
-2.4826,0.637817,
-2.43225,0.630188,
-2.37274,0.630188,
-2.31476,0.639343,
-2.2583,0.648499,
-2.19269,0.63324,
-2.13318,0.627136,
-2.07367,0.630188,
-2.02026,0.636292,
-1.95618,0.643921,
-1.90277,0.636292,
-1.84784,0.627136,
-1.79749,0.631714,
-1.75018,0.639343,
-1.70135,0.642395,
-1.66168,0.636292,
-1.61743,0.630188,
-1.58234,0.631714,
-1.55029,0.637817,
-1.5213,0.645447,
-1.49384,0.636292,
-1.46484,0.630188,
-1.44196,0.631714,
-1.42212,0.640869,
-1.40533,0.640869,
-1.39008,0.631714,
-1.38092,0.63324,
-1.37482,0.631714,
-1.36719,0.640869,
-1.36108,0.645447,
-1.35498,0.63324,
-1.36108,0.63324,
-1.36414,0.634766,
-1.37329,0.637817,
-1.37634,0.648499,
-1.38702,0.639343,
-1.39923,0.63324,
-1.40839,0.634766,
-1.42059,0.640869,
-1.44043,0.650024,
-1.45721,0.640869,
-1.474,0.63324,
-1.49078,0.634766,
-1.50757,0.640869,
-1.53198,0.648499,
-1.55334,0.636292,
-1.57166,0.619507,
-1.59302,0.63324,
-1.61438,0.639343,
-1.63879,0.650024,
-1.66016,0.637817,
-1.68152,0.63324,
-1.70288,0.63324,
-1.72882,0.642395,
-1.75171,0.65155,
-1.77307,0.637817,
-1.79443,0.637817,
-1.80969,0.63324,
-1.82343,0.640869,
-1.84021,0.653076,
-1.85242,0.636292,
-1.86462,0.63324,
-1.88141,0.631714,
-1.89514,0.640869,
-1.90582,0.653076,
-1.91956,0.636292,
-1.92261,0.631714,
-1.93176,0.639343,
-1.93634,0.637817,
-1.94244,0.65155,
-1.94397,0.640869,
-1.94702,0.631714,
-1.94702,0.637817,
-1.94702,0.645447,
-1.94244,0.648499,
-1.94092,0.645447,
-1.93787,0.637817,
-1.93634,0.636292,
-1.93024,0.648499,
-1.92566,0.648499,
-1.92566,0.657654,
-1.92108,0.630188,
-1.91803,0.636292,
-1.91498,0.643921,
-1.91193,0.650024,
-1.90735,0.637817,
-1.90887,0.636292,
-1.90125,0.634766,
-1.90125,0.639343,
-1.90277,0.653076,
-1.89972,0.640869,
-1.89667,0.634766,
-1.89819,0.640869,
-1.89819,0.637817,
-1.90125,0.650024,
-1.90277,0.642395,
-1.90887,0.634766,
-1.9104,0.642395,
-1.91498,0.645447,
-1.92413,0.653076,
-1.93329,0.643921,
-1.94244,0.634766,
-1.9516,0.639343,
-1.96381,0.637817,
-1.97906,0.642395,
-1.98822,0.640869,
-2.00195,0.631714,
-2.01111,0.636292,
-2.02179,0.643921,
-2.03552,0.648499,
-2.04468,0.640869,
-2.06299,0.650024,
-2.0752,0.630188,
-2.09198,0.642395,
-2.10724,0.654602,
-2.12402,0.639343,
-2.13776,0.639343,
-2.15454,0.643921,
-2.17133,0.643921,
-2.18811,0.643921,
-2.20032,0.640869,
-2.21558,0.637817,
-2.22778,0.637817,
-2.24304,0.645447,
-2.25677,0.653076,
-2.27203,0.643921,
-2.28729,0.636292,
-2.30255,0.639343,
-2.31476,0.643921,
-2.32849,0.650024,
-2.3407,0.642395,
-2.35901,0.63324,
-2.37274,0.637817,
-2.38647,0.648499,
-2.40021,0.656128,
-2.41699,0.643921,
-2.4353,0.639343,
-2.45209,0.640869,
-2.46124,0.650024,
-2.4765,0.656128,
-2.49329,0.643921,
-2.50549,0.636292,
-2.52228,0.639343,
-2.53754,0.637817,
-2.54822,0.671387,
-2.56653,0.645447,
-2.57721,0.639343,
-2.59094,0.637817,
-2.60773,0.643921,
-2.61993,0.657654,
-2.63367,0.639343,
-2.64893,0.637817,
-2.65961,0.642395,
-2.67487,0.637817,
-2.6825,0.654602,
-2.69775,0.645447,
-2.71301,0.639343,
-2.72522,0.642395,
-2.74048,0.650024,
-2.75269,0.657654,
-2.76794,0.650024,
-2.77863,0.639343,
-2.78473,0.640869,
-2.79694,0.648499,
-2.80609,0.656128,
-2.81525,0.639343,
-2.82745,0.640869,
-2.83508,0.642395,
-2.84729,0.650024,
-2.85797,0.654602,
-2.86407,0.643921,
-2.87628,0.640869,
-2.88239,0.639343,
-2.88849,0.650024,
-2.9007,0.656128,
-2.90833,0.642395,
-2.91138,0.630188,
-2.92358,0.639343,
-2.92664,0.648499,
-2.93579,0.656128,
-2.94647,0.65155,
-2.9541,0.639343,
-2.95868,0.642395,
-2.96478,0.657654,
-2.97089,0.656128,
-2.98157,0.648499,
-2.99225,0.640869,
-2.99988,0.642395,
-3.01056,0.645447,
-3.01819,0.654602,
-3.03192,0.65155,
-3.03802,0.634766,
-3.0426,0.640869,
-3.05786,0.65155,
-3.06244,0.653076,
-3.07159,0.648499,
-3.0838,0.642395,
-3.09296,0.640869,
-3.10364,0.653076,
-3.11584,0.65918,
-3.12805,0.65155,
-3.14026,0.645447,
-3.15094,0.643921,
-3.1601,0.65155,
-3.17383,0.656128,
-3.18298,0.642395,
-3.19672,0.640869,
-3.20587,0.640869,
-3.21655,0.65155,
-3.22723,0.654602,
-3.23792,0.650024,
-3.24554,0.639343,
-3.26233,0.631714,
-3.26691,0.648499,
-3.27911,0.65918,
-3.28979,0.65155,
-3.30048,0.639343,
-3.31421,0.640869,
-3.32031,0.65155,
-3.33099,0.650024,
-3.34473,0.653076,
-3.35388,0.640869,
-3.36304,0.637817,
-3.37524,0.653076,
-3.38593,0.657654,
-3.39203,0.648499,
-3.39966,0.639343,
-3.40881,0.639343,
-3.41492,0.653076,
-3.41797,0.654602,
-3.41797,0.643921,
-3.41797,0.640869,
-3.41187,0.640869,
-3.40424,0.65155,
-3.38745,0.656128,
-3.37067,0.643921,
-3.34625,0.640869,
-3.31879,0.643921,
-3.28979,0.653076,
-3.24707,0.660706,
-3.2074,0.654602,
-3.16162,0.643921,
-3.11279,0.648499,
-3.05939,0.656128,
-3.00293,0.656128,
-2.94647,0.653076,
-2.88239,0.643921,
-2.81372,0.639343,
-2.75116,0.654602,
-2.68402,0.656128,
-2.61078,0.653076,
-2.54517,0.637817,
-2.47192,0.642395,
-2.40631,0.65155,
-2.33917,0.65155,
-2.27661,0.65155,
-2.21405,0.643921,
-2.15302,0.643921,
-2.09351,0.653076,
-2.04163,0.653076,
-1.9928,0.650024,
-1.95007,0.645447,
-1.90735,0.645447,
-1.87378,0.65155,
-1.83868,0.656128,
-1.80969,0.653076,
-1.78223,0.642395,
-1.75934,0.645447,
-1.7395,0.648499,
-1.72424,0.656128,
-1.70746,0.653076,
-1.6922,0.642395,
-1.67999,0.645447,
-1.67389,0.650024,
-1.67084,0.653076,
-1.66626,0.656128,
-1.66168,0.637817,
-1.6571,0.645447,
-1.65253,0.653076,
-1.65405,0.654602,
-1.65863,0.65918,
-1.66168,0.640869,
-1.66473,0.648499,
-1.67084,0.654602,
-1.67542,0.654602,
-1.68762,0.65155,
-1.6922,0.645447,
-1.69983,0.642395,
-1.70593,0.653076,
-1.71661,0.65918,
-1.72729,0.65155,
-1.7334,0.643921,
-1.74561,0.642395,
-1.75476,0.650024,
-1.76544,0.654602,
-1.77612,0.650024,
-1.7868,0.639343,
-1.79901,0.645447,
-1.80969,0.650024,
-1.82037,0.656128,
-1.83411,0.654602,
-1.84631,0.636292,
-1.85699,0.650024,
-1.8692,0.653076,
-1.88293,0.653076,
-1.89514,0.657654,
-1.90582,0.642395,
-1.91498,0.645447,
-1.92719,0.65918,
-1.93481,0.656128,
-1.94092,0.654602,
-1.95007,0.642395,
-1.9577,0.642395,
-1.95618,0.653076,
-1.9577,0.654602,
-1.95923,0.653076,
-1.96228,0.640869,
-1.96075,0.640869,
-1.96075,0.656128,
-1.96075,0.657654,
-1.95923,0.65155,
-1.95923,0.643921,
-1.95618,0.645447,
-1.95465,0.653076,
-1.9516,0.65918,
-1.95007,0.653076,
-1.94702,0.643921,
-1.94244,0.648499,
-1.93939,0.65155,
-1.93787,0.65918,
-1.93329,0.656128,
-1.93329,0.639343,
-1.93024,0.642395,
-1.92871,0.65155,
-1.92719,0.656128,
-1.92871,0.645447,
-1.92719,0.636292,
-1.93024,0.645447,
-1.93481,0.65918,
-1.93634,0.653076,
-1.93634,0.656128,
-1.94092,0.643921,
-1.94855,0.640869,
-1.95618,0.653076,
-1.95923,0.657654,
-1.96381,0.653076,
-1.97144,0.648499,
-1.98059,0.650024,
-1.98669,0.654602,
-1.99585,0.660706,
-2.005,0.653076,
-2.01416,0.642395,
-2.02179,0.648499,
-2.03552,0.653076,
-2.0462,0.65918,
-2.05231,0.65155,
-2.06757,0.642395,
-2.08435,0.643921,
-2.09503,0.65155,
-2.10724,0.65918,
-2.11487,0.653076,
-2.13013,0.637817,
-2.13928,0.650024,
-2.15454,0.65155,
-2.1637,0.654602,
-2.1759,0.653076,
-2.18811,0.648499,
-2.19727,0.648499,
-2.20337,0.65155,
-2.22015,0.650024,
-2.23389,0.648499,
-2.24457,0.645447,
-2.25525,0.648499,
-2.26898,0.653076,
-2.28729,0.656128,
-2.29797,0.650024,
-2.30865,0.643921,
-2.32239,0.640869,
-2.33307,0.653076,
-2.3468,0.65918,
-2.36053,0.65155,
-2.36969,0.643921,
-2.38342,0.645447,
-2.39258,0.65155,
-2.40479,0.656128,
-2.42157,0.656128,
-2.43683,0.642395,
-2.45819,0.648499,
-2.46582,0.65155,
-2.48566,0.654602,
-2.49329,0.657654,
-2.51007,0.642395,
-2.52533,0.645447,
-2.53754,0.656128,
-2.55127,0.650024,
-2.565,0.654602,
-2.57721,0.642395,
-2.58942,0.642395,
-2.60162,0.653076,
-2.6123,0.653076,
-2.62146,0.653076,
-2.63214,0.643921,
-2.64587,0.640869,
-2.65503,0.657654,
-2.66418,0.656128,
-2.67944,0.653076,
-2.69012,0.643921,
-2.69928,0.645447,
-2.71301,0.653076,
-2.72522,0.65918,
-2.73895,0.65155,
-2.74658,0.645447,
-2.75421,0.648499,
-2.76489,0.650024,
-2.771,0.657654,
-2.78015,0.65155,
-2.79388,0.643921,
-2.80304,0.640869,
-2.80914,0.662231,
-2.82288,0.657654,
-2.83661,0.654602,
-2.84271,0.640869,
-2.85645,0.643921,
-2.86865,0.654602,
-2.87628,0.65155,
-2.88849,0.656128,
-2.89459,0.650024,
-2.89917,0.642395,
-2.9129,0.657654,
-2.92206,0.660706,
-2.92664,0.657654,
-2.93427,0.650024,
-2.94342,0.640869,
-2.94952,0.656128,
-2.95715,0.657654,
-2.96631,0.648499,
-2.97394,0.648499,
-2.98462,0.640869,
-2.9892,0.65155,
-2.99835,0.65918,
-3.00598,0.650024,
-3.01208,0.643921,
-3.02124,0.643921,
-3.0304,0.653076,
-3.03802,0.662231,
-3.05023,0.653076,
-3.05786,0.642395,
-3.07159,0.648499,
-3.08075,0.656128,
-3.0899,0.660706,
-3.09906,0.653076,
-3.11127,0.645447,
-3.12347,0.65155,
-3.13721,0.65155,
-3.14331,0.65918,
-3.15857,0.654602,
-3.17078,0.639343,
-3.17993,0.643921,
-3.19061,0.653076,
-3.19672,0.656128,
-3.20587,0.65155,
-3.21503,0.645447,
-3.22571,0.640869,
-3.23334,0.65155,
-3.24402,0.662231,
-3.25623,0.653076,
-3.26538,0.648499,
-3.27454,0.643921,
-3.28827,0.650024,
-3.29895,0.662231,
-3.30353,0.65155,
-3.31421,0.645447,
-3.32184,0.642395,
-3.32947,0.654602,
-3.34167,0.65918,
-3.35388,0.650024,
-3.36456,0.642395,
-3.3783,0.642395,
-3.3905,0.650024,
-3.40271,0.65918,
-3.40729,0.650024,
-3.41644,0.639343,
-3.4256,0.640869,
-3.43323,0.650024,
-3.43475,0.65918,
-3.43628,0.653076,
-3.43323,0.642395,
-3.4256,0.643921,
-3.41797,0.653076,
-3.40424,0.660706,
-3.38745,0.648499,
-3.36456,0.643921,
-3.33557,0.645447,
-3.31116,0.654602,
-3.27911,0.662231,
-3.24402,0.653076,
-3.20435,0.643921,
-3.1601,0.645447,
-3.11127,0.650024,
-3.06091,0.657654,
-3.00903,0.645447,
-2.94952,0.642395,
-2.89459,0.640869,
-2.83356,0.654602,
-2.76794,0.660706,
-2.70386,0.65155,
-2.63824,0.640869,
-2.57416,0.640869,
-2.51312,0.654602,
-2.45361,0.654602,
-2.39258,0.654602,
-2.33459,0.643921,
-2.27814,0.639343,
-2.22473,0.654602,
-2.1759,0.65918,
-2.13165,0.65155,
-2.08588,0.645447,
-2.04468,0.640869,
-2.00958,0.650024,
-1.97754,0.662231,
-1.9516,0.648499,
-1.92413,0.648499,
-1.90582,0.637817,
-1.88599,0.648499,
-1.87378,0.663757,
-1.86768,0.645447,
-1.85699,0.643921,
-1.85089,0.640869,
-1.84631,0.65155,
-1.84174,0.657654,
-1.84174,0.65155,
-1.84479,0.640869,
-1.84479,0.642395,
-1.84784,0.654602,
-1.84937,0.65918,
-1.85242,0.654602,
-1.86157,0.643921,
-1.86462,0.643921,
-1.87225,0.650024,
-1.88293,0.656128,
-1.89667,0.653076,
-1.9043,0.643921,
-1.91803,0.643921,
-1.92871,0.65155,
-1.93939,0.656128,
-1.95618,0.65155,
-1.96991,0.642395,
-1.98517,0.642395,
-2.005,0.654602,
-2.02179,0.660706,
-2.03705,0.645447,
-2.05994,0.643921,
-2.07214,0.645447,
-2.08893,0.650024,
-2.10876,0.660706,
-2.12708,0.65155,
-2.14386,0.642395,
-2.15759,0.645447,
-2.17285,0.653076,
-2.18658,0.65918,
-2.19574,0.65155,
-2.20337,0.640869,
-2.21405,0.645447,
-2.21863,0.65155,
-2.22473,0.656128,
-2.22931,0.653076,
-2.23694,0.639343,
-2.23999,0.639343,
-2.24304,0.65155,
-2.24304,0.654602,
-2.24152,0.65155,
-2.24152,0.642395,
-2.23694,0.643921,
-2.23389,0.650024,
-2.22778,0.65918,
-2.22473,0.648499,
-2.22015,0.65155,
-2.21558,0.648499,
-2.20795,0.65155,
-2.19879,0.65918,
-2.19269,0.650024,
-2.18658,0.643921,
-2.17896,0.642395,
-2.18048,0.650024,
-2.17133,0.657654,
-2.16522,0.65155,
-2.16522,0.637817,
-2.15912,0.640869,
-2.15759,0.648499,
-2.15454,0.656128,
-2.15302,0.650024,
-2.15149,0.634766,
-2.15302,0.640869,
-2.15302,0.645447,
-2.15302,0.653076,
-2.15454,0.650024,
-2.15759,0.642395,
-2.15912,0.640869,
-2.16064,0.65155,
-2.16217,0.65918,
-2.16064,0.653076,
-2.1637,0.648499,
-2.16217,0.650024,
-2.1698,0.65155,
-2.17438,0.657654,
-2.18201,0.65155,
-2.18811,0.648499,
-2.19727,0.636292,
-2.20795,0.645447,
-2.22473,0.654602,
-2.23236,0.650024,
-2.24762,0.639343,
-2.2583,0.640869,
-2.27203,0.648499,
-2.28424,0.654602,
-2.30255,0.654602,
-2.31018,0.639343,
-2.31781,0.637817,
-2.32849,0.650024,
-2.34375,0.65155,
-2.35596,0.654602,
-2.36816,0.640869,
-2.37732,0.643921,
-2.388,0.650024,
-2.40173,0.653076,
-2.41547,0.648499,
-2.42462,0.640869,
-2.4353,0.637817,
-2.44446,0.650024,
-2.45667,0.642395,
-2.46582,0.643921,
-2.4765,0.654602,
-2.48566,0.630188,
-2.49329,0.648499,
-2.50549,0.654602,
-2.51617,0.643921,
-2.52838,0.640869,
-2.54059,0.639343,
-2.54822,0.639343,
-2.56042,0.654602,
-2.56805,0.65155,
-2.57721,0.640869,
-2.58331,0.642395,
-2.59399,0.648499,
-2.6062,0.654602,
-2.6123,0.654602,
-2.61993,0.640869,
-2.62909,0.640869,
-2.63672,0.643921,
-2.63977,0.65155,
-2.64893,0.65155,
-2.65198,0.639343,
-2.65961,0.639343,
-2.66418,0.650024,
-2.67334,0.65918,
-2.67944,0.650024,
-2.69165,0.642395,
-2.69775,0.630188,
-2.70844,0.648499,
-2.71759,0.653076,
-2.72369,0.65155,
-2.72827,0.642395,
-2.73743,0.639343,
-2.74506,0.648499,
-2.75116,0.653076,
-2.75726,0.65155,
-2.76337,0.639343,
-2.76642,0.640869,
-2.77863,0.648499,
-2.78931,0.654602,
-2.79541,0.645447,
-2.80457,0.630188,
-2.81372,0.634766,
-2.82288,0.639343,
-2.83051,0.65155,
-2.83813,0.65155,
-2.84882,0.636292,
-2.86255,0.634766,
-2.86713,0.643921,
-2.8717,0.645447,
-2.87933,0.65918,
-2.88849,0.639343,
-2.89764,0.636292,
-2.90222,0.648499,
-2.91138,0.654602,
-2.91901,0.65155,
-2.92511,0.642395,
-2.93427,0.637817,
-2.94189,0.642395,
-2.95258,0.654602,
-2.96326,0.65155,
-2.97089,0.640869,
-2.98157,0.640869,
-2.99225,0.643921,
-3.00446,0.653076,
-3.01666,0.650024,
-3.02734,0.637817,
-3.03497,0.636292,
-3.04718,0.640869,
-3.05481,0.65155,
-3.06549,0.653076,
-3.07617,0.631714,
-3.0838,0.640869,
-3.09448,0.642395,
-3.10211,0.65155,
-3.11279,0.650024,
-3.12195,0.639343,
-3.13263,0.639343,
-3.14026,0.645447,
-3.14484,0.650024,
-3.15247,0.65155,
-3.15704,0.636292,
-3.16162,0.634766,
-3.16315,0.640869,
-3.16315,0.650024,
-3.16315,0.648499,
-3.15857,0.639343,
-3.15399,0.630188,
-3.14178,0.640869,
-3.12958,0.650024,
-3.10516,0.648499,
-3.08838,0.636292,
-3.05939,0.637817,
-3.03192,0.640869,
-2.99835,0.650024,
-2.95715,0.650024,
-2.91595,0.636292,
-2.87781,0.636292,
-2.83203,0.640869,
-2.77863,0.653076,
-2.72522,0.645447,
-2.67029,0.634766,
-2.61841,0.640869,
-2.5589,0.640869,
-2.49634,0.650024,
-2.44293,0.648499,
-2.38495,0.636292,
-2.31934,0.636292,
-2.26898,0.645447,
-2.21252,0.650024,
-2.15759,0.645447,
-2.10419,0.636292,
-2.05231,0.636292,
-2.00958,0.643921,
-1.96228,0.650024,
-1.91956,0.648499,
-1.88293,0.636292,
-1.84784,0.637817,
-1.81885,0.643921,
-1.78833,0.65155,
-1.76544,0.650024,
-1.74713,0.637817,
-1.72729,0.63324,
-1.71509,0.637817,
-1.69678,0.650024,
-1.68762,0.645447,
-1.67694,0.634766,
-1.67542,0.631714,
-1.67084,0.640869,
-1.66626,0.653076,
-1.66626,0.645447,
-1.66779,0.63324,
-1.66931,0.63324,
-1.67389,0.640869,
-1.68152,0.648499,
-1.68762,0.645447,
-1.69983,0.636292,
-1.70593,0.63324,
-1.71814,0.637817,
-1.73492,0.648499,
-1.75171,0.648499,
-1.76392,0.640869,
-1.78223,0.628662,
-1.79901,0.639343,
-1.81885,0.648499,
-1.83258,0.648499,
-1.84631,0.640869,
-1.86615,0.628662,
-1.88293,0.642395,
-1.9043,0.648499,
-1.92413,0.637817,
-1.94092,0.631714,
-1.96381,0.63324,
-1.98212,0.637817,
-1.99738,0.645447,
-2.01721,0.643921,
-2.03094,0.637817,
-2.0462,0.630188,
-2.06299,0.634766,
-2.07367,0.640869,
-2.08435,0.640869,
-2.09656,0.634766,
-2.10571,0.630188,
-2.11487,0.637817,
-2.1225,0.645447,
-2.12708,0.645447,
-2.13013,0.637817,
-2.1347,0.636292,
-2.13623,0.639343,
-2.1347,0.648499,
-2.13623,0.642395,
-2.1347,0.63324,
-2.1286,0.624084,
-2.12555,0.639343,
-2.12097,0.645447,
-2.11334,0.643921,
-2.10876,0.630188,
-2.10266,0.631714,
-2.09656,0.639343,
-2.08893,0.642395,
-2.08435,0.640869,
-2.0813,0.636292,
-2.07672,0.627136,
-2.07214,0.639343,
-2.06909,0.648499,
-2.06604,0.642395,
-2.05841,0.631714,
-2.05841,0.631714,
-2.05536,0.639343,
-2.05383,0.648499,
-2.04926,0.643921,
-2.04773,0.634766,
-2.04773,0.628662,
-2.0462,0.637817,
-2.0462,0.645447,
-2.05078,0.645447,
-2.05383,0.63324,
-2.05688,0.634766,
-2.05841,0.636292,
-2.06909,0.643921,
-2.07367,0.642395,
-2.0813,0.631714,
-2.08435,0.624084,
-2.09503,0.639343,
-2.09961,0.640869,
-2.10876,0.642395,
-2.12402,0.63324,
-2.13013,0.63324,
-2.13776,0.63324,
-2.15149,0.645447,
-2.16064,0.643921,
-2.17133,0.63324,
-2.18353,0.630188,
-2.19879,0.634766,
-2.211,0.642395,
-2.22321,0.643921,
-2.23694,0.634766,
-2.24609,0.624084,
-2.2583,0.63324,
-2.26898,0.648499,
-2.27966,0.639343,
-2.2934,0.63324,
-2.31171,0.627136,
-2.32239,0.634766,
-2.33459,0.648499,
-2.3468,0.642395,
-2.36206,0.637817,
-2.37427,0.628662,
-2.388,0.637817,
-2.39868,0.645447,
-2.40784,0.640869,
-2.4231,0.63324,
-2.4353,0.631714,
-2.44598,0.637817,
-2.46124,0.642395,
-2.4765,0.642395,
-2.4826,0.631714,
-2.49634,0.628662,
-2.5116,0.637817,
-2.5238,0.639343,
-2.53906,0.642395,
-2.54822,0.634766,
-2.56195,0.627136,
-2.56958,0.639343,
-2.58179,0.643921,
-2.59247,0.639343,
-2.60468,0.637817,
-2.61841,0.630188,
-2.62451,0.63324,
-2.62909,0.648499,
-2.64435,0.645447,
-2.65503,0.63324,
-2.66266,0.630188,
-2.67334,0.636292,
-2.68555,0.645447,
-2.69623,0.640869,
-2.70538,0.63324,
-2.71606,0.631714,
-2.72522,0.634766,
-2.742,0.642395,
-2.75116,0.642395,
-2.76184,0.63324,
-2.77252,0.628662,
-2.78015,0.636292,
-2.78931,0.639343,
-2.80457,0.642395,
-2.81219,0.631714,
-2.82135,0.62561,
-2.82593,0.639343,
-2.83661,0.643921,
-2.84729,0.643921,
-2.85645,0.634766,
-2.86255,0.630188,
-2.86713,0.636292,
-2.87781,0.642395,
-2.89001,0.640869,
-2.89612,0.63324,
-2.90222,0.62561,
-2.90833,0.631714,
-2.91748,0.643921,
-2.92816,0.63324,
-2.93884,0.63324,
-2.94189,0.622559,
-2.94952,0.63324,
-2.95715,0.637817,
-2.96478,0.640869,
-2.97241,0.630188,
-2.97394,0.627136,
-2.98462,0.636292,
-2.98767,0.642395,
-2.9892,0.645447,
-2.99683,0.631714,
-3.00751,0.628662,
-3.01208,0.637817,
-3.01819,0.643921,
-3.02887,0.640869,
-3.03497,0.636292,
-3.04108,0.627136,
-3.05328,0.639343,
-3.05939,0.63324,
-3.07159,0.640869,
-3.08075,0.63324,
-3.08838,0.628662,
-3.09753,0.631714,
-3.10364,0.643921,
-3.11127,0.639343,
-3.1189,0.634766,
-3.12653,0.63324,
-3.1311,0.636292,
-3.13873,0.643921,
-3.14331,0.640869,
-3.14484,0.63324,
-3.15399,0.628662,
-3.15857,0.636292,
-3.16772,0.642395,
-3.1723,0.637817,
-3.17841,0.636292,
-3.18756,0.62561,
-3.19672,0.631714,
-3.19824,0.637817,
-3.2074,0.639343,
-3.21808,0.631714,
-3.22723,0.627136,
-3.23029,0.63324,
-3.23944,0.639343,
-3.25317,0.642395,
-3.25623,0.63324,
-3.26691,0.624084,
-3.26843,0.63324,
-3.27606,0.640869,
-3.27759,0.636292,
-3.27606,0.634766,
-3.27148,0.628662,
-3.25928,0.63324,
-3.24554,0.639343,
-3.22876,0.637817,
-3.20282,0.631714,
-3.1723,0.631714,
-3.13873,0.631714,
-3.09906,0.642395,
-3.05786,0.637817,
-3.01208,0.631714,
-2.95715,0.628662,
-2.89612,0.630188,
-2.83203,0.639343,
-2.76947,0.639343,
-2.6947,0.630188,
-2.62146,0.627136,
-2.54364,0.631714,
-2.4704,0.637817,
-2.388,0.639343,
-2.30865,0.634766,
-2.22321,0.62561,
-2.14081,0.634766,
-2.05688,0.642395,
-1.97601,0.636292,
-1.89972,0.631714,
-1.82037,0.62561,
-1.75018,0.639343,
-1.68152,0.642395,
-1.62201,0.640869,
-1.56403,0.630188,
-1.50452,0.62561,
-1.46027,0.628662,
-1.41449,0.642395,
-1.37329,0.636292,
-1.33972,0.630188,
-1.30463,0.62561,
-1.27411,0.630188,
-1.24512,0.639343,
-1.22986,0.640869,
-1.2085,0.631714,
-1.19629,0.628662,
-1.18103,0.634766,
-1.17188,0.630188,
-1.1673,0.639343,
-1.16119,0.63324,
-1.15814,0.62561,
-1.15356,0.631714,
-1.15356,0.637817,
-1.15509,0.640869,
-1.16119,0.627136,
-1.17035,0.622559,
-1.17493,0.63324,
-1.17645,0.636292,
-1.18103,0.636292,
-1.18256,0.631714,
-1.18866,0.624084,
-1.19476,0.634766,
-1.20087,0.640869,
-1.21002,0.637817,
-1.22223,0.63324,
-1.23291,0.62561,
-1.24359,0.63324,
-1.2558,0.643921,
-1.26801,0.631714,
-1.28479,0.631714,
-1.30005,0.63324,
-1.31378,0.63324,
-1.32904,0.640869,
-1.34735,0.637817,
-1.35956,0.62561,
-1.37482,0.631714,
-1.39313,0.627136,
-1.40381,0.654602,
-1.41754,0.637817,
-1.42517,0.62561,
-1.43585,0.630188,
-1.44348,0.63324,
-1.45111,0.636292,
-1.46179,0.636292,
-1.46637,0.630188,
-1.474,0.628662,
-1.48315,0.628662,
-1.48621,0.639343,
-1.48773,0.637817,
-1.49078,0.630188,
-1.49384,0.628662,
-1.49536,0.631714,
-1.49841,0.637817,
-1.49689,0.62561,
-1.49689,0.630188,
-1.49078,0.62561,
-1.48926,0.627136,
-1.48468,0.639343,
-1.48468,0.636292,
-1.47552,0.631714,
-1.4679,0.642395,
-1.46332,0.624084,
-1.46027,0.640869,
-1.45874,0.637817,
-1.45721,0.630188,
-1.44806,0.63324,
-1.45111,0.630188,
-1.44501,0.637817,
-1.44348,0.637817,
-1.44348,0.628662,
-1.44348,0.62561,
-1.44043,0.627136,
-1.43738,0.636292,
-1.4389,0.639343,
-1.44043,0.624084,
-1.44348,0.624084,
-1.44806,0.631714,
-1.44958,0.636292,
-1.45721,0.636292,
-1.46637,0.630188,
-1.47552,0.622559,
-1.48468,0.628662,
-1.49231,0.639343,
-1.50452,0.63324,
-1.51672,0.630188,
-1.52588,0.628662,
-1.53656,0.628662,
-1.54114,0.639343,
-1.55487,0.636292,
-1.56708,0.628662,
-1.58386,0.622559,
-1.59607,0.627136,
-1.60828,0.640869,
-1.62201,0.634766,
-1.63727,0.62561,
-1.65253,0.622559,
-1.66473,0.62561,
-1.67847,0.648499,
-1.6922,0.627136,
-1.71204,0.62561,
-1.72119,0.621033,
-1.73645,0.628662,
-1.75323,0.636292,
-1.76392,0.639343,
-1.77765,0.62561,
-1.79138,0.610352,
-1.80359,0.63324,
-1.81885,0.639343,
-1.83411,0.640869,
-1.84479,0.627136,
-1.86005,0.622559,
-1.87378,0.630188,
-1.88904,0.657654,
-1.90277,0.63324,
-1.91498,0.627136,
-1.92719,0.622559,
-1.94397,0.627136,
-1.96075,0.639343,
-1.97906,0.63324,
-1.99127,0.62561,
-2.00806,0.62561,
-2.02179,0.62561,
-2.034,0.637817,
-2.0462,0.634766,
-2.05841,0.62561,
-2.07214,0.622559,
-2.08282,0.627136,
-2.09961,0.634766,
-2.11029,0.637817,
-2.12555,0.631714,
-2.13318,0.628662,
-2.14996,0.631714,
-2.15912,0.637817,
-2.1698,0.637817,
-2.18201,0.628662,
-2.19574,0.624084,
-2.2049,0.630188,
-2.2171,0.637817,
-2.22778,0.631714,
-2.23846,0.627136,
-2.24762,0.622559,
-2.25983,0.631714,
-2.27509,0.637817,
-2.28577,0.63324,
-2.29187,0.627136,
-2.2995,0.624084,
-2.31171,0.630188,
-2.31934,0.639343,
-2.32544,0.642395,
-2.33307,0.627136,
-2.34375,0.621033,
-2.35138,0.62561,
-2.36206,0.636292,
-2.37427,0.636292,
-2.38495,0.624084,
-2.38953,0.62561,
-2.39716,0.62561,
-2.40479,0.634766,
-2.41699,0.63324,
-2.42462,0.622559,
-2.43225,0.624084,
-2.44141,0.627136,
-2.45361,0.634766,
-2.46124,0.63324,
-2.46582,0.628662,
-2.47955,0.619507,
-2.49023,0.630188,
-2.49939,0.637817,
-2.50549,0.634766,
-2.51617,0.630188,
-2.5238,0.622559,
-2.53448,0.627136,
-2.54364,0.636292,
-2.55127,0.636292,
-2.56653,0.62561,
-2.57416,0.611877,
-2.58331,0.634766,
-2.59399,0.637817,
-2.60315,0.628662,
-2.61536,0.627136,
-2.62299,0.621033,
-2.63519,0.630188,
-2.65045,0.63324,
-2.66571,0.636292,
-2.67487,0.642395,
-2.69012,0.624084,
-2.69928,0.627136,
-2.71454,0.631714,
-2.71912,0.636292,
-2.73285,0.628662,
-2.74658,0.62561,
-2.76031,0.628662,
-2.76794,0.636292,
-2.77863,0.630188,
-2.78625,0.627136,
-2.79999,0.622559,
-2.80762,0.624084,
-2.82135,0.634766,
-2.82898,0.634766,
-2.84271,0.62561,
-2.85339,0.617981,
-2.8656,0.62561,
-2.87781,0.631714,
-2.89307,0.63324,
-2.9007,0.627136,
-2.90985,0.622559,
-2.92206,0.62561,
-2.93121,0.636292,
-2.94037,0.636292,
-2.948,0.627136,
-2.95868,0.62561,
-2.97089,0.627136,
-2.98309,0.636292,
-2.98767,0.634766,
-2.99988,0.622559,
-3.0014,0.613403,
-3.01208,0.627136,
-3.01208,0.637817,
-3.01819,0.634766,
-3.01208,0.624084,
-3.01056,0.614929,
-2.99835,0.627136,
-2.98309,0.630188,
-2.96936,0.63324,
-2.95258,0.62561,
-2.92664,0.621033,
-2.89764,0.627136,
-2.86713,0.637817,
-2.82898,0.63324,
-2.79083,0.619507,
-2.74353,0.622559,
-2.69318,0.62561,
-2.63977,0.631714,
-2.58331,0.634766,
-2.52075,0.622559,
-2.45514,0.622559,
-2.38647,0.62561,
-2.31476,0.631714,
-2.24304,0.634766,
-2.16675,0.622559,
-2.09198,0.619507,
-2.01111,0.621033,
-1.93939,0.634766,
-1.86768,0.634766,
-1.79138,0.621033,
-1.72272,0.617981,
-1.66016,0.624084,
-1.59302,0.630188,
-1.53809,0.634766,
-1.48315,0.624084,
-1.43433,0.619507,
-1.39008,0.628662,
-1.34583,0.63324,
-1.30615,0.634766,
-1.27411,0.62561,
-1.24207,0.614929,
-1.2146,0.62561,
-1.18713,0.631714,
-1.16425,0.631714,
-1.14746,0.621033,
-1.1322,0.614929,
-1.12152,0.617981,
-1.11237,0.631714,
-1.10931,0.630188,
-1.10779,0.622559,
-1.10474,0.631714,
-1.10168,0.617981,
-1.10931,0.631714,
-1.11389,0.634766,
-1.11542,0.611877,
-1.12152,0.621033,
-1.12762,0.624084,
-1.13983,0.628662,
-1.15204,0.636292,
-1.16425,0.622559,
-1.1734,0.619507,
-1.18866,0.62561,
-1.20392,0.631714,
-1.21918,0.636292,
-1.24054,0.622559,
-1.2558,0.611877,
-1.26953,0.624084,
-1.29089,0.631714,
-1.3092,0.630188,
-1.32751,0.622559,
-1.3443,0.613403,
-1.36414,0.621033,
-1.38702,0.634766,
-1.40686,0.630188,
-1.42059,0.619507,
-1.4389,0.617981,
-1.45874,0.624084,
-1.47705,0.634766,
-1.49078,0.63324,
-1.50452,0.624084,
-1.51978,0.617981,
-1.53046,0.62561,
-1.54114,0.631714,
-1.55182,0.634766,
-1.56097,0.619507,
-1.57013,0.621033,
-1.57623,0.622559,
-1.57623,0.630188,
-1.58081,0.63324,
-1.57623,0.622559,
-1.57471,0.613403,
-1.57166,0.628662,
-1.56403,0.630188,
-1.55792,0.636292,
-1.55487,0.621033,
-1.54724,0.613403,
-1.53351,0.622559,
-1.52435,0.631714,
-1.51825,0.63324,
-1.50299,0.62561,
-1.49384,0.619507,
-1.48621,0.62561,
-1.47247,0.63324,
-1.46484,0.63324,
-1.46027,0.622559,
-1.45416,0.619507,
-1.44653,0.62561,
-1.44196,0.631714,
-1.43585,0.63324,
-1.43127,0.619507,
-1.42975,0.613403,
-1.4267,0.628662,
-1.42517,0.628662,
-1.42059,0.63324,
-1.41907,0.621033,
-1.42212,0.613403,
-1.42517,0.624084,
-1.4267,0.628662,
-1.43433,0.628662,
-1.43127,0.621033,
-1.44043,0.613403,
-1.44806,0.627136,
-1.46179,0.630188,
-1.46942,0.630188,
-1.4801,0.621033,
-1.48773,0.614929,
-1.49841,0.624084,
-1.50909,0.630188,
-1.5213,0.628662,
-1.53046,0.621033,
-1.54724,0.613403,
-1.55792,0.622559,
-1.57013,0.630188,
-1.58691,0.627136,
-1.60522,0.622559,
-1.62048,0.613403,
-1.63269,0.621033,
-1.64642,0.631714,
-1.66321,0.627136,
-1.67847,0.621033,
-1.69373,0.617981,
-1.70898,0.627136,
-1.72424,0.63324,
-1.74103,0.631714,
-1.75781,0.617981,
-1.77612,0.619507,
-1.79291,0.624084,
-1.81274,0.631714,
-1.83105,0.630188,
-1.84937,0.611877,
-1.8631,0.613403,
-1.88141,0.622559,
-1.89514,0.627136,
-1.9104,0.631714,
-1.92413,0.624084,
-1.93787,0.614929,
-1.95465,0.619507,
-1.97144,0.630188,
-1.98822,0.628662,
-2.00195,0.622559,
-2.01874,0.617981,
-2.03705,0.62561,
-2.04926,0.628662,
-2.05841,0.631714,
-2.0752,0.622559,
-2.0874,0.619507,
-2.10266,0.621033,
-2.11334,0.631714,
-2.12708,0.628662,
-2.14233,0.619507,
-2.16064,0.614929,
-2.16827,0.619507,
-2.18506,0.630188,
-2.19574,0.62561,
-2.21252,0.619507,
-2.22015,0.614929,
-2.23236,0.621033,
-2.24152,0.627136,
-2.25372,0.630188,
-2.26288,0.622559,
-2.27356,0.611877,
-2.28424,0.619507,
-2.29187,0.627136,
-2.30408,0.62561,
-2.31171,0.622559,
-2.31934,0.621033,
-2.33612,0.619507,
-2.34222,0.628662,
-2.3468,0.630188,
-2.36206,0.619507,
-2.37427,0.610352,
-2.37579,0.634766,
-2.388,0.634766,
-2.39563,0.631714,
-2.40631,0.624084,
-2.41547,0.617981,
-2.42462,0.617981,
-2.43378,0.627136,
-2.44751,0.630188,
-2.46124,0.611877,
-2.47345,0.617981,
-2.48413,0.617981,
-2.50092,0.62561,
-2.51312,0.628662,
-2.52838,0.622559,
-2.53754,0.613403,
-2.54974,0.614929,
-2.55737,0.628662,
-2.56958,0.628662,
-2.58026,0.622559,
-2.58789,0.619507,
-2.59552,0.617981,
-2.60315,0.628662,
-2.61688,0.624084,
-2.62146,0.622559,
-2.63214,0.619507,
-2.6413,0.617981,
-2.65045,0.627136,
-2.66113,0.62561,
-2.66876,0.621033,
-2.67944,0.617981,
-2.6886,0.614929,
-2.69775,0.62561,
-2.70386,0.630188,
-2.70844,0.621033,
-2.71301,0.614929,
-2.71454,0.619507,
-2.70996,0.627136,
-2.71301,0.627136,
-2.70538,0.622559,
-2.69012,0.611877,
-2.67792,0.617981,
-2.65961,0.630188,
-2.63062,0.628662,
-2.6001,0.622559,
-2.565,0.621033,
-2.52838,0.613403,
-2.47955,0.630188,
-2.42767,0.628662,
-2.37732,0.627136,
-2.31628,0.621033,
-2.25677,0.614929,
-2.18964,0.627136,
-2.12402,0.628662,
-2.05231,0.613403,
-1.97906,0.614929,
-1.90277,0.6073,
-1.83258,0.627136,
-1.75781,0.628662,
-1.68915,0.621033,
-1.61591,0.611877,
-1.54724,0.617981,
-1.47552,0.624084,
-1.41449,0.628662,
-1.3504,0.619507,
-1.29395,0.613403,
-1.23291,0.617981,
-1.18256,0.630188,
-1.13678,0.624084,
-1.08948,0.62561,
-1.05286,0.621033,
-1.01471,0.621033,
-0.98114,0.631714,
-0.947571,0.62561,
-0.920105,0.622559,
-0.894165,0.614929,
-0.875854,0.614929,
-0.857544,0.627136,
-0.845337,0.621033,
-0.837708,0.627136,
-0.830078,0.614929,
-0.8255,0.610352,
-0.823975,0.62561,
-0.820923,0.628662,
-0.8255,0.621033,
-0.831604,0.613403,
-0.83313,0.619507,
-0.836182,0.628662,
-0.849915,0.631714,
-0.85907,0.617981,
-0.860596,0.613403,
-0.87738,0.619507,
-0.888062,0.627136,
-0.90332,0.631714,
-0.915527,0.622559,
-0.930786,0.611877,
-0.942993,0.614929,
-0.965881,0.62561,
-0.984192,0.631714,
-1.00708,0.621033,
-1.02386,0.610352,
-1.04218,0.602722,
-1.06049,0.62561,
-1.0788,0.627136,
-1.09558,0.619507,
-1.11694,0.613403,
-1.13831,0.617981,
-1.15509,0.62561,
-1.16882,0.636292,
-1.18713,0.621033,
-1.20239,0.617981,
-1.21765,0.617981,
-1.23596,0.622559,
-1.25275,0.628662,
-1.26343,0.624084,
-1.27258,0.614929,
-1.28326,0.617981,
-1.28784,0.622559,
-1.29089,0.62561,
-1.29395,0.614929,
-1.297,0.614929,
-1.30005,0.617981,
-1.30463,0.628662,
-1.3092,0.62561,
-1.30157,0.62561,
-1.29547,0.614929,
-1.29242,0.610352,
-1.28937,0.628662,
-1.28632,0.621033,
-1.28326,0.622559,
-1.28326,0.614929,
-1.27716,0.613403,
-1.27106,0.628662,
-1.26801,0.631714,
-1.26343,0.622559,
-1.2558,0.614929,
-1.25275,0.614929,
-1.25427,0.628662,
-1.24817,0.63324,
-1.24664,0.621033,
-1.25427,0.611877,
-1.25427,0.605774,
-1.25732,0.624084,
-1.2558,0.630188,
-1.25885,0.619507,
-1.2619,0.613403,
-1.26648,0.617981,
-1.27106,0.619507,
-1.27716,0.624084,
-1.28479,0.613403,
-1.28937,0.613403,
-1.29852,0.614929,
-1.3092,0.628662,
-1.31378,0.62561,
-1.32446,0.622559,
-1.33514,0.617981,
-1.3504,0.614929,
-1.36261,0.624084,
-1.38092,0.630188,
-1.3916,0.622559,
-1.40533,0.613403,
-1.42517,0.614929,
-1.44043,0.630188,
-1.45721,0.62561,
-1.474,0.621033,
-1.49536,0.610352,
-1.51367,0.611877,
-1.5274,0.62561,
-1.54572,0.627136,
-1.56097,0.622559,
-1.58081,0.610352,
-1.60065,0.613403,
-1.61285,0.62561,
-1.63116,0.628662,
-1.65253,0.622559,
-1.66321,0.611877,
-1.68304,0.613403,
-1.69983,0.627136,
-1.71967,0.631714,
-1.73798,0.624084,
-1.75781,0.613403,
-1.77917,0.619507,
-1.79443,0.62561,
-1.81427,0.627136,
-1.82495,0.619507,
-1.84631,0.613403,
-1.86157,0.614929,
-1.87836,0.62561,
-1.89667,0.627136,
-1.91345,0.622559,
-1.93329,0.611877,
-1.9516,0.624084,
-1.97144,0.624084,
-1.99127,0.631714,
-2.00806,0.614929,
-2.02637,0.611877,
-2.04163,0.617981,
-2.05688,0.622559,
-2.07367,0.630188,
-2.09198,0.622559,
-2.10571,0.611877,
-2.12555,0.617981,
-2.1347,0.622559,
-2.15302,0.631714,
-2.1637,0.619507,
-2.17896,0.610352,
-2.19269,0.613403,
-2.20795,0.622559,
-2.22321,0.627136,
-2.23389,0.622559,
-2.24609,0.610352,
-2.25677,0.613403,
-2.26898,0.627136,
-2.28119,0.624084,
-2.28882,0.634766,
-2.2995,0.610352,
-2.31018,0.611877,
-2.31934,0.62561,
-2.33307,0.628662,
-2.34833,0.617981,
-2.35748,0.617981,
-2.37122,0.610352,
-2.37885,0.627136,
-2.39258,0.631714,
-2.40631,0.622559,
-2.41699,0.613403,
-2.42767,0.614929,
-2.43835,0.624084,
-2.44904,0.631714,
-2.45819,0.617981,
-2.47192,0.608826,
-2.47955,0.614929,
-2.49023,0.624084,
-2.50397,0.627136,
-2.51617,0.621033,
-2.52838,0.611877,
-2.54059,0.613403,
-2.55127,0.62561,
-2.56195,0.627136,
-2.57111,0.617981,
-2.58026,0.611877,
-2.59247,0.611877,
-2.60162,0.627136,
-2.61536,0.628662,
-2.62604,0.617981,
-2.63519,0.602722,
-2.64435,0.614929,
-2.65198,0.624084,
-2.66113,0.630188,
-2.67334,0.621033,
-2.68097,0.614929,
-2.69623,0.614929,
-2.69928,0.622559,
-2.71301,0.62561,
-2.72064,0.621033,
-2.73285,0.611877,
-2.742,0.611877,
-2.74963,0.619507,
-2.76031,0.628662,
-2.771,0.621033,
-2.7771,0.610352,
-2.78931,0.614929,
-2.80304,0.624084,
-2.81525,0.627136,
-2.82593,0.619507,
-2.83813,0.614929,
-2.85797,0.611877,
-2.86865,0.62561,
-2.88544,0.631714,
-2.89917,0.621033,
-2.91443,0.614929,
-2.92206,0.610352,
-2.93121,0.624084,
-2.94037,0.628662,
-2.95105,0.617981,
-2.96326,0.610352,
-2.96936,0.613403,
-2.98157,0.622559,
-2.9892,0.628662,
-3.0014,0.619507,
-3.01208,0.613403,
-3.01819,0.613403,
-3.02582,0.621033,
-3.03345,0.630188,
-3.04108,0.619507,
-3.03955,0.611877,
-3.03955,0.613403,
-3.03345,0.622559,
-3.02887,0.630188,
-3.02124,0.613403,
-3.00598,0.611877,
-2.9892,0.613403,
-2.96326,0.62561,
-2.93427,0.630188,
-2.89917,0.614929,
-2.8595,0.613403,
-2.81372,0.613403,
-2.76794,0.621033,
-2.70844,0.630188,
-2.6474,0.619507,
-2.58179,0.611877,
-2.51312,0.605774,
-2.43835,0.621033,
-2.36816,0.627136,
-2.28271,0.613403,
-2.19879,0.611877,
-2.11029,0.614929,
-2.02942,0.617981,
-1.94397,0.627136,
-1.85699,0.621033,
-1.77612,0.608826,
-1.6922,0.617981,
-1.61438,0.62561,
-1.54114,0.62561,
-1.47095,0.622559,
-1.40533,0.614929,
-1.33972,0.614929,
-1.27716,0.621033,
-1.22833,0.624084,
-1.17798,0.619507,
-1.12915,0.613403,
-1.08795,0.608826,
-1.0498,0.622559,
-1.01776,0.617981,
-0.984192,0.614929,
-0.961304,0.611877,
-0.939941,0.611877,
-0.923157,0.624084,
-0.91095,0.630188,
-0.897217,0.617981,
-0.888062,0.617981,
-0.888062,0.613403,
-0.881958,0.622559,
-0.883484,0.628662,
-0.878906,0.614929,
-0.88501,0.611877,
-0.891113,0.613403,
-0.90332,0.621033,
-0.912476,0.62561,
-0.920105,0.613403,
-0.930786,0.608826,
-0.942993,0.621033,
-0.956726,0.621033,
-0.967407,0.624084,
-0.984192,0.619507,
-0.997925,0.610352,
-1.01318,0.613403,
-1.02844,0.624084,
-1.0437,0.619507,
-1.06201,0.622559,
-1.08185,0.613403,
-1.09711,0.611877,
-1.11542,0.622559,
-1.13525,0.628662,
-1.15356,0.617981,
-1.1795,0.611877,
-1.19324,0.614929,
-1.21613,0.622559,
-1.23596,0.627136,
-1.25427,0.614929,
-1.27563,0.610352,
-1.29395,0.610352,
-1.31073,0.619507,
-1.33057,0.627136,
-1.34735,0.617981,
-1.36261,0.611877,
-1.37787,0.611877,
-1.3855,0.614929,
-1.3916,0.628662,
-1.40381,0.614929,
-1.40991,0.610352,
-1.42212,0.617981,
-1.42975,0.621033,
-1.4389,0.62561,
-1.44196,0.619507,
-1.44043,0.611877,
-1.44348,0.610352,
-1.44653,0.619507,
-1.44653,0.62561,
-1.44958,0.617981,
-1.45111,0.608826,
-1.45111,0.611877,
-1.44806,0.619507,
-1.44653,0.621033,
-1.44501,0.614929,
-1.44043,0.611877,
-1.4389,0.608826,
-1.4389,0.621033,
-1.43738,0.627136,
-1.43433,0.614929,
-1.4328,0.613403,
-1.4328,0.610352,
-1.42975,0.624084,
-1.42975,0.628662,
-1.42822,0.621033,
-1.42212,0.611877,
-1.42059,0.611877,
-1.42212,0.619507,
-1.43127,0.62561,
-1.43585,0.621033,
-1.44043,0.608826,
-1.44653,0.611877,
-1.45111,0.619507,
-1.46332,0.62561,
-1.46942,0.617981,
-1.47705,0.6073,
-1.48773,0.610352,
-1.49841,0.621033,
-1.51215,0.614929,
-1.5213,0.611877,
-1.53351,0.6073,
-1.54572,0.608826,
-1.56097,0.619507,
-1.57318,0.627136,
-1.58539,0.611877,
-1.59912,0.613403,
-1.61438,0.611877,
-1.62506,0.619507,
-1.6449,0.627136,
-1.66321,0.614929,
-1.67999,0.611877,
-1.69983,0.611877,
-1.71509,0.617981,
-1.73035,0.636292,
-1.74866,0.614929,
-1.76086,0.610352,
-1.7807,0.613403,
-1.79291,0.613403,
-1.81274,0.622559,
-1.83105,0.617981,
-1.84326,0.605774,
-1.86615,0.611877,
-1.88141,0.621033,
-1.90277,0.624084,
-1.91956,0.617981,
-1.93329,0.611877,
-1.94855,0.611877,
-1.96228,0.619507,
-1.98059,0.627136,
-1.99585,0.619507,
-2.01416,0.610352,
-2.02637,0.610352,
-2.04315,0.621033,
-2.05383,0.621033,
-2.07214,0.614929,
-2.08588,0.608826,
-2.10266,0.610352,
-2.12097,0.613403,
-2.13623,0.622559,
-2.14386,0.613403,
-2.16217,0.611877,
-2.18048,0.611877,
-2.19421,0.614929,
-2.21252,0.62561,
-2.22778,0.619507,
-2.24152,0.608826,
-2.2522,0.613403,
-2.26746,0.621033,
-2.28119,0.621033,
-2.29645,0.614929,
-2.30865,0.610352,
-2.32849,0.611877,
-2.3407,0.619507,
-2.35443,0.622559,
-2.36511,0.617981,
-2.38037,0.6073,
-2.39258,0.6073,
-2.40479,0.619507,
-2.42004,0.617981,
-2.42767,0.613403,
-2.44446,0.613403,
-2.45056,0.608826,
-2.46582,0.621033,
-2.4765,0.621033,
-2.48566,0.613403,
-2.49329,0.611877,
-2.50702,0.611877,
-2.51617,0.617981,
-2.53296,0.621033,
-2.54059,0.619507,
-2.54822,0.6073,
-2.56195,0.614929,
-2.56958,0.617981,
-2.58026,0.622559,
-2.58942,0.617981,
-2.59705,0.610352,
-2.60468,0.611877,
-2.6123,0.614929,
-2.62451,0.622559,
-2.63062,0.617981,
-2.63824,0.605774,
-2.65656,0.6073,
-2.66418,0.617981,
-2.67944,0.617981,
-2.68555,0.619507,
-2.69165,0.611877,
-2.69623,0.6073,
-2.70691,0.619507,
-2.71606,0.622559,
-2.72369,0.617981,
-2.7359,0.610352,
-2.74811,0.608826,
-2.76031,0.613403,
-2.771,0.624084,
-2.78168,0.619507,
-2.79541,0.610352,
-2.80457,0.608826,
-2.8183,0.619507,
-2.82898,0.621033,
-2.83661,0.610352,
-2.84882,0.611877,
-2.86102,0.608826,
-2.8717,0.613403,
-2.88849,0.622559,
-2.89917,0.617981,
-2.91443,0.605774,
-2.92816,0.608826,
-2.94037,0.619507,
-2.95105,0.621033,
-2.96478,0.621033,
-2.97852,0.6073,
-2.98615,0.611877,
-2.99683,0.621033,
-3.00903,0.624084,
-3.02429,0.617981,
-3.03497,0.608826,
-3.05023,0.6073,
-3.06091,0.619507,
-3.07312,0.622559,
-3.08685,0.617981,
-3.09753,0.605774,
-3.10974,0.6073,
-3.12042,0.617981,
-3.12805,0.62561,
-3.13721,0.614929,
-3.13721,0.6073,
-3.13873,0.6073,
-3.1311,0.614929,
-3.12347,0.624084,
-3.10974,0.621033,
-3.09601,0.6073,
-3.07465,0.608826,
-3.04718,0.621033,
-3.01666,0.619507,
-2.97699,0.617981,
-2.93427,0.608826,
-2.88696,0.610352,
-2.83966,0.614929,
-2.78625,0.6073,
-2.72522,0.619507,
-2.66113,0.605774,
-2.59857,0.610352,
-2.52533,0.614929,
-2.45056,0.619507,
-2.37579,0.621033,
-2.30408,0.605774,
-2.22473,0.622559,
-2.15454,0.617981,
-2.0874,0.62561,
-2.01416,0.613403,
-1.94244,0.610352,
-1.87988,0.608826,
-1.81274,0.621033,
-1.74408,0.622559,
-1.68304,0.614929,
-1.63116,0.6073,
-1.57623,0.613403,
-1.52588,0.619507,
-1.48773,0.622559,
-1.44348,0.619507,
-1.40228,0.608826,
-1.37634,0.611877,
-1.34277,0.613403,
-1.31378,0.621033,
-1.29395,0.622559,
-1.27258,0.602722,
-1.2558,0.6073,
-1.23596,0.613403,
-1.22833,0.621033,
-1.21307,0.617981,
-1.21002,0.608826,
-1.20697,0.608826,
-1.20544,0.619507,
-1.2085,0.62561,
-1.21002,0.614929,
-1.21613,0.608826,
-1.22681,0.608826,
-1.23596,0.619507,
-1.24512,0.622559,
-1.26038,0.621033,
-1.27106,0.602722,
-1.28632,0.6073,
-1.3092,0.631714,
-1.32599,0.622559,
-1.34277,0.619507,
-1.35651,0.604248,
-1.37329,0.613403,
-1.3916,0.611877,
-1.41449,0.622559,
-1.4389,0.617981,
-1.46027,0.604248,
-1.48468,0.608826,
-1.50604,0.617981,
-1.53046,0.624084,
-1.55334,0.619507,
-1.57776,0.608826,
-1.59607,0.613403,
-1.62201,0.622559,
-1.64337,0.622559,
-1.66168,0.621033,
-1.67847,0.605774,
-1.69678,0.605774,
-1.71051,0.614929,
-1.72729,0.617981,
-1.74103,0.614929,
-1.75476,0.610352,
-1.76086,0.6073,
-1.77002,0.611877,
-1.77917,0.624084,
-1.78223,0.613403,
-1.78375,0.604248,
-1.7868,0.608826,
-1.78375,0.613403,
-1.78375,0.624084,
-1.77917,0.614929,
-1.77917,0.605774,
-1.76849,0.6073,
-1.76086,0.619507,
-1.75171,0.621033,
-1.74561,0.619507,
-1.73645,0.608826,
-1.73035,0.610352,
-1.72119,0.613403,
-1.71509,0.619507,
-1.70441,0.614929,
-1.6983,0.605774,
-1.6922,0.6073,
-1.68304,0.613403,
-1.68152,0.621033,
-1.68152,0.613403,
-1.67542,0.605774,
-1.67389,0.605774,
-1.67542,0.617981,
-1.67694,0.621033,
-1.67847,0.613403,
-1.68152,0.608826,
-1.6861,0.608826,
-1.69373,0.613403,
-1.69525,0.624084,
-1.70135,0.614929,
-1.71051,0.602722,
-1.71814,0.608826,
-1.72577,0.617981,
-1.73645,0.619507,
-1.74713,0.613403,
-1.75781,0.604248,
-1.76849,0.608826,
-1.77917,0.613403,
-1.78986,0.617981,
-1.80206,0.611877,
-1.81885,0.605774,
-1.82495,0.608826,
-1.84174,0.614929,
-1.85394,0.617981,
-1.87225,0.614929,
-1.88446,0.608826,
-1.89667,0.608826,
-1.91345,0.622559,
-1.93176,0.622559,
-1.9516,0.613403,
-1.96686,0.608826,
-1.98975,0.6073,
-2.01111,0.617981,
-2.02332,0.622559,
-2.04468,0.614929,
-2.05688,0.608826,
-2.0752,0.602722,
-2.09503,0.614929,
-2.11029,0.622559,
-2.12555,0.613403,
-2.14081,0.602722,
-2.15912,0.604248,
-2.17438,0.610352,
-2.19116,0.617981,
-2.20795,0.614929,
-2.22321,0.604248,
-2.24457,0.605774,
-2.2644,0.617981,
-2.28119,0.624084,
-2.30103,0.613403,
-2.31476,0.610352,
-2.32697,0.608826,
-2.34222,0.617981,
-2.35596,0.617981,
-2.37427,0.617981,
-2.388,0.608826,
-2.40173,0.610352,
-2.41699,0.619507,
-2.43225,0.624084,
-2.44446,0.613403,
-2.45667,0.605774,
-2.4704,0.6073,
-2.4826,0.617981,
-2.49023,0.621033,
-2.50702,0.611877,
-2.5177,0.605774,
-2.52991,0.6073,
-2.54059,0.614929,
-2.5528,0.621033,
-2.565,0.619507,
-2.57874,0.605774,
-2.58789,0.610352,
-2.60315,0.617981,
-2.60925,0.621033,
-2.61841,0.614929,
-2.62909,0.605774,
-2.63977,0.604248,
-2.65198,0.622559,
-2.66418,0.62561,
-2.67487,0.619507,
-2.68402,0.6073,
-2.69165,0.608826,
-2.70386,0.6073,
-2.71149,0.619507,
-2.72217,0.613403,
-2.73285,0.608826,
-2.74506,0.605774,
-2.75421,0.614929,
-2.76794,0.624084,
-2.77405,0.6073,
-2.7832,0.595093,
-2.79999,0.59967,
-2.81219,0.614929,
-2.82593,0.621033,
-2.83966,0.617981,
-2.85187,0.605774,
-2.8595,0.605774,
-2.87018,0.622559,
-2.88086,0.622559,
-2.89001,0.617981,
-2.9007,0.6073,
-2.90985,0.608826,
-2.91748,0.619507,
-2.92511,0.621033,
-2.93732,0.611877,
-2.94495,0.605774,
-2.95563,0.611877,
-2.96936,0.611877,
-2.97546,0.624084,
-2.98462,0.617981,
-2.99377,0.610352,
-3.00446,0.605774,
-3.00903,0.610352,
-3.02277,0.621033,
-3.03497,0.608826,
-3.04413,0.602722,
-3.05786,0.610352,
-3.06702,0.614929,
-3.07922,0.624084,
-3.08838,0.614929,
-3.09753,0.605774,
-3.10364,0.6073,
-3.11584,0.617981,
-3.125,0.627136,
-3.13263,0.613403,
-3.14331,0.605774,
-3.14636,0.605774,
-3.15247,0.617981,
-3.15552,0.624084,
-3.14636,0.617981,
-3.14026,0.605774,
-3.12347,0.604248,
-3.10822,0.617981,
-3.08228,0.624084,
-3.05481,0.614929,
-3.02277,0.604248,
-2.98157,0.598145,
-2.93579,0.619507,
-2.88849,0.622559,
-2.83661,0.610352,
-2.77557,0.610352,
-2.70844,0.605774,
-2.63214,0.631714,
-2.55737,0.62561,
-2.47803,0.617981,
-2.39105,0.608826,
-2.30408,0.608826,
-2.21863,0.614929,
-2.13013,0.624084,
-2.0401,0.613403,
-1.95465,0.596619,
-1.86615,0.6073,
-1.78223,0.611877,
-1.69983,0.624084,
-1.62048,0.611877,
-1.54724,0.6073,
-1.47858,0.605774,
-1.41144,0.614929,
-1.35498,0.622559,
-1.30157,0.611877,
-1.24664,0.604248,
-1.20392,0.602722,
-1.16119,0.613403,
-1.12305,0.622559,
-1.08795,0.610352,
-1.06049,0.608826,
-1.03302,0.608826,
-1.01471,0.619507,
-0.993347,0.619507,
-0.976563,0.613403,
-0.967407,0.6073,
-0.961304,0.608826,
-0.9552,0.613403,
-0.949097,0.622559,
-0.950623,0.611877,
-0.950623,0.605774,
-0.956726,0.6073,
-0.964355,0.611877,
-0.968933,0.622559,
-0.975037,0.611877,
-0.990295,0.604248,
-0.997925,0.605774,
-1.00403,0.617981,
-1.01929,0.621033,
-1.03149,0.614929,
-1.0437,0.608826,
-1.05896,0.604248,
-1.07269,0.614929,
-1.08643,0.62561,
-1.10474,0.617981,
-1.12457,0.6073,
-1.13831,0.6073,
-1.15967,0.611877,
-1.17798,0.628662,
-1.19934,0.619507,
-1.22375,0.598145,
-1.24207,0.602722,
-1.26343,0.608826,
-1.28479,0.622559,
-1.3092,0.610352,
-1.32904,0.610352,
-1.35345,0.6073,
-1.37329,0.596619,
-1.39313,0.619507,
-1.40991,0.613403,
-1.4267,0.604248,
-1.44043,0.6073,
-1.45721,0.619507,
-1.46942,0.621033,
-1.47858,0.631714,
-1.49078,0.6073,
-1.49689,0.6073,
-1.50604,0.619507,
-1.50909,0.622559,
-1.51215,0.614929,
-1.51367,0.611877,
-1.51367,0.6073,
-1.51215,0.613403,
-1.50909,0.619507,
-1.50757,0.608826,
-1.50146,0.608826,
-1.50146,0.6073,
-1.49689,0.613403,
-1.49384,0.619507,
-1.49231,0.630188,
-1.48315,0.611877,
-1.4801,0.605774,
-1.474,0.608826,
-1.46942,0.619507,
-1.46637,0.619507,
-1.45874,0.602722,
-1.45569,0.6073,
-1.45721,0.608826,
-1.46179,0.619507,
-1.46332,0.614929,
-1.46637,0.6073,
-1.46637,0.6073,
-1.4679,0.613403,
-1.47095,0.622559,
-1.474,0.614929,
-1.47552,0.624084,
-1.47858,0.604248,
-1.48315,0.611877,
-1.49231,0.619507,
-1.49841,0.6073,
-1.50604,0.605774,
-1.51825,0.601196,
-1.53046,0.608826,
-1.54572,0.621033,
-1.55792,0.610352,
-1.57013,0.6073,
-1.58539,0.602722,
-1.60065,0.608826,
-1.61743,0.619507,
-1.63269,0.614929,
-1.64642,0.602722,
-1.66473,0.608826,
-1.67999,0.613403,
-1.69983,0.619507,
-1.71967,0.621033,
-1.73798,0.6073,
-1.75629,0.608826,
-1.77307,0.614929,
-1.78528,0.621033,
-1.79749,0.614929,
-1.8158,0.608826,
-1.83411,0.605774,
-1.84784,0.610352,
-1.86615,0.614929,
-1.87836,0.617981,
-1.89514,0.608826,
-1.91803,0.6073,
-1.93329,0.608826,
-1.95465,0.619507,
-1.97754,0.610352,
-1.99127,0.604248,
-2.00958,0.6073,
-2.02637,0.6073,
-2.04315,0.619507,
-2.05994,0.619507,
-2.07672,0.6073,
-2.09503,0.610352,
-2.11487,0.611877,
-2.13013,0.614929,
-2.14996,0.619507,
-2.1637,0.6073,
-2.17896,0.605774,
-2.19879,0.614929,
-2.21252,0.617981,
-2.22931,0.611877,
-2.24609,0.605774,
-2.26288,0.602722,
-2.27814,0.613403,
-2.29645,0.614929,
-2.31018,0.608826,
-2.32697,0.6073,
-2.3407,0.6073,
-2.35443,0.608826,
-2.36969,0.617981,
-2.388,0.613403,
-2.40479,0.6073,
-2.42157,0.605774,
-2.4353,0.6073,
-2.45056,0.613403,
-2.46277,0.617981,
-2.48108,0.602722,
-2.49481,0.611877,
-2.50854,0.611877,
-2.52075,0.621033,
-2.53601,0.617981,
-2.54974,0.610352,
-2.565,0.6073,
-2.58179,0.611877,
-2.59552,0.614929,
-2.60925,0.614929,
-2.62146,0.604248,
-2.63367,0.605774,
-2.6413,0.611877,
-2.65656,0.614929,
-2.67334,0.613403,
-2.67944,0.608826,
-2.69623,0.602722,
-2.70691,0.610352,
-2.71606,0.617981,
-2.72064,0.608826,
-2.73743,0.601196,
-2.75116,0.6073,
-2.75726,0.6073,
-2.77405,0.621033,
-2.78168,0.617981,
-2.79388,0.605774,
-2.80151,0.604248,
-2.81219,0.613403,
-2.81982,0.619507,
-2.82745,0.617981,
-2.83661,0.605774,
-2.84729,0.604248,
-2.85797,0.608826,
-2.87018,0.619507,
-2.88239,0.617981,
-2.89764,0.604248,
-2.9007,0.602722,
-2.90833,0.610352,
-2.91748,0.617981,
-2.93121,0.613403,
-2.93579,0.605774,
-2.94647,0.601196,
-2.9541,0.611877,
-2.96478,0.619507,
-2.97241,0.611877,
-2.98157,0.6073,
-2.9953,0.608826,
-3.00598,0.6073,
-3.01361,0.619507,
-3.03345,0.621033,
-3.04413,0.6073,
-3.05634,0.605774,
-3.07007,0.610352,
-3.08075,0.617981,
-3.09448,0.622559,
-3.10211,0.604248,
-3.11737,0.604248,
-3.1311,0.610352,
-3.14178,0.619507,
-3.15552,0.614929,
-3.16162,0.601196,
-3.17688,0.6073,
-3.18909,0.610352,
-3.19824,0.614929,
-3.20892,0.619507,
-3.2196,0.605774,
-3.23029,0.592041,
-3.24402,0.605774,
-3.2547,0.621033,
-3.26385,0.613403,
-3.27301,0.605774,
-3.27759,0.608826,
-3.28522,0.608826,
-3.28674,0.637817,
-3.28674,0.617981,
-3.28217,0.601196,
-3.27148,0.6073,
-3.25928,0.613403,
-3.24402,0.617981,
-3.22113,0.619507,
-3.19977,0.604248,
-3.16772,0.619507,
-3.12653,0.6073,
-3.08685,0.613403,
-3.03802,0.614929,
-2.98309,0.602722,
-2.92664,0.601196,
-2.86255,0.608826,
-2.79388,0.611877,
-2.72217,0.619507,
-2.65045,0.604248,
-2.57416,0.59967,
-2.49481,0.611877,
-2.41852,0.619507,
-2.33154,0.619507,
-2.24609,0.605774,
-2.16217,0.590515,
-2.0752,0.6073,
-1.9928,0.614929,
-1.91498,0.617981,
-1.83716,0.604248,
-1.76544,0.602722,
-1.69678,0.605774,
-1.62811,0.619507,
-1.56097,0.613403,
-1.50452,0.59967,
-1.44653,0.602722,
-1.39923,0.605774,
-1.35956,0.619507,
-1.32294,0.622559,
-1.28632,0.601196,
-1.2558,0.59967,
-1.22681,0.613403,
-1.20544,0.619507,
-1.18103,0.614929,
-1.1673,0.605774,
-1.15051,0.602722,
-1.13831,0.608826,
-1.13525,0.619507,
-1.13068,0.614929,
-1.1322,0.605774,
-1.1322,0.605774,
-1.14136,0.6073,
-1.14594,0.614929,
-1.15662,0.617981,
-1.16882,0.6073,
-1.17493,0.6073,
-1.18866,0.610352,
-1.19934,0.619507,
-1.2085,0.613403,
-1.22375,0.59967,
-1.23596,0.605774,
-1.2558,0.604248,
-1.26953,0.613403,
-1.29089,0.611877,
-1.31226,0.59967,
-1.32751,0.602722,
-1.35498,0.608826,
-1.37787,0.614929,
-1.40381,0.613403,
-1.43127,0.6073,
-1.45721,0.602722,
-1.4801,0.610352,
-1.50299,0.619507,
-1.52588,0.621033,
-1.55182,0.602722,
-1.57471,0.602722,
-1.59607,0.608826,
-1.62201,0.614929,
-1.64032,0.613403,
-1.66168,0.605774,
-1.67999,0.598145,
-1.6922,0.6073,
-1.70746,0.619507,
-1.71967,0.604248,
-1.73187,0.59967,
-1.74103,0.601196,
-1.75018,0.605774,
-1.75629,0.614929,
-1.76392,0.611877,
-1.76849,0.605774,
-1.77002,0.596619,
-1.76849,0.6073,
-1.76849,0.614929,
-1.76086,0.617981,
-1.75629,0.6073,
-1.74866,0.598145,
-1.74103,0.608826,
-1.72729,0.619507,
-1.71814,0.628662,
-1.71204,0.604248,
-1.69678,0.601196,
-1.6922,0.610352,
-1.68152,0.617981,
-1.67389,0.610352,
-1.66779,0.604248,
-1.66016,0.59967,
-1.6571,0.604248,
-1.64795,0.614929,
-1.64337,0.611877,
-1.63879,0.605774,
-1.63269,0.605774,
-1.63422,0.6073,
-1.62811,0.624084,
-1.62506,0.6073,
-1.62811,0.595093,
-1.62811,0.605774,
-1.62811,0.6073,
-1.63422,0.613403,
-1.63879,0.611877,
-1.6449,0.6073,
-1.651,0.598145,
-1.66473,0.6073,
-1.67389,0.617981,
-1.67847,0.613403,
-1.69067,0.602722,
-1.70288,0.601196,
-1.71204,0.604248,
-1.72424,0.613403,
-1.73798,0.602722,
-1.75171,0.601196,
-1.76544,0.601196,
-1.78223,0.605774,
-1.79291,0.613403,
-1.80969,0.613403,
-1.82343,0.59967,
-1.83868,0.602722,
-1.84937,0.605774,
-1.86615,0.608826,
-1.88446,0.617981,
-1.90125,0.59967,
-1.91803,0.59967,
-1.93787,0.610352,
-1.95618,0.611877,
-1.96991,0.614929,
-1.9928,0.602722,
-2.01263,0.59967,
-2.02942,0.608826,
-2.05383,0.614929,
-2.06909,0.611877,
-2.09198,0.602722,
-2.10876,0.59967,
-2.12708,0.608826,
-2.15302,0.614929,
-2.16827,0.611877,
-2.18811,0.605774,
-2.20184,0.595093,
-2.22473,0.605774,
-2.24457,0.613403,
-2.2583,0.613403,
-2.27661,0.602722,
-2.28729,0.602722,
-2.30865,0.604248,
-2.32086,0.605774,
-2.33612,0.617981,
-2.35596,0.601196,
-2.36816,0.59967,
-2.37732,0.608826,
-2.388,0.614929,
-2.40631,0.617981,
-2.42157,0.605774,
-2.43378,0.601196,
-2.45209,0.6073,
-2.46582,0.613403,
-2.4765,0.610352,
-2.48871,0.602722,
-2.50397,0.59967,
-2.51617,0.610352,
-2.53448,0.617981,
-2.54364,0.608826,
-2.55432,0.602722,
-2.56958,0.59967,
-2.57874,0.605774,
-2.59399,0.614929,
-2.60468,0.611877,
-2.61841,0.604248,
-2.62756,0.598145,
-2.63824,0.602722,
-2.65045,0.611877,
-2.66113,0.614929,
-2.67334,0.598145,
-2.68097,0.601196,
-2.69318,0.605774,
-2.70691,0.611877,
-2.71606,0.614929,
-2.72675,0.604248,
-2.74048,0.595093,
-2.75269,0.611877,
-2.76337,0.617981,
-2.77405,0.608826,
-2.78473,0.605774,
-2.79541,0.601196,
-2.79999,0.6073,
-2.81372,0.610352,
-2.82288,0.611877,
-2.83356,0.601196,
-2.84119,0.602722,
-2.85187,0.6073,
-2.85645,0.617981,
-2.8717,0.610352,
-2.89001,0.604248,
-2.9007,0.598145,
-2.90833,0.602722,
-2.92206,0.613403,
-2.93121,0.614929,
-2.94342,0.595093,
-2.95563,0.601196,
-2.96021,0.6073,
-2.97394,0.617981,
-2.98462,0.614929,
-2.99225,0.605774,
-2.99988,0.59967,
-3.00598,0.611877,
-3.01819,0.619507,
-3.03192,0.610352,
-3.04108,0.605774,
-3.05176,0.59967,
-3.05939,0.6073,
-3.07007,0.619507,
-3.07465,0.611877,
-3.07465,0.604248,
-3.07465,0.596619,
-3.07617,0.604248,
-3.08075,0.613403,
-3.07465,0.611877,
-3.06854,0.602722,
-3.06091,0.602722,
-3.03802,0.605774,
-3.01819,0.614929,
-2.9953,0.611877,
-2.96326,0.601196,
-2.92358,0.601196,
-2.88239,0.608826,
-2.83966,0.611877,
-2.79083,0.614929,
-2.73895,0.604248,
-2.67487,0.59967,
-2.61078,0.605774,
-2.54517,0.619507,
-2.47498,0.610352,
-2.40021,0.601196,
-2.32697,0.611877,
-2.24915,0.598145,
-2.17285,0.611877,
-2.09808,0.610352,
-2.02179,0.604248,
-1.94855,0.598145,
-1.87683,0.598145,
-1.80359,0.610352,
-1.73798,0.6073,
-1.67084,0.59967,
-1.60675,0.598145,
-1.54877,0.6073,
-1.49384,0.613403,
-1.44196,0.613403,
-1.39618,0.601196,
-1.34888,0.601196,
-1.31073,0.608826,
-1.27411,0.613403,
-1.24664,0.610352,
-1.22223,0.604248,
-1.19629,0.59967,
-1.18408,0.602722,
-1.17188,0.617981,
-1.15967,0.610352,
-1.15356,0.605774,
-1.14746,0.601196,
-1.14441,0.605774,
-1.14746,0.611877,
-1.15051,0.610352,
-1.15356,0.6073,
-1.15662,0.598145,
-1.16882,0.605774,
-1.17645,0.613403,
-1.19019,0.610352,
-1.20697,0.602722,
-1.22375,0.59967,
-1.23901,0.604248,
-1.2558,0.611877,
-1.27411,0.613403,
-1.297,0.59967,
-1.32294,0.592041,
-1.34583,0.62561,
-1.37024,0.613403,
-1.39923,0.613403,
-1.42212,0.602722,
-1.45416,0.59967,
-1.48468,0.608826,
-1.51367,0.614929,
-1.54419,0.610352,
-1.57318,0.62561,
-1.60522,0.602722,
-1.63116,0.608826,
-1.65863,0.614929,
-1.69067,0.611877,
-1.71509,0.6073,
-1.7395,0.598145,
-1.76086,0.605774,
-1.78375,0.611877,
-1.79901,0.614929,
-1.8219,0.602722,
-1.83716,0.598145,
-1.85089,0.601196,
-1.86615,0.611877,
-1.8692,0.611877,
-1.87836,0.602722,
-1.88293,0.601196,
-1.88904,0.610352,
-1.89056,0.611877,
-1.88904,0.614929,
-1.89056,0.604248,
-1.89056,0.598145,
-1.88293,0.6073,
-1.88141,0.613403,
-1.87378,0.614929,
-1.87378,0.605774,
-1.86157,0.59967,
-1.85547,0.605774,
-1.84631,0.611877,
-1.83716,0.611877,
-1.828,0.604248,
-1.81732,0.59967,
-1.81274,0.605774,
-1.79749,0.619507,
-1.79749,0.611877,
-1.79138,0.601196,
-1.7868,0.59967,
-1.7807,0.602722,
-1.77002,0.613403,
-1.76849,0.611877,
-1.76697,0.601196,
-1.77002,0.602722,
-1.77307,0.608826,
-1.7746,0.614929,
-1.77765,0.611877,
-1.78375,0.6073,
-1.78986,0.59967,
-1.79443,0.6073,
-1.80359,0.613403,
-1.8158,0.611877,
-1.8219,0.605774,
-1.83258,0.598145,
-1.84631,0.601196,
-1.86157,0.613403,
-1.87683,0.608826,
-1.89209,0.605774,
-1.90887,0.596619,
-1.92261,0.604248,
-1.93787,0.611877,
-1.9516,0.608826,
-1.96533,0.602722,
-1.98364,0.593567,
-1.9989,0.605774,
-2.01721,0.617981,
-2.03552,0.613403,
-2.05078,0.602722,
-2.06604,0.59967,
-2.0813,0.608826,
-2.09808,0.610352,
-2.1225,0.608826,
-2.13928,0.6073,
-2.15912,0.59967,
-2.17438,0.608826,
-2.19421,0.610352,
-2.21252,0.613403,
-2.22626,0.602722,
-2.24762,0.59967,
-2.26288,0.602722,
-2.27661,0.605774,
-2.2995,0.624084,
-2.31628,0.604248,
-2.33307,0.59967,
-2.34833,0.601196,
-2.36816,0.614929,
-2.38037,0.604248,
-2.39716,0.6073,
-2.41394,0.59967,
-2.43225,0.602722,
-2.44751,0.614929,
-2.46124,0.610352,
-2.47955,0.602722,
-2.49481,0.601196,
-2.5116,0.602722,
-2.52991,0.613403,
-2.54059,0.611877,
-2.55737,0.593567,
-2.57263,0.598145,
-2.58942,0.605774,
-2.60468,0.611877,
-2.61841,0.613403,
-2.63214,0.602722,
-2.6474,0.595093,
-2.65808,0.617981,
-2.67029,0.613403,
-2.68707,0.610352,
-2.69928,0.605774,
-2.71454,0.596619,
-2.72522,0.602722,
-2.742,0.617981,
-2.75269,0.610352,
-2.76794,0.602722,
-2.77863,0.595093,
-2.79083,0.602722,
-2.80609,0.613403,
-2.82135,0.610352,
-2.83051,0.601196,
-2.84119,0.595093,
-2.85034,0.601196,
-2.8595,0.614929,
-2.86713,0.611877,
-2.87933,0.6073,
-2.88696,0.601196,
-2.89764,0.604248,
-2.90985,0.614929,
-2.91901,0.611877,
-2.92511,0.608826,
-2.92816,0.598145,
-2.93732,0.604248,
-2.94952,0.613403,
-2.9541,0.611877,
-2.96478,0.601196,
-2.97089,0.596619,
-2.97852,0.602722,
-2.98615,0.613403,
-2.99683,0.608826,
-3.0014,0.604248,
-3.01056,0.602722,
-3.01514,0.602722,
-3.02124,0.617981,
-3.03497,0.613403,
-3.03955,0.605774,
-3.0426,0.602722,
-3.05023,0.6073,
-3.05786,0.611877,
-3.06396,0.613403,
-3.07617,0.604248,
-3.08228,0.601196,
-3.08838,0.604248,
-3.09448,0.611877,
-3.10516,0.613403,
-3.12347,0.602722,
-3.13721,0.59967,
-3.14636,0.6073,
-3.15857,0.617981,
-3.1723,0.608826,
-3.18298,0.605774,
-3.19519,0.601196,
-3.20435,0.605774,
-3.20892,0.614929,
-3.22113,0.6073,
-3.23486,0.604248,
-3.2486,0.601196,
-3.2608,0.605774,
-3.26843,0.614929,
-3.27911,0.613403,
-3.28522,0.602722,
-3.29132,0.602722,
-3.30048,0.6073,
-3.30353,0.613403,
-3.30353,0.611877,
-3.30658,0.602722,
-3.29437,0.602722,
-3.28522,0.59967,
-3.26691,0.613403,
-3.24707,0.613403,
-3.21655,0.602722,
-3.18451,0.604248,
-3.14484,0.605774,
-3.09448,0.611877,
-3.0426,0.614929,
-2.98004,0.6073,
-2.91901,0.598145,
-2.85034,0.604248,
-2.771,0.613403,
-2.69012,0.610352,
-2.60468,0.604248,
-2.51465,0.59967,
-2.42004,0.602722,
-2.32697,0.614929,
-2.22931,0.610352,
-2.13623,0.605774,
-2.03705,0.602722,
-1.93939,0.604248,
-1.84021,0.617981,
-1.74713,0.608826,
-1.65405,0.59967,
-1.56555,0.598145,
-1.48468,0.601196,
-1.41144,0.611877,
-1.3382,0.610352,
-1.26801,0.601196,
-1.20697,0.59967,
-1.15204,0.6073,
-1.09863,0.611877,
-1.0498,0.611877,
-1.00708,0.604248,
-0.970459,0.601196,
-0.935364,0.608826,
-0.906372,0.614929,
-0.883484,0.610352,
-0.860596,0.604248,
-0.840759,0.601196,
-0.8255,0.604248,
-0.817871,0.610352,
-0.808716,0.610352,
