-2.38495,0.746155,
-2.37427,0.72937,
-2.37274,0.72937,
-2.36816,0.730896,
-2.36664,0.743103,
-2.37122,0.746155,
-2.37427,0.733948,
-2.38037,0.72937,
-2.388,0.732422,
-2.3941,0.733948,
-2.40479,0.741577,
-2.41547,0.72937,
-2.42767,0.726318,
-2.44141,0.727844,
-2.45514,0.741577,
-2.46582,0.744629,
-2.48413,0.738525,
-2.49481,0.724792,
-2.5116,0.732422,
-2.52533,0.744629,
-2.54364,0.738525,
-2.56195,0.737,
-2.57416,0.72937,
-2.59247,0.730896,
-2.60925,0.740051,
-2.62604,0.741577,
-2.64893,0.738525,
-2.66571,0.723267,
-2.68402,0.726318,
-2.70691,0.744629,
-2.72369,0.744629,
-2.73895,0.741577,
-2.76489,0.718689,
-2.78473,0.726318,
-2.80304,0.746155,
-2.82135,0.744629,
-2.83813,0.738525,
-2.85797,0.726318,
-2.8717,0.718689,
-2.88544,0.762939,
-2.89917,0.743103,
-2.9068,0.740051,
-2.91595,0.732422,
-2.92511,0.730896,
-2.93121,0.741577,
-2.93427,0.747681,
-2.94189,0.740051,
-2.94342,0.721741,
-2.95105,0.726318,
-2.94647,0.743103,
-2.95258,0.740051,
-2.9541,0.737,
-2.95563,0.732422,
-2.94952,0.724792,
-2.948,0.750732,
-2.94189,0.744629,
-2.94189,0.738525,
-2.93884,0.732422,
-2.93732,0.72937,
-2.93732,0.744629,
-2.93732,0.738525,
-2.93732,0.737,
-2.93732,0.726318,
-2.93579,0.72937,
-2.93732,0.740051,
-2.93884,0.744629,
-2.94037,0.730896,
-2.94495,0.730896,
-2.94952,0.730896,
-2.95105,0.746155,
-2.95563,0.746155,
-2.96021,0.741577,
-2.96936,0.72937,
-2.97089,0.730896,
-2.98004,0.743103,
-2.99225,0.746155,
-3.00446,0.730896,
-3.01056,0.72937,
-3.01819,0.72937,
-3.0304,0.744629,
-3.04108,0.747681,
-3.04718,0.738525,
-3.06702,0.730896,
-3.08075,0.732422,
-3.09753,0.746155,
-3.11737,0.747681,
-3.1311,0.732422,
-3.15094,0.730896,
-3.16772,0.732422,
-3.18756,0.746155,
-3.2074,0.746155,
-3.22418,0.738525,
-3.24402,0.724792,
-3.2608,0.740051,
-3.28217,0.752258,
-3.302,0.741577,
-3.31879,0.741577,
-3.33557,0.732422,
-3.35236,0.733948,
-3.37067,0.752258,
-3.38745,0.743103,
-3.40424,0.744629,
-3.41949,0.724792,
-3.43475,0.72937,
-3.45764,0.750732,
-3.4729,0.741577,
-3.48969,0.741577,
-3.50342,0.732422,
-3.52325,0.72937,
-3.54156,0.746155,
-3.5614,0.744629,
-3.57513,0.741577,
-3.59344,0.727844,
-3.61328,0.726318,
-3.63159,0.747681,
-3.64227,0.741577,
-3.65601,0.741577,
-3.66974,0.72937,
-3.67889,0.727844,
-3.69568,0.746155,
-3.70789,0.750732,
-3.72162,0.738525,
-3.73383,0.730896,
-3.74756,0.72937,
-3.75824,0.747681,
-3.7735,0.750732,
-3.78723,0.738525,
-3.79486,0.72937,
-3.81012,0.727844,
-3.82538,0.747681,
-3.84064,0.749207,
-3.8559,0.737,
-3.87726,0.730896,
-3.89709,0.733948,
-3.9093,0.747681,
-3.92303,0.750732,
-3.93982,0.741577,
-3.95355,0.732422,
-3.96423,0.732422,
-3.97644,0.749207,
-3.98712,0.749207,
-3.9978,0.737,
-4.01306,0.72937,
-4.02527,0.732422,
-4.0451,0.743103,
-4.06036,0.746155,
-4.0741,0.741577,
-4.0863,0.740051,
-4.10156,0.733948,
-4.1153,0.744629,
-4.12598,0.747681,
-4.13666,0.746155,
-4.14734,0.733948,
-4.15802,0.737,
-4.17023,0.772095,
-4.18243,0.746155,
-4.19312,0.741577,
-4.2038,0.730896,
-4.216,0.730896,
-4.22516,0.743103,
-4.23737,0.747681,
-4.24805,0.741577,
-4.2572,0.733948,
-4.27094,0.730896,
-4.28314,0.746155,
-4.29382,0.750732,
-4.30756,0.741577,
-4.31824,0.733948,
-4.33044,0.730896,
-4.3396,0.746155,
-4.35638,0.740051,
-4.37012,0.72937,
-4.3808,0.732422,
-4.38843,0.726318,
-4.39911,0.743103,
-4.40674,0.756836,
-4.41895,0.737,
-4.4281,0.733948,
-4.43878,0.749207,
-4.45404,0.750732,
-4.46777,0.752258,
-4.48456,0.738525,
-4.49677,0.726318,
-4.5105,0.737,
-4.52423,0.746155,
-4.54407,0.762939,
-4.56543,0.738525,
-4.58374,0.72937,
-4.60358,0.740051,
-4.62189,0.738525,
-4.64478,0.753784,
-4.66156,0.743103,
-4.68445,0.730896,
-4.70276,0.737,
-4.71954,0.747681,
-4.74091,0.752258,
-4.76074,0.741577,
-4.7821,0.72937,
-4.80499,0.737,
-4.8233,0.743103,
-4.84619,0.747681,
-4.8645,0.740051,
-4.88739,0.724792,
-4.90875,0.732422,
-4.93164,0.747681,
-4.953,0.749207,
-4.97742,0.733948,
-4.99725,0.730896,
-5.02472,0.737,
-5.04761,0.749207,
-5.07202,0.753784,
-5.09338,0.741577,
-5.1178,0.732422,
-5.14221,0.733948,
-5.16357,0.747681,
-5.18799,0.747681,
-5.21088,0.738525,
-5.23529,0.737,
-5.2597,0.730896,
-5.28107,0.743103,
-5.30548,0.746155,
-5.3299,0.737,
-5.35126,0.733948,
-5.3772,0.733948,
-5.40314,0.746155,
-5.4245,0.756836,
-5.44891,0.738525,
-5.47028,0.732422,
-5.49164,0.732422,
-5.50995,0.744629,
-5.53436,0.753784,
-5.5542,0.732422,
-5.57861,0.732422,
-5.59692,0.733948,
-5.61981,0.740051,
-5.63507,0.758362,
-5.65643,0.741577,
-5.67932,0.730896,
-5.69916,0.737,
-5.71594,0.744629,
-5.74036,0.749207,
-5.75867,0.741577,
-5.77698,0.730896,
-5.79224,0.72937,
-5.81055,0.744629,
-5.82275,0.752258,
-5.83954,0.743103,
-5.8548,0.727844,
-5.86853,0.740051,
-5.88531,0.743103,
-5.896,0.746155,
-5.90363,0.744629,
-5.91583,0.740051,
-5.92651,0.730896,
-5.92651,0.741577,
-5.92651,0.746155,
-5.92041,0.743103,
-5.91278,0.726318,
-5.9021,0.732422,
-5.88531,0.744629,
-5.867,0.746155,
-5.83496,0.738525,
-5.80292,0.737,
-5.76782,0.72937,
-5.72662,0.746155,
-5.68237,0.750732,
-5.63507,0.740051,
-5.58167,0.737,
-5.52368,0.737,
-5.46265,0.741577,
-5.40314,0.750732,
-5.336,0.741577,
-5.26733,0.733948,
-5.2002,0.720215,
-5.12848,0.737,
-5.06134,0.756836,
-4.99115,0.733948,
-4.92554,0.737,
-4.8584,0.738525,
-4.79431,0.730896,
-4.7348,0.778198,
-4.67377,0.743103,
-4.61426,0.737,
-4.5639,0.733948,
-4.51355,0.741577,
-4.4693,0.753784,
-4.42352,0.740051,
-4.3808,0.730896,
-4.34723,0.733948,
-4.31061,0.738525,
-4.28314,0.749207,
-4.25415,0.743103,
-4.22974,0.730896,
-4.21295,0.740051,
-4.19159,0.744629,
-4.1748,0.752258,
-4.15955,0.746155,
-4.14734,0.732422,
-4.13818,0.733948,
-4.13208,0.743103,
-4.1275,0.752258,
-4.12903,0.743103,
-4.1275,0.726318,
-4.12445,0.733948,
-4.1275,0.744629,
-4.13055,0.749207,
-4.13361,0.743103,
-4.13666,0.737,
-4.13971,0.72937,
-4.14124,0.743103,
-4.14886,0.753784,
-4.15039,0.738525,
-4.15497,0.730896,
-4.16107,0.720215,
-4.1687,0.743103,
-4.17786,0.749207,
-4.18854,0.738525,
-4.20074,0.737,
-4.20837,0.727844,
-4.22058,0.740051,
-4.23126,0.75531,
-4.245,0.740051,
-4.25415,0.737,
-4.26941,0.732422,
-4.28162,0.741577,
-4.29382,0.753784,
-4.3045,0.746155,
-4.31671,0.733948,
-4.32892,0.733948,
-4.33807,0.740051,
-4.34875,0.756836,
-4.35791,0.730896,
-4.37012,0.733948,
-4.37775,0.732422,
-4.3869,0.741577,
-4.39606,0.752258,
-4.39758,0.741577,
-4.40063,0.737,
-4.40521,0.733948,
-4.40674,0.749207,
-4.40521,0.75531,
-4.40216,0.746155,
-4.40369,0.733948,
-4.39758,0.737,
-4.39606,0.738525,
-4.39453,0.749207,
-4.38843,0.744629,
-4.3808,0.732422,
-4.37927,0.737,
-4.37164,0.741577,
-4.36554,0.749207,
-4.35638,0.744629,
-4.34723,0.737,
-4.34113,0.730896,
-4.32892,0.746155,
-4.32281,0.750732,
-4.31519,0.746155,
-4.31366,0.733948,
-4.30603,0.733948,
-4.2984,0.741577,
-4.29535,0.747681,
-4.29382,0.762939,
-4.28925,0.733948,
-4.28314,0.732422,
-4.28162,0.740051,
-4.28162,0.75531,
-4.28009,0.741577,
-4.27704,0.733948,
-4.27856,0.732422,
-4.27856,0.740051,
-4.27551,0.744629,
-4.27399,0.744629,
-4.27094,0.733948,
-4.27399,0.733948,
-4.28162,0.741577,
-4.28162,0.753784,
-4.28619,0.743103,
-4.28925,0.749207,
-4.2984,0.730896,
-4.3045,0.740051,
-4.30603,0.750732,
-4.31519,0.741577,
-4.32434,0.732422,
-4.33502,0.732422,
-4.34113,0.740051,
-4.34875,0.750732,
-4.35791,0.741577,
-4.35791,0.737,
-4.36554,0.737,
-4.37317,0.740051,
-4.3869,0.750732,
-4.39911,0.741577,
-4.41437,0.738525,
-4.42352,0.738525,
-4.4281,0.740051,
-4.43726,0.749207,
-4.45251,0.740051,
-4.45709,0.732422,
-4.46472,0.733948,
-4.47388,0.743103,
-4.48456,0.750732,
-4.49524,0.741577,
-4.50592,0.740051,
-4.51813,0.733948,
-4.53186,0.744629,
-4.54407,0.747681,
-4.55322,0.743103,
-4.56543,0.733948,
-4.57306,0.726318,
-4.58069,0.740051,
-4.5929,0.749207,
-4.6051,0.732422,
-4.61121,0.732422,
-4.62341,0.733948,
-4.62646,0.740051,
-4.63409,0.753784,
-4.64172,0.746155,
-4.65088,0.733948,
-4.66003,0.737,
-4.66309,0.741577,
-4.67377,0.75531,
-4.6814,0.740051,
-4.68903,0.72937,
-4.69818,0.732422,
-4.70276,0.738525,
-4.71191,0.749207,
-4.71497,0.741577,
-4.71649,0.730896,
-4.7226,0.732422,
-4.7287,0.752258,
-4.73022,0.75531,
-4.73785,0.749207,
-4.74548,0.732422,
-4.75159,0.733948,
-4.75464,0.747681,
-4.76074,0.750732,
-4.76532,0.744629,
-4.76837,0.732422,
-4.77905,0.724792,
-4.78363,0.744629,
-4.79584,0.747681,
-4.80347,0.737,
-4.80652,0.733948,
-4.81415,0.72937,
-4.81873,0.746155,
-4.82635,0.747681,
-4.83398,0.741577,
-4.83704,0.738525,
-4.84467,0.733948,
-4.84772,0.744629,
-4.85229,0.749207,
-4.85992,0.744629,
-4.85992,0.72937,
-4.86298,0.732422,
-4.86908,0.743103,
-4.87671,0.746155,
-4.88129,0.740051,
-4.88739,0.726318,
-4.89197,0.732422,
-4.89349,0.741577,
-4.90265,0.743103,
-4.9057,0.743103,
-4.91486,0.732422,
-4.91638,0.737,
-4.92554,0.744629,
-4.93011,0.747681,
-4.93774,0.749207,
-4.94232,0.733948,
-4.94385,0.730896,
-4.953,0.746155,
-4.95605,0.744629,
-4.96063,0.743103,
-4.96674,0.72937,
-4.96979,0.737,
-4.97284,0.743103,
-4.97589,0.741577,
-4.97589,0.744629,
-4.98047,0.730896,
-4.98505,0.726318,
-4.98657,0.746155,
-4.99268,0.749207,
-4.99268,0.744629,
-5.00183,0.732422,
-5.00793,0.743103,
-5.01556,0.738525,
-5.01862,0.747681,
-5.02625,0.743103,
-5.03235,0.733948,
-5.03998,0.730896,
-5.05066,0.749207,
-5.05829,0.752258,
-5.06287,0.740051,
-5.06897,0.727844,
-5.07202,0.738525,
-5.07965,0.743103,
-5.0827,0.750732,
-5.08881,0.741577,
-5.09033,0.724792,
-5.09338,0.737,
-5.09644,0.749207,
-5.09949,0.747681,
-5.10559,0.743103,
-5.10559,0.732422,
-5.11475,0.733948,
-5.11627,0.746155,
-5.1178,0.747681,
-5.1239,0.744629,
-5.12695,0.72937,
-5.13,0.72937,
-5.13306,0.749207,
-5.13458,0.740051,
-5.14221,0.741577,
-5.14526,0.732422,
-5.15289,0.72937,
-5.15289,0.744629,
-5.15747,0.752258,
-5.1651,0.741577,
-5.16968,0.727844,
-5.17731,0.733948,
-5.17578,0.744629,
-5.17883,0.747681,
-5.17883,0.741577,
-5.18036,0.730896,
-5.18341,0.730896,
-5.18036,0.740051,
-5.17731,0.746155,
-5.1712,0.738525,
-5.159,0.732422,
-5.15137,0.730896,
-5.13611,0.741577,
-5.1178,0.747681,
-5.09644,0.737,
-5.06897,0.75531,
-5.03845,0.743103,
-5.00336,0.744629,
-4.96216,0.747681,
-4.92096,0.746155,
-4.87366,0.72937,
-4.81873,0.72937,
-4.77142,0.743103,
-4.71649,0.747681,
-4.65851,0.744629,
-4.59442,0.724792,
-4.53644,0.730896,
-4.47388,0.746155,
-4.41132,0.746155,
-4.3457,0.747681,
-4.28467,0.732422,
-4.22516,0.733948,
-4.16107,0.746155,
-4.10004,0.749207,
-4.0329,0.746155,
-3.98102,0.737,
-3.92151,0.732422,
-3.86353,0.744629,
-3.81012,0.747681,
-3.75977,0.741577,
-3.71246,0.732422,
-3.66669,0.72937,
-3.62701,0.741577,
-3.58429,0.749207,
-3.55072,0.743103,
-3.51563,0.730896,
-3.48969,0.732422,
-3.46222,0.741577,
-3.44391,0.750732,
-3.41797,0.743103,
-3.40271,0.726318,
-3.3844,0.738525,
-3.36914,0.741577,
-3.35541,0.749207,
-3.34015,0.743103,
-3.33252,0.72937,
-3.32489,0.733948,
-3.31421,0.743103,
-3.30353,0.743103,
-3.30048,0.744629,
-3.30048,0.724792,
-3.2959,0.730896,
-3.29437,0.741577,
-3.29437,0.744629,
-3.2959,0.740051,
-3.29437,0.737,
-3.29285,0.737,
-3.2959,0.743103,
-3.29895,0.744629,
-3.30048,0.743103,
-3.302,0.732422,
-3.30505,0.72937,
-3.31421,0.732422,
-3.31268,0.746155,
-3.32184,0.744629,
-3.32794,0.72937,
-3.33557,0.727844,
-3.3493,0.741577,
-3.35541,0.747681,
-3.36456,0.737,
-3.37372,0.727844,
-3.38135,0.72937,
-3.38745,0.744629,
-3.39355,0.747681,
-3.39966,0.740051,
-3.40729,0.730896,
-3.41339,0.72937,
-3.41949,0.737,
-3.42255,0.746155,
-3.43323,0.738525,
-3.4317,0.737,
-3.42865,0.732422,
-3.43323,0.741577,
-3.4256,0.749207,
-3.4256,0.738525,
-3.41949,0.727844,
-3.42102,0.72937,
-3.41339,0.744629,
-3.40729,0.746155,
-3.39508,0.740051,
-3.38745,0.730896,
-3.3844,0.732422,
-3.37677,0.744629,
-3.37067,0.737,
-3.35999,0.740051,
-3.35236,0.723267,
-3.3432,0.72937,
-3.32947,0.738525,
-3.31573,0.749207,
-3.30505,0.741577,
-3.2959,0.732422,
-3.28827,0.724792,
-3.28217,0.743103,
-3.26996,0.747681,
-3.26538,0.738525,
-3.26385,0.726318,
-3.25012,0.72937,
-3.24097,0.743103,
-3.23944,0.747681,
-3.23639,0.737,
-3.23486,0.730896,
-3.23486,0.730896,
-3.23334,0.737,
-3.23334,0.747681,
-3.23334,0.743103,
-3.23334,0.732422,
-3.23334,0.72937,
-3.23334,0.738525,
-3.23486,0.746155,
-3.23486,0.741577,
-3.23944,0.726318,
-3.24707,0.724792,
-3.24707,0.741577,
-3.2547,0.746155,
-3.26385,0.740051,
-3.26843,0.72937,
-3.27911,0.730896,
-3.29132,0.737,
-3.29895,0.741577,
-3.30811,0.738525,
-3.31421,0.72937,
-3.32184,0.727844,
-3.32947,0.738525,
-3.33405,0.749207,
-3.3432,0.741577,
-3.3493,0.726318,
-3.35693,0.721741,
-3.36456,0.737,
-3.37067,0.744629,
-3.37677,0.738525,
-3.3844,0.72937,
-3.39508,0.721741,
-3.39966,0.743103,
-3.41339,0.749207,
-3.42102,0.733948,
-3.42255,0.724792,
-3.4317,0.726318,
-3.44086,0.733948,
-3.44849,0.746155,
-3.46222,0.738525,
-3.46985,0.727844,
-3.479,0.727844,
-3.48358,0.740051,
-3.49579,0.753784,
-3.50189,0.733948,
-3.51105,0.71106,
-3.52173,0.726318,
-3.52936,0.741577,
-3.53394,0.750732,
-3.54004,0.733948,
-3.54156,0.723267,
-3.55225,0.726318,
-3.55682,0.746155,
-3.56445,0.743103,
-3.57056,0.737,
-3.56903,0.724792,
-3.57819,0.723267,
-3.58582,0.738525,
-3.59039,0.752258,
-3.5965,0.738525,
-3.60565,0.730896,
-3.61328,0.723267,
-3.62244,0.738525,
-3.62854,0.747681,
-3.6377,0.737,
-3.6438,0.726318,
-3.6499,0.726318,
-3.65753,0.743103,
-3.66364,0.750732,
-3.67279,0.730896,
-3.67279,0.72937,
-3.67737,0.726318,
-3.68347,0.733948,
-3.68958,0.746155,
-3.69263,0.740051,
-3.70026,0.730896,
-3.70331,0.723267,
-3.71246,0.737,
-3.72009,0.747681,
-3.72772,0.732422,
-3.7323,0.724792,
-3.73688,0.721741,
-3.74298,0.737,
-3.74451,0.752258,
-3.74908,0.737,
-3.75671,0.727844,
-3.76282,0.721741,
-3.77045,0.737,
-3.77655,0.744629,
-3.77655,0.72937,
-3.78418,0.727844,
-3.78723,0.723267,
-3.79028,0.740051,
-3.79181,0.752258,
-3.79791,0.733948,
-3.80096,0.727844,
-3.80249,0.720215,
-3.80707,0.737,
-3.81165,0.747681,
-3.81775,0.733948,
-3.81775,0.72937,
-3.82385,0.727844,
-3.82843,0.733948,
-3.83453,0.746155,
-3.84064,0.732422,
-3.84064,0.727844,
-3.84521,0.726318,
-3.84521,0.733948,
-3.84979,0.746155,
-3.85284,0.733948,
-3.85437,0.727844,
-3.86047,0.72937,
-3.86505,0.730896,
-3.8681,0.747681,
-3.87268,0.733948,
-3.87268,0.72937,
-3.87573,0.724792,
-3.87878,0.740051,
-3.87878,0.741577,
-3.87878,0.72937,
-3.88641,0.72937,
-3.88947,0.721741,
-3.89557,0.733948,
-3.89557,0.747681,
-3.90015,0.737,
-3.9032,0.726318,
-3.90625,0.724792,
-3.91541,0.72937,
-3.92303,0.750732,
-3.92761,0.733948,
-3.93219,0.726318,
-3.93982,0.721741,
-3.9444,0.730896,
-3.9505,0.746155,
-3.95813,0.72937,
-3.96729,0.72937,
-3.97644,0.721741,
-3.98407,0.730896,
-3.9917,0.747681,
-4.00085,0.737,
-4.01306,0.727844,
-4.02222,0.724792,
-4.02832,0.733948,
-4.04358,0.744629,
-4.05273,0.730896,
-4.06647,0.723267,
-4.07257,0.724792,
-4.08478,0.727844,
-4.09088,0.741577,
-4.10309,0.733948,
-4.10767,0.723267,
-4.11224,0.723267,
-4.11682,0.732422,
-4.11987,0.741577,
-4.12598,0.737,
-4.1214,0.730896,
-4.11987,0.724792,
-4.11224,0.737,
-4.10309,0.743103,
-4.08783,0.737,
-4.07257,0.723267,
-4.05273,0.724792,
-4.02985,0.733948,
-3.9978,0.740051,
-3.96118,0.733948,
-3.92609,0.720215,
-3.88184,0.726318,
-3.83759,0.737,
-3.78418,0.744629,
-3.7323,0.737,
-3.67279,0.730896,
-3.61176,0.724792,
-3.55072,0.730896,
-3.49121,0.741577,
-3.42407,0.732422,
-3.36151,0.727844,
-3.29895,0.721741,
-3.23334,0.72937,
-3.16925,0.743103,
-3.10516,0.730896,
-3.0426,0.726318,
-2.98004,0.727844,
-2.92053,0.730896,
-2.8595,0.740051,
-2.80304,0.737,
-2.74963,0.724792,
-2.69775,0.730896,
-2.65045,0.718689,
-2.60315,0.743103,
-2.5589,0.732422,
-2.5177,0.723267,
-2.47955,0.72937,
-2.44141,0.726318,
-2.40936,0.738525,
-2.38495,0.749207,
-2.35596,0.721741,
-2.33307,0.727844,
-2.30255,0.732422,
-2.28271,0.741577,
-2.26135,0.738525,
-2.23694,0.726318,
-2.2171,0.727844,
-2.20032,0.72937,
-2.18811,0.737,
-2.16827,0.733948,
-2.16064,0.721741,
-2.15149,0.723267,
-2.14233,0.732422,
-2.13165,0.737,
-2.1225,0.737,
-2.11487,0.723267,
-2.11182,0.721741,
-2.10571,0.733948,
-2.10266,0.743103,
-2.09656,0.740051,
-2.09656,0.724792,
-2.09198,0.723267,
-2.09198,0.730896,
-2.08893,0.737,
-2.09503,0.733948,
-2.09351,0.721741,
-2.09656,0.721741,
-2.09808,0.727844,
-2.10419,0.740051,
-2.10724,0.732422,
-2.11334,0.724792,
-2.1225,0.727844,
-2.12555,0.72937,
-2.13013,0.741577,
-2.13318,0.740051,
-2.13928,0.721741,
-2.14539,0.726318,
-2.14996,0.732422,
-2.15302,0.740051,
-2.15607,0.738525,
-2.15912,0.720215,
-2.15759,0.726318,
-2.15912,0.726318,
-2.15607,0.738525,
-2.15912,0.738525,
-2.15912,0.718689,
-2.15759,0.72937,
-2.15149,0.732422,
-2.14386,0.737,
-2.13928,0.740051,
-2.1347,0.724792,
-2.1286,0.727844,
-2.12402,0.730896,
-2.11182,0.740051,
-2.10419,0.743103,
-2.09503,0.720215,
-2.08893,0.724792,
-2.0813,0.72937,
-2.07062,0.738525,
-2.05994,0.740051,
-2.04926,0.723267,
-2.03705,0.721741,
-2.01874,0.732422,
-2.01111,0.741577,
-1.9989,0.733948,
-1.99127,0.726318,
-1.97906,0.721741,
-1.97601,0.732422,
-1.97144,0.740051,
-1.96533,0.737,
-1.96381,0.721741,
-1.95923,0.718689,
-1.95465,0.72937,
-1.95007,0.741577,
-1.95007,0.733948,
-1.94702,0.723267,
-1.94702,0.724792,
-1.94092,0.726318,
-1.93939,0.743103,
-1.94702,0.737,
-1.95007,0.721741,
-1.95618,0.727844,
-1.95465,0.72937,
-1.95923,0.740051,
-1.96228,0.738525,
-1.96228,0.721741,
-1.96686,0.726318,
-1.97601,0.723267,
-1.98364,0.733948,
-1.98975,0.738525,
-2.00043,0.721741,
-2.01263,0.727844,
-2.02484,0.730896,
-2.034,0.740051,
-2.04468,0.741577,
-2.05231,0.724792,
-2.05994,0.726318,
-2.06909,0.727844,
-2.07825,0.741577,
-2.08588,0.738525,
-2.09656,0.721741,
-2.10724,0.721741,
-2.11639,0.730896,
-2.12402,0.737,
-2.12708,0.737,
-2.13623,0.726318,
-2.14691,0.723267,
-2.15912,0.730896,
-2.16522,0.738525,
-2.17438,0.737,
-2.18506,0.724792,
-2.19269,0.721741,
-2.20184,0.732422,
-2.20947,0.740051,
-2.2171,0.737,
-2.22931,0.723267,
-2.23999,0.717163,
-2.25067,0.727844,
-2.25983,0.740051,
-2.27051,0.732422,
-2.27661,0.723267,
-2.28577,0.72937,
-2.29187,0.740051,
-2.30255,0.740051,
-2.31171,0.737,
-2.33002,0.721741,
-2.33459,0.720215,
-2.34222,0.72937,
-2.35443,0.740051,
-2.36206,0.732422,
-2.36969,0.723267,
-2.37579,0.723267,
-2.38342,0.723267,
-2.38953,0.743103,
-2.39563,0.738525,
-2.40326,0.723267,
-2.40784,0.724792,
-2.41547,0.726318,
-2.42767,0.744629,
-2.4353,0.737,
-2.44751,0.718689,
-2.45514,0.723267,
-2.46277,0.723267,
-2.4704,0.737,
-2.47955,0.750732,
-2.48871,0.715637,
-2.49481,0.724792,
-2.50397,0.730896,
-2.51007,0.738525,
-2.52075,0.741577,
-2.53448,0.721741,
-2.54364,0.723267,
-2.54974,0.726318,
-2.565,0.738525,
-2.57111,0.733948,
-2.57874,0.717163,
-2.58789,0.718689,
-2.59247,0.72937,
-2.60315,0.732422,
-2.60773,0.737,
-2.61536,0.727844,
-2.62451,0.717163,
-2.63062,0.730896,
-2.63672,0.741577,
-2.64893,0.737,
-2.65198,0.721741,
-2.66113,0.718689,
-2.67334,0.730896,
-2.6825,0.737,
-2.6886,0.733948,
-2.69775,0.720215,
-2.70996,0.712585,
-2.72064,0.727844,
-2.73285,0.741577,
-2.742,0.738525,
-2.75574,0.720215,
-2.76642,0.720215,
-2.771,0.726318,
-2.78473,0.743103,
-2.79541,0.738525,
-2.80762,0.723267,
-2.81982,0.724792,
-2.83051,0.721741,
-2.83661,0.738525,
-2.84729,0.737,
-2.8595,0.721741,
-2.8656,0.726318,
-2.87323,0.724792,
-2.88391,0.740051,
-2.89764,0.740051,
-2.90985,0.721741,
-2.91443,0.727844,
-2.92053,0.730896,
-2.92816,0.737,
-2.93884,0.738525,
-2.948,0.724792,
-2.95258,0.723267,
-2.96326,0.717163,
-2.97089,0.737,
-2.97394,0.738525,
-2.97852,0.726318,
-2.97852,0.717163,
-2.97699,0.72937,
-2.96936,0.724792,
-2.95868,0.737,
-2.94647,0.717163,
-2.92664,0.712585,
-2.90985,0.72937,
-2.88239,0.741577,
-2.85339,0.737,
-2.81982,0.724792,
-2.7771,0.721741,
-2.73743,0.72937,
-2.69318,0.733948,
-2.64435,0.733948,
-2.59399,0.721741,
-2.54211,0.714111,
-2.48718,0.72937,
-2.43073,0.738525,
-2.37579,0.733948,
-2.32239,0.720215,
-2.26746,0.720215,
-2.21405,0.726318,
-2.15912,0.744629,
-2.09808,0.738525,
-2.04926,0.720215,
-1.99738,0.720215,
-1.95007,0.721741,
-1.9043,0.741577,
-1.8631,0.733948,
-1.8219,0.720215,
-1.78833,0.723267,
-1.75323,0.723267,
-1.71814,0.740051,
-1.68915,0.72937,
-1.66321,0.709534,
-1.64337,0.720215,
-1.62201,0.730896,
-1.60217,0.738525,
-1.58691,0.741577,
-1.57318,0.720215,
-1.55945,0.732422,
-1.55029,0.72937,
-1.54114,0.743103,
-1.53198,0.737,
-1.51978,0.720215,
-1.51672,0.718689,
-1.50909,0.730896,
-1.50604,0.726318,
-1.50452,0.732422,
-1.50146,0.723267,
-1.49994,0.717163,
-1.50146,0.72937,
-1.50146,0.743103,
-1.50757,0.730896,
-1.51367,0.727844,
-1.51672,0.718689,
-1.52435,0.726318,
-1.53046,0.738525,
-1.53351,0.733948,
-1.53656,0.724792,
-1.54572,0.714111,
-1.55487,0.727844,
-1.56097,0.740051,
-1.57166,0.727844,
-1.57928,0.723267,
-1.58844,0.717163,
-1.60217,0.726318,
-1.6098,0.738525,
-1.61896,0.737,
-1.63422,0.721741,
-1.64642,0.727844,
-1.6571,0.72937,
-1.66779,0.737,
-1.67694,0.738525,
-1.69067,0.723267,
-1.69678,0.720215,
-1.70593,0.72937,
-1.70898,0.740051,
-1.71661,0.737,
-1.72119,0.720215,
-1.72424,0.721741,
-1.73035,0.730896,
-1.73035,0.727844,
-1.73187,0.738525,
-1.73645,0.727844,
-1.73645,0.720215,
-1.73798,0.732422,
-1.7395,0.743103,
-1.7395,0.730896,
-1.73645,0.72937,
-1.73187,0.709534,
-1.73187,0.724792,
-1.72577,0.738525,
-1.72424,0.732422,
-1.71967,0.72937,
-1.71204,0.720215,
-1.70746,0.727844,
-1.6983,0.737,
-1.6922,0.72937,
-1.68762,0.726318,
-1.67999,0.721741,
-1.67542,0.727844,
-1.67236,0.741577,
-1.66779,0.738525,
-1.66779,0.730896,
-1.66779,0.723267,
-1.66473,0.72937,
-1.66321,0.741577,
-1.66473,0.738525,
-1.66626,0.72937,
-1.66168,0.717163,
-1.66931,0.727844,
-1.67084,0.737,
-1.67694,0.737,
-1.67847,0.723267,
-1.68304,0.717163,
-1.68762,0.732422,
-1.69525,0.738525,
-1.70288,0.738525,
-1.71051,0.726318,
-1.71967,0.71106,
-1.7334,0.732422,
-1.74103,0.737,
-1.75018,0.732422,
-1.76392,0.727844,
-1.77917,0.715637,
-1.78528,0.723267,
-1.80511,0.738525,
-1.81274,0.732422,
-1.82343,0.726318,
-1.83411,0.712585,
-1.84021,0.730896,
-1.84937,0.737,
-1.8692,0.730896,
-1.87531,0.721741,
-1.89209,0.721741,
-1.9043,0.726318,
-1.92108,0.741577,
-1.93634,0.740051,
-1.9516,0.727844,
-1.96838,0.723267,
-1.97906,0.724792,
-1.9928,0.740051,
-2.005,0.733948,
-2.01569,0.726318,
-2.02789,0.720215,
-2.04468,0.726318,
-2.05841,0.740051,
-2.07367,0.737,
-2.0874,0.723267,
-2.09961,0.720215,
-2.11487,0.730896,
-2.13165,0.737,
-2.14233,0.738525,
-2.15149,0.730896,
-2.16675,0.718689,
-2.1759,0.732422,
-2.18506,0.744629,
-2.19574,0.737,
-2.20947,0.730896,
-2.22015,0.718689,
-2.22778,0.727844,
-2.24304,0.741577,
-2.2522,0.738525,
-2.2644,0.730896,
-2.27661,0.715637,
-2.28577,0.726318,
-2.2995,0.737,
-2.31628,0.737,
-2.32086,0.724792,
-2.33765,0.718689,
-2.34833,0.724792,
-2.36053,0.738525,
-2.36359,0.741577,
-2.36816,0.72937,
-2.38037,0.717163,
-2.39105,0.72937,
-2.39868,0.724792,
-2.40784,0.738525,
-2.41852,0.72937,
-2.42767,0.718689,
-2.43378,0.718689,
-2.44598,0.741577,
-2.45361,0.738525,
-2.46277,0.721741,
-2.4704,0.720215,
-2.48108,0.730896,
-2.48871,0.741577,
-2.50244,0.732422,
-2.50854,0.730896,
-2.51923,0.720215,
-2.5238,0.730896,
-2.53448,0.738525,
-2.54364,0.737,
-2.5528,0.727844,
-2.5589,0.715637,
-2.56805,0.730896,
-2.57111,0.740051,
-2.58026,0.737,
-2.58636,0.730896,
-2.59857,0.714111,
-2.60925,0.727844,
-2.61993,0.740051,
-2.62451,0.730896,
-2.63672,0.723267,
-2.64893,0.720215,
-2.65808,0.726318,
-2.66876,0.746155,
-2.67487,0.740051,
-2.68555,0.727844,
-2.69165,0.721741,
-2.69928,0.738525,
-2.71149,0.737,
-2.72217,0.737,
-2.72675,0.726318,
-2.74353,0.718689,
-2.75116,0.72937,
-2.76184,0.733948,
-2.77252,0.733948,
-2.7832,0.724792,
-2.79083,0.717163,
-2.79846,0.72937,
-2.80914,0.733948,
-2.81982,0.737,
-2.82898,0.730896,
-2.83813,0.720215,
-2.84729,0.732422,
-2.86102,0.740051,
-2.86865,0.738525,
-2.88391,0.72937,
-2.89154,0.720215,
-2.9007,0.726318,
-2.91138,0.740051,
-2.92053,0.732422,
-2.92969,0.732422,
-2.94037,0.712585,
-2.94647,0.723267,
-2.95868,0.743103,
-2.96783,0.733948,
-2.97089,0.72937,
-2.97394,0.723267,
-2.97546,0.730896,
-2.96783,0.72937,
-2.95715,0.756836,
-2.948,0.723267,
-2.93121,0.723267,
-2.91443,0.732422,
-2.89154,0.743103,
-2.86255,0.732422,
-2.83203,0.72937,
-2.79541,0.720215,
-2.75726,0.727844,
-2.70996,0.740051,
-2.65808,0.733948,
-2.60773,0.726318,
-2.5528,0.721741,
-2.49329,0.730896,
-2.4292,0.732422,
-2.36969,0.733948,
-2.3056,0.726318,
-2.24152,0.721741,
-2.18353,0.737,
-2.1225,0.741577,
-2.06299,0.738525,
-2.005,0.733948,
-1.94855,0.721741,
-1.89056,0.727844,
-1.83411,0.741577,
-1.78528,0.738525,
-1.73645,0.72937,
-1.69525,0.720215,
-1.65253,0.727844,
-1.61743,0.738525,
-1.58234,0.730896,
-1.55334,0.726318,
-1.52435,0.723267,
-1.49841,0.724792,
-1.47705,0.743103,
-1.45569,0.740051,
-1.43585,0.727844,
-1.41907,0.727844,
-1.40228,0.726318,
-1.39313,0.740051,
-1.3855,0.738525,
-1.37787,0.727844,
-1.37177,0.723267,
-1.36871,0.721741,
-1.35651,0.737,
-1.35803,0.732422,
-1.35651,0.723267,
-1.35345,0.721741,
-1.35193,0.72937,
-1.3504,0.737,
-1.3504,0.740051,
-1.3504,0.723267,
-1.35651,0.721741,
-1.35956,0.730896,
-1.36719,0.730896,
-1.37024,0.753784,
-1.37482,0.72937,
-1.38092,0.721741,
-1.3855,0.723267,
-1.40076,0.737,
-1.40839,0.733948,
-1.41907,0.726318,
-1.42822,0.718689,
-1.43738,0.750732,
-1.44958,0.741577,
-1.45874,0.732422,
-1.47095,0.730896,
-1.48315,0.724792,
-1.49384,0.723267,
-1.50299,0.738525,
-1.5152,0.750732,
-1.52588,0.72937,
-1.53656,0.724792,
-1.54419,0.726318,
-1.55182,0.738525,
-1.5564,0.730896,
-1.5564,0.724792,
-1.55487,0.726318,
-1.5564,0.723267,
-1.55945,0.738525,
-1.5625,0.738525,
-1.56403,0.721741,
-1.5625,0.723267,
-1.55334,0.732422,
-1.55334,0.732422,
-1.54877,0.738525,
-1.54419,0.721741,
-1.53809,0.721741,
-1.53656,0.718689,
-1.53046,0.733948,
-1.5274,0.733948,
-1.51978,0.720215,
-1.50909,0.720215,
-1.49994,0.726318,
-1.49384,0.738525,
-1.48926,0.733948,
-1.47705,0.724792,
-1.4679,0.715637,
-1.46637,0.72937,
-1.45721,0.743103,
-1.45416,0.733948,
-1.44653,0.727844,
-1.44348,0.717163,
-1.44196,0.724792,
-1.44043,0.737,
-1.43585,0.730896,
-1.43433,0.721741,
-1.43433,0.718689,
-1.43585,0.723267,
-1.44196,0.730896,
-1.44043,0.730896,
-1.44653,0.723267,
-1.44806,0.720215,
-1.45874,0.721741,
-1.46332,0.740051,
-1.46942,0.737,
-1.47705,0.720215,
-1.48773,0.723267,
-1.49536,0.724792,
-1.49841,0.740051,
-1.51215,0.737,
-1.51825,0.724792,
-1.52588,0.718689,
-1.53198,0.723267,
-1.54419,0.743103,
-1.55334,0.738525,
-1.55945,0.723267,
-1.57013,0.717163,
-1.58234,0.723267,
-1.59302,0.733948,
-1.60522,0.733948,
-1.61743,0.723267,
-1.63422,0.718689,
-1.64642,0.727844,
-1.66168,0.737,
-1.66931,0.738525,
-1.68152,0.723267,
-1.69678,0.720215,
-1.71051,0.724792,
-1.72424,0.738525,
-1.73798,0.733948,
-1.75171,0.721741,
-1.76086,0.718689,
-1.77307,0.723267,
-1.78528,0.738525,
-1.79596,0.733948,
-1.80511,0.721741,
-1.81732,0.720215,
-1.82037,0.721741,
-1.83411,0.738525,
-1.84021,0.72937,
-1.85089,0.721741,
-1.86005,0.723267,
-1.87073,0.727844,
-1.87988,0.733948,
-1.89209,0.732422,
-1.90582,0.720215,
-1.91193,0.721741,
-1.92566,0.721741,
-1.93329,0.733948,
-1.94855,0.737,
-1.95618,0.718689,
-1.95923,0.720215,
-1.96686,0.723267,
-1.97601,0.732422,
-1.98059,0.737,
-1.98822,0.721741,
-1.99432,0.718689,
-2.00195,0.726318,
-2.00806,0.737,
-2.01874,0.738525,
-2.02332,0.723267,
-2.02789,0.717163,
-2.03552,0.723267,
-2.03857,0.733948,
-2.0462,0.727844,
-2.04926,0.723267,
-2.05688,0.715637,
-2.06299,0.720215,
-2.06757,0.737,
-2.07214,0.727844,
-2.07672,0.720215,
-2.08435,0.718689,
-2.09198,0.721741,
-2.09961,0.733948,
-2.10724,0.738525,
-2.11487,0.720215,
-2.12708,0.720215,
-2.13165,0.723267,
-2.14081,0.733948,
-2.14996,0.724792,
-2.16064,0.721741,
-2.16827,0.720215,
-2.18048,0.718689,
-2.18658,0.72937,
-2.19421,0.730896,
-2.20795,0.718689,
-2.2171,0.718689,
-2.22168,0.723267,
-2.22931,0.732422,
-2.23999,0.737,
-2.24762,0.721741,
-2.24915,0.720215,
-2.26135,0.726318,
-2.27051,0.732422,
-2.27966,0.732422,
-2.29187,0.721741,
-2.30408,0.717163,
-2.31628,0.724792,
-2.32239,0.730896,
-2.32849,0.733948,
-2.3407,0.720215,
-2.34528,0.717163,
-2.34833,0.720215,
-2.35901,0.737,
-2.36511,0.72937,
-2.37274,0.721741,
-2.37732,0.718689,
-2.38647,0.723267,
-2.39105,0.740051,
-2.40326,0.733948,
-2.41241,0.720215,
-2.42004,0.720215,
-2.42767,0.721741,
-2.43683,0.737,
-2.45056,0.732422,
-2.45361,0.718689,
-2.46582,0.723267,
-2.47345,0.715637,
-2.4826,0.730896,
-2.48871,0.733948,
-2.49634,0.714111,
-2.50702,0.717163,
-2.51312,0.726318,
-2.51923,0.72937,
-2.52838,0.733948,
-2.53296,0.718689,
-2.53906,0.715637,
-2.53906,0.724792,
-2.53754,0.72937,
-2.53448,0.730896,
-2.52838,0.718689,
-2.51465,0.717163,
-2.49939,0.721741,
-2.48566,0.724792,
-2.46429,0.724792,
-2.43683,0.718689,
-2.41241,0.715637,
-2.37274,0.720215,
-2.33612,0.730896,
-2.29645,0.733948,
-2.24915,0.720215,
-2.20032,0.720215,
-2.15302,0.718689,
-2.09961,0.732422,
-2.04468,0.732422,
-1.98364,0.721741,
-1.92719,0.717163,
-1.8631,0.721741,
-1.80817,0.730896,
-1.74561,0.72937,
-1.68915,0.714111,
-1.63269,0.715637,
-1.57471,0.715637,
-1.5213,0.727844,
-1.47247,0.733948,
-1.4267,0.714111,
-1.38092,0.717163,
-1.3382,0.723267,
-1.29852,0.727844,
-1.26495,0.733948,
-1.23291,0.718689,
-1.20239,0.714111,
-1.1795,0.721741,
-1.15356,0.721741,
-1.13678,0.732422,
-1.12,0.717163,
-1.10779,0.715637,
-1.09253,0.721741,
-1.08185,0.726318,
-1.06964,0.730896,
-1.06354,0.724792,
-1.05896,0.714111,
-1.05286,0.720215,
-1.0498,0.732422,
-1.0437,0.724792,
-1.04218,0.718689,
-1.03912,0.714111,
-1.0376,0.720215,
-1.03455,0.732422,
-1.03607,0.727844,
-1.03607,0.720215,
-1.0376,0.715637,
-1.03912,0.718689,
-1.04065,0.730896,
-1.05133,0.72937,
-1.06049,0.714111,
-1.06201,0.715637,
-1.07117,0.715637,
-1.07574,0.72937,
-1.0849,0.732422,
-1.09406,0.714111,
-1.10168,0.714111,
-1.11237,0.723267,
-1.12457,0.72937,
-1.13068,0.737,
-1.14288,0.718689,
-1.14594,0.714111,
-1.15967,0.723267,
-1.1673,0.727844,
-1.17188,0.72937,
-1.18103,0.717163,
-1.18713,0.714111,
-1.19476,0.720215,
-1.20087,0.726318,
-1.20544,0.730896,
-1.2085,0.721741,
-1.21155,0.712585,
-1.2085,0.720215,
-1.21155,0.732422,
-1.21155,0.730896,
-1.21155,0.720215,
-1.21002,0.709534,
-1.20697,0.714111,
-1.20392,0.750732,
-1.20087,0.730896,
-1.19324,0.714111,
-1.18408,0.71106,
-1.17645,0.720215,
-1.1734,0.732422,
-1.17035,0.727844,
-1.15967,0.718689,
-1.15051,0.71106,
-1.14594,0.715637,
-1.13678,0.730896,
-1.1322,0.72937,
-1.1261,0.714111,
-1.11847,0.71106,
-1.11389,0.718689,
-1.10626,0.72937,
-1.09711,0.72937,
-1.09406,0.718689,
-1.08948,0.712585,
-1.08795,0.720215,
-1.08795,0.727844,
-1.08643,0.72937,
-1.08643,0.718689,
-1.08643,0.706482,
-1.08795,0.720215,
-1.08795,0.726318,
-1.08948,0.72937,
-1.09558,0.718689,
-1.09558,0.71106,
-1.10779,0.721741,
-1.11694,0.726318,
-1.12152,0.727844,
-1.13068,0.718689,
-1.14288,0.71106,
-1.14899,0.718689,
-1.16425,0.726318,
-1.1734,0.730896,
-1.18256,0.712585,
-1.19019,0.706482,
-1.20239,0.717163,
-1.21002,0.727844,
-1.22375,0.72937,
-1.23138,0.714111,
-1.23901,0.708008,
-1.25427,0.718689,
-1.2619,0.726318,
-1.26801,0.733948,
-1.27563,0.709534,
-1.28326,0.71106,
-1.29395,0.723267,
-1.3031,0.72937,
-1.31531,0.732422,
-1.32446,0.715637,
-1.33514,0.708008,
-1.34583,0.718689,
-1.35651,0.723267,
-1.36414,0.732422,
-1.37939,0.714111,
-1.38855,0.708008,
-1.40228,0.720215,
-1.41296,0.721741,
-1.42212,0.727844,
-1.43127,0.715637,
-1.44653,0.70343,
-1.45569,0.723267,
-1.46332,0.727844,
-1.474,0.724792,
-1.48315,0.715637,
-1.49078,0.709534,
-1.50146,0.715637,
-1.51367,0.726318,
-1.51978,0.723267,
-1.53046,0.717163,
-1.53656,0.709534,
-1.54419,0.720215,
-1.54877,0.726318,
-1.55792,0.723267,
-1.56708,0.714111,
-1.57471,0.708008,
-1.58081,0.715637,
-1.58844,0.724792,
-1.59302,0.724792,
-1.6037,0.726318,
-1.61133,0.720215,
-1.61743,0.717163,
-1.62354,0.72937,
-1.63422,0.737,
-1.63879,0.717163,
-1.64185,0.712585,
-1.64642,0.717163,
-1.651,0.727844,
-1.66016,0.732422,
-1.66779,0.714111,
-1.67542,0.708008,
-1.68152,0.717163,
-1.6861,0.726318,
-1.69525,0.727844,
-1.69983,0.715637,
-1.70746,0.706482,
-1.71051,0.718689,
-1.71509,0.730896,
-1.72424,0.727844,
-1.72882,0.720215,
-1.73798,0.71106,
-1.74103,0.715637,
-1.74866,0.724792,
-1.75781,0.732422,
-1.76392,0.717163,
-1.77307,0.709534,
-1.77917,0.714111,
-1.78833,0.726318,
-1.79901,0.724792,
-1.80817,0.715637,
-1.81885,0.709534,
-1.82648,0.712585,
-1.83563,0.726318,
-1.83868,0.724792,
-1.84326,0.71106,
-1.85242,0.708008,
-1.85394,0.718689,
-1.86157,0.724792,
-1.87073,0.723267,
-1.87531,0.721741,
-1.87683,0.709534,
-1.88293,0.718689,
-1.88446,0.720215,
-1.89362,0.723267,
-1.89514,0.718689,
-1.89972,0.708008,
-1.9104,0.714111,
-1.92108,0.721741,
-1.92719,0.721741,
-1.93481,0.721741,
-1.94397,0.709534,
-1.9516,0.714111,
-1.95923,0.727844,
-1.96991,0.717163,
-1.97601,0.717163,
-1.98517,0.715637,
-1.99585,0.70343,
-2.00195,0.727844,
-2.01569,0.727844,
-2.02332,0.715637,
-2.03857,0.71106,
-2.04926,0.714111,
-2.05841,0.724792,
-2.07062,0.721741,
-2.07977,0.715637,
-2.0874,0.71106,
-2.09808,0.71106,
-2.10114,0.724792,
-2.11182,0.726318,
-2.11792,0.71106,
-2.12708,0.71106,
-2.1286,0.718689,
-2.13776,0.720215,
-2.14539,0.726318,
-2.15607,0.717163,
-2.15912,0.706482,
-2.16675,0.715637,
-2.17438,0.723267,
-2.18353,0.723267,
-2.18964,0.718689,
-2.18964,0.712585,
-2.19421,0.714111,
-2.19574,0.718689,
-2.19116,0.721741,
-2.18201,0.718689,
-2.16827,0.708008,
-2.15454,0.71106,
-2.13318,0.723267,
-2.11334,0.715637,
-2.08435,0.712585,
-2.05688,0.71106,
-2.02484,0.70343,
-1.98669,0.726318,
-1.95465,0.723267,
-1.90582,0.714111,
-1.85699,0.715637,
-1.81274,0.712585,
-1.76086,0.724792,
-1.70898,0.720215,
-1.65253,0.715637,
-1.59912,0.714111,
-1.54419,0.709534,
-1.49078,0.724792,
-1.4389,0.718689,
-1.3855,0.709534,
-1.33209,0.70343,
-1.28784,0.71106,
-1.23901,0.714111,
-1.20087,0.717163,
-1.15967,0.717163,
-1.12152,0.708008,
-1.08032,0.714111,
-1.0437,0.726318,
-1.00861,0.720215,
-0.982666,0.718689,
-0.952148,0.709534,
-0.927734,0.71106,
-0.907898,0.723267,
-0.888062,0.718689,
-0.874329,0.717163,
-0.856018,0.709534,
-0.843811,0.709534,
-0.828552,0.723267,
-0.820923,0.714111,
-0.817871,0.712585,
-0.808716,0.708008,
-0.799561,0.70343,
-0.796509,0.720215,
-0.791931,0.724792,
-0.788879,0.714111,
-0.788879,0.71106,
-0.788879,0.701904,
-0.787354,0.723267,
-0.790405,0.724792,
-0.787354,0.715637,
-0.788879,0.708008,
-0.790405,0.709534,
-0.790405,0.727844,
-0.791931,0.723267,
-0.798035,0.706482,
-0.798035,0.70343,
-0.805664,0.712585,
-0.80719,0.718689,
-0.816345,0.718689,
-0.823975,0.717163,
-0.831604,0.698853,
-0.837708,0.709534,
-0.85144,0.721741,
-0.857544,0.717163,
-0.869751,0.715637,
-0.878906,0.706482,
-0.88501,0.708008,
-0.888062,0.723267,
-0.892639,0.718689,
-0.897217,0.717163,
-0.898743,0.708008,
-0.901794,0.709534,
-0.904846,0.721741,
-0.904846,0.717163,
-0.904846,0.71106,
-0.898743,0.709534,
-0.892639,0.701904,
-0.886536,0.718689,
-0.880432,0.718689,
-0.874329,0.708008,
-0.862122,0.70343,
-0.852966,0.71106,
-0.840759,0.718689,
-0.830078,0.724792,
-0.817871,0.718689,
-0.805664,0.709534,
-0.796509,0.715637,
-0.78125,0.718689,
-0.769043,0.723267,
-0.758362,0.715637,
-0.747681,0.706482,
-0.733948,0.701904,
-0.720215,0.718689,
-0.709534,0.720215,
-0.695801,0.714111,
-0.68512,0.701904,
-0.675964,0.708008,
-0.671387,0.721741,
-0.660706,0.715637,
-0.656128,0.717163,
-0.65155,0.708008,
-0.650024,0.706482,
-0.646973,0.723267,
-0.646973,0.723267,
-0.645447,0.712585,
-0.646973,0.706482,
-0.646973,0.709534,
-0.648499,0.718689,
-0.648499,0.717163,
-0.65155,0.712585,
-0.657654,0.70343,
-0.662231,0.701904,
-0.665283,0.717163,
-0.674438,0.720215,
-0.680542,0.709534,
-0.688171,0.706482,
-0.692749,0.706482,
-0.701904,0.714111,
-0.704956,0.718689,
-0.717163,0.714111,
-0.727844,0.70343,
-0.733948,0.708008,
-0.746155,0.721741,
-0.758362,0.717163,
-0.769043,0.717163,
-0.776672,0.70343,
-0.793457,0.706482,
-0.802612,0.714111,
-0.810242,0.718689,
-0.822449,0.71106,
-0.834656,0.700378,
-0.85144,0.701904,
-0.866699,0.723267,
-0.880432,0.717163,
-0.891113,0.714111,
-0.90332,0.70343,
-0.915527,0.697327,
-0.926208,0.723267,
-0.938416,0.721741,
-0.947571,0.714111,
-0.956726,0.70343,
-0.970459,0.709534,
-0.976563,0.723267,
-0.985718,0.718689,
-0.996399,0.709534,
-1.00403,0.706482,
-1.01318,0.700378,
-1.02234,0.720215,
-1.03149,0.723267,
-1.03302,0.708008,
-1.03912,0.700378,
-1.04675,0.71106,
-1.05286,0.718689,
-1.06049,0.720215,
-1.06506,0.717163,
-1.07574,0.70343,
-1.08337,0.708008,
-1.09253,0.720215,
-1.09711,0.726318,
-1.11084,0.712585,
-1.11542,0.691223,
-1.12305,0.70343,
-1.12915,0.723267,
-1.13983,0.717163,
-1.14594,0.715637,
-1.15051,0.697327,
-1.15662,0.70343,
-1.17035,0.746155,
-1.17493,0.70343,
-1.18103,0.715637,
-1.18561,0.706482,
-1.19324,0.701904,
-1.20087,0.724792,
-1.20697,0.715637,
-1.21002,0.71106,
-1.21613,0.706482,
-1.22223,0.706482,
-1.22986,0.721741,
-1.23749,0.717163,
-1.24054,0.715637,
-1.24359,0.70343,
-1.24664,0.701904,
-1.25275,0.717163,
-1.25732,0.720215,
-1.26343,0.709534,
-1.26953,0.701904,
-1.26953,0.706482,
-1.27716,0.715637,
-1.28632,0.724792,
-1.29089,0.714111,
-1.30005,0.701904,
-1.30463,0.708008,
-1.31836,0.723267,
-1.32294,0.726318,
-1.33362,0.715637,
-1.34125,0.70343,
-1.34735,0.70343,
-1.35651,0.718689,
-1.37024,0.717163,
-1.37482,0.712585,
-1.38245,0.701904,
-1.38702,0.70343,
-1.39771,0.715637,
-1.40686,0.720215,
-1.41449,0.712585,
-1.42822,0.701904,
-1.43738,0.698853,
-1.44653,0.718689,
-1.45416,0.721741,
-1.46332,0.712585,
-1.47247,0.701904,
-1.47858,0.70343,
-1.48926,0.715637,
-1.49536,0.721741,
-1.50604,0.712585,
-1.5152,0.701904,
-1.52588,0.706482,
-1.53198,0.712585,
-1.54419,0.720215,
-1.55487,0.708008,
-1.56403,0.70343,
-1.57318,0.70343,
-1.58234,0.708008,
-1.59149,0.718689,
-1.60065,0.712585,
-1.61133,0.697327,
-1.62811,0.701904,
-1.63269,0.715637,
-1.63879,0.715637,
-1.64795,0.712585,
-1.6571,0.701904,
-1.66321,0.70343,
-1.66931,0.70343,
-1.67542,0.706482,
-1.67999,0.709534,
-1.68304,0.700378,
-1.67847,0.700378,
-1.67236,0.709534,
-1.66473,0.708008,
-1.64642,0.708008,
-1.62811,0.697327,
-1.6037,0.697327,
-1.57623,0.717163,
-1.54266,0.721741,
-1.50452,0.708008,
-1.46637,0.700378,
-1.42059,0.70343,
-1.37177,0.715637,
-1.31989,0.723267,
-1.26038,0.71106,
-1.20239,0.700378,
-1.14288,0.70343,
-1.08032,0.71106,
-1.02234,0.720215,
-0.959778,0.70343,
-0.895691,0.697327,
-0.836182,0.70343,
-0.78125,0.712585,
-0.723267,0.723267,
-0.663757,0.712585,
-0.6073,0.697327,
-0.558472,0.706482,
-0.506592,0.717163,
-0.463867,0.717163,
-0.422668,0.712585,
-0.389099,0.700378,
-0.354004,0.697327,
-0.318909,0.720215,
-0.288391,0.718689,
-0.265503,0.709534,
-0.241089,0.698853,
-0.222778,0.700378,
-0.205994,0.715637,
-0.195313,0.715637,
-0.178528,0.709534,
-0.161743,0.700378,
-0.154114,0.698853,
-0.151062,0.717163,
-0.143433,0.717163,
-0.140381,0.706482,
-0.140381,0.701904,
-0.138855,0.701904,
-0.143433,0.715637,
-0.149536,0.718689,
-0.151062,0.712585,
-0.154114,0.700378,
-0.15564,0.691223,
-0.160217,0.732422,
-0.164795,0.721741,
-0.167847,0.709534,
-0.17395,0.700378,
-0.18158,0.700378,
-0.187683,0.706482,
-0.192261,0.720215,
-0.196838,0.712585,
-0.202942,0.688171,
-0.210571,0.701904,
-0.218201,0.708008,
-0.22583,0.717163,
-0.238037,0.71106,
-0.245667,0.698853,
-0.253296,0.706482,
-0.260925,0.715637,
-0.270081,0.718689,
-0.276184,0.71106,
-0.289917,0.698853,
-0.300598,0.697327,
-0.306702,0.714111,
-0.315857,0.714111,
-0.32196,0.709534,
-0.335693,0.70343,
-0.343323,0.695801,
-0.354004,0.718689,
-0.357056,0.721741,
-0.360107,0.708008,
-0.364685,0.701904,
-0.361633,0.70343,
-0.363159,0.715637,
-0.361633,0.723267,
-0.360107,0.709534,
-0.35553,0.700378,
-0.350952,0.698853,
-0.340271,0.708008,
-0.341797,0.724792,
-0.337219,0.706482,
-0.32959,0.695801,
-0.323486,0.688171,
-0.32196,0.708008,
-0.312805,0.721741,
-0.306702,0.709534,
-0.296021,0.695801,
-0.294495,0.70343,
-0.285339,0.708008,
-0.279236,0.721741,
-0.274658,0.708008,
-0.270081,0.700378,
-0.265503,0.701904,
-0.259399,0.712585,
-0.256348,0.718689,
-0.254822,0.71106,
-0.259399,0.697327,
-0.256348,0.689697,
-0.263977,0.709534,
-0.265503,0.712585,
-0.270081,0.708008,
-0.276184,0.698853,
-0.279236,0.698853,
-0.283813,0.712585,
-0.289917,0.720215,
-0.296021,0.708008,
-0.305176,0.695801,
-0.314331,0.701904,
-0.326538,0.708008,
-0.337219,0.718689,
-0.344849,0.708008,
-0.357056,0.694275,
-0.375366,0.700378,
-0.382996,0.712585,
-0.396729,0.715637,
-0.408936,0.701904,
-0.419617,0.692749,
-0.430298,0.70343,
-0.442505,0.706482,
-0.456238,0.714111,
-0.463867,0.709534,
-0.479126,0.695801,
-0.492859,0.701904,
-0.500488,0.712585,
-0.514221,0.715637,
-0.521851,0.71106,
-0.538635,0.700378,
-0.546265,0.70343,
-0.564575,0.712585,
-0.575256,0.714111,
-0.592041,0.706482,
-0.6073,0.698853,
-0.624084,0.698853,
-0.634766,0.709534,
-0.643921,0.714111,
-0.663757,0.706482,
-0.675964,0.697327,
-0.688171,0.695801,
-0.70343,0.709534,
-0.715637,0.717163,
-0.733948,0.706482,
-0.747681,0.701904,
-0.764465,0.686646,
-0.778198,0.71106,
-0.793457,0.712585,
-0.805664,0.709534,
-0.820923,0.700378,
-0.83313,0.70343,
-0.848389,0.700378,
-0.862122,0.720215,
-0.872803,0.709534,
-0.886536,0.698853,
-0.901794,0.698853,
-0.91095,0.706482,
-0.918579,0.718689,
-0.935364,0.709534,
-0.947571,0.695801,
-0.961304,0.694275,
-0.975037,0.708008,
-0.985718,0.715637,
-1.00403,0.708008,
-1.01776,0.700378,
-1.02692,0.697327,
-1.0376,0.71106,
-1.04828,0.720215,
-1.06201,0.717163,
-1.0788,0.697327,
-1.091,0.698853,
-1.10474,0.701904,
-1.11694,0.714111,
-1.1261,0.70343,
-1.13983,0.697327,
-1.15509,0.695801,
-1.16119,0.70343,
-1.17645,0.718689,
-1.18713,0.701904,
-1.19934,0.698853,
-1.20544,0.700378,
-1.21307,0.708008,
-1.22528,0.718689,
-1.24054,0.708008,
-1.25122,0.695801,
-1.26038,0.697327,
-1.27563,0.708008,
-1.28632,0.715637,
-1.29852,0.694275,
-1.3092,0.694275,
-1.31989,0.694275,
-1.33209,0.701904,
-1.34583,0.714111,
-1.35498,0.70343,
-1.36261,0.689697,
-1.37482,0.697327,
-1.3855,0.701904,
-1.40076,0.718689,
-1.41296,0.709534,
-1.42212,0.698853,
-1.43738,0.701904,
-1.44806,0.706482,
-1.46179,0.717163,
-1.47095,0.701904,
-1.48468,0.695801,
-1.49231,0.698853,
-1.49994,0.708008,
-1.51367,0.71106,
-1.51825,0.700378,
-1.52588,0.698853,
-1.53351,0.694275,
-1.54266,0.70343,
-1.55182,0.715637,
-1.56097,0.698853,
-1.56555,0.697327,
-1.57776,0.697327,
-1.58691,0.709534,
-1.60217,0.717163,
-1.61896,0.701904,
-1.62506,0.691223,
-1.64337,0.697327,
-1.65405,0.708008,
-1.66473,0.714111,
-1.67999,0.701904,
-1.68915,0.695801,
-1.69983,0.695801,
-1.70898,0.698853,
-1.72424,0.714111,
-1.7395,0.71106,
-1.74713,0.692749,
-1.75781,0.695801,
-1.77002,0.708008,
-1.77917,0.714111,
-1.79138,0.706482,
-1.80359,0.697327,
-1.81274,0.695801,
-1.81885,0.701904,
-1.83411,0.717163,
-1.84631,0.708008,
-1.85699,0.697327,
-1.86615,0.697327,
-1.87073,0.706482,
-1.87988,0.714111,
-1.89209,0.698853,
-1.90277,0.698853,
-1.91803,0.694275,
-1.92719,0.70343,
-1.93481,0.715637,
-1.94397,0.701904,
-1.95923,0.697327,
-1.97144,0.695801,
-1.97906,0.70343,
-1.9928,0.717163,
-1.9989,0.708008,
-2.00958,0.694275,
-2.02179,0.70343,
-2.03552,0.701904,
-2.04315,0.715637,
-2.05383,0.708008,
-2.06451,0.694275,
-2.07062,0.697327,
-2.07672,0.700378,
-2.07977,0.697327,
-2.08282,0.701904,
-2.0813,0.689697,
-2.07977,0.694275,
-2.06909,0.70343,
-2.05841,0.714111,
-2.04315,0.706482,
-2.02332,0.698853,
-2.00043,0.697327,
-1.96991,0.70343,
-1.93634,0.714111,
-1.89667,0.70343,
-1.85547,0.698853,
-1.80664,0.694275,
-1.75323,0.70343,
-1.69983,0.718689,
-1.64337,0.698853,
-1.58691,0.697327,
-1.53046,0.695801,
-1.4679,0.700378,
-1.40839,0.715637,
-1.34888,0.700378,
-1.28784,0.695801,
-1.22986,0.700378,
-1.1734,0.701904,
-1.12,0.717163,
-1.06659,0.70343,
-1.02081,0.691223,
-0.975037,0.697327,
-0.930786,0.698853,
-0.886536,0.715637,
-0.849915,0.70343,
-0.817871,0.695801,
-0.78125,0.695801,
-0.758362,0.700378,
-0.732422,0.714111,
-0.706482,0.700378,
-0.68512,0.691223,
-0.666809,0.694275,
-0.654602,0.697327,
-0.646973,0.715637,
-0.637817,0.708008,
-0.627136,0.68512,
-0.621033,0.714111,
-0.619507,0.706482,
-0.621033,0.718689,
-0.621033,0.700378,
-0.622559,0.700378,
-0.624084,0.694275,
-0.627136,0.701904,
-0.634766,0.712585,
-0.637817,0.720215,
-0.648499,0.692749,
-0.65155,0.688171,
-0.65918,0.70343,
-0.665283,0.715637,
-0.672913,0.698853,
-0.679016,0.691223,
-0.688171,0.697327,
-0.694275,0.692749,
-0.708008,0.715637,
-0.717163,0.701904,
-0.72937,0.691223,
-0.744629,0.694275,
-0.753784,0.706482,
-0.769043,0.712585,
-0.78125,0.70343,
-0.796509,0.694275,
-0.811768,0.697327,
-0.822449,0.700378,
-0.836182,0.714111,
-0.85144,0.697327,
-0.862122,0.691223,
-0.874329,0.694275,
-0.883484,0.70343,
-0.891113,0.708008,
-0.904846,0.701904,
-0.91095,0.694275,
-0.918579,0.691223,
-0.924683,0.701904,
-0.935364,0.71106,
-0.938416,0.701904,
-0.942993,0.697327,
-0.946045,0.697327,
-0.942993,0.698853,
-0.941467,0.712585,
-0.938416,0.70343,
-0.932312,0.694275,
-0.930786,0.694275,
-0.926208,0.700378,
-0.924683,0.709534,
-0.923157,0.698853,
-0.918579,0.691223,
-0.914001,0.695801,
-0.906372,0.695801,
-0.898743,0.708008,
-0.894165,0.70343,
-0.889587,0.688171,
-0.881958,0.695801,
-0.87738,0.70343,
-0.874329,0.70343,
-0.868225,0.70343,
-0.865173,0.692749,
-0.862122,0.691223,
-0.863647,0.70343,
-0.857544,0.700378,
-0.854492,0.701904,
-0.856018,0.694275,
-0.856018,0.691223,
-0.85907,0.706482,
-0.85907,0.70343,
-0.865173,0.698853,
-0.869751,0.692749,
-0.869751,0.688171,
-0.875854,0.70343,
-0.881958,0.709534,
-0.891113,0.695801,
-0.895691,0.691223,
-0.90332,0.695801,
-0.914001,0.695801,
-0.923157,0.708008,
-0.933838,0.700378,
-0.946045,0.691223,
-0.953674,0.697327,
-0.96283,0.70343,
-0.976563,0.71106,
-0.990295,0.709534,
-1.00098,0.694275,
-1.01013,0.694275,
-1.01929,0.700378,
-1.03455,0.70343,
-1.0437,0.70343,
-1.05743,0.691223,
-1.06964,0.692749,
-1.08337,0.701904,
-1.10779,0.70343,
-1.12,0.701904,
-1.13525,0.694275,
-1.15204,0.688171,
-1.16577,0.701904,
-1.1795,0.701904,
-1.19476,0.701904,
-1.20544,0.695801,
-1.21918,0.694275,
-1.23138,0.70343,
-1.24359,0.698853,
-1.2558,0.723267,
-1.26953,0.691223,
-1.28174,0.691223,
-1.29395,0.691223,
-1.30615,0.708008,
-1.32141,0.695801,
-1.33514,0.688171,
-1.35345,0.692749,
-1.36719,0.698853,
-1.37787,0.709534,
-1.39771,0.701904,
-1.40381,0.686646,
-1.42059,0.692749,
-1.4328,0.70343,
-1.44806,0.701904,
-1.45721,0.70343,
-1.46942,0.692749,
-1.4801,0.686646,
-1.49384,0.706482,
-1.50452,0.701904,
-1.5152,0.700378,
-1.53198,0.691223,
-1.54572,0.689697,
-1.5564,0.701904,
-1.57318,0.698853,
-1.58539,0.701904,
-1.59454,0.689697,
-1.60675,0.686646,
-1.61438,0.698853,
-1.63116,0.71106,
-1.64337,0.698853,
-1.65253,0.692749,
-1.66779,0.694275,
-1.67389,0.698853,
-1.68915,0.708008,
-1.6983,0.706482,
-1.70593,0.688171,
-1.71814,0.691223,
-1.72882,0.700378,
-1.73798,0.70343,
-1.74866,0.697327,
-1.75629,0.689697,
-1.77002,0.691223,
-1.78223,0.697327,
-1.79138,0.706482,
-1.80511,0.701904,
-1.8158,0.683594,
-1.82037,0.691223,
-1.83411,0.701904,
-1.84479,0.701904,
-1.85394,0.700378,
-1.8631,0.689697,
-1.87683,0.689697,
-1.88599,0.708008,
-1.89667,0.709534,
-1.9043,0.700378,
-1.91345,0.689697,
-1.92261,0.691223,
-1.92719,0.700378,
-1.93634,0.706482,
-1.94702,0.70343,
-1.95313,0.691223,
-1.96228,0.688171,
-1.96991,0.698853,
-1.97906,0.721741,
-1.98517,0.695801,
-1.99127,0.694275,
-2.00195,0.694275,
-2.01263,0.697327,
-2.02179,0.709534,
-2.03552,0.700378,
-2.04163,0.688171,
-2.04926,0.692749,
-2.06299,0.708008,
-2.07062,0.697327,
-2.07825,0.701904,
-2.08435,0.689697,
-2.09503,0.692749,
-2.10419,0.701904,
-2.10724,0.701904,
-2.11334,0.700378,
-2.11792,0.688171,
-2.1286,0.691223,
-2.13928,0.70343,
-2.14691,0.701904,
-2.15454,0.698853,
-2.16675,0.686646,
-2.17133,0.689697,
-2.18048,0.700378,
-2.19116,0.709534,
-2.20337,0.698853,
-2.211,0.692749,
-2.2171,0.694275,
-2.22168,0.700378,
-2.22626,0.71106,
-2.23389,0.698853,
-2.24152,0.692749,
-2.24915,0.697327,
-2.2583,0.700378,
-2.26898,0.70343,
-2.27814,0.701904,
-2.28424,0.686646,
-2.29187,0.689697,
-2.30103,0.698853,
-2.30865,0.695801,
-2.31323,0.700378,
-2.31934,0.701904,
-2.32697,0.683594,
-2.33307,0.70343,
-2.34222,0.70343,
-2.3468,0.700378,
-2.35596,0.688171,
-2.36359,0.688171,
-2.37274,0.701904,
-2.37427,0.694275,
-2.37885,0.698853,
-2.38342,0.692749,
-2.38037,0.688171,
-2.37427,0.701904,
-2.36511,0.708008,
-2.35901,0.697327,
-2.34375,0.71106,
-2.32544,0.68512,
-2.30255,0.695801,
-2.27661,0.708008,
-2.24152,0.694275,
-2.20032,0.688171,
-2.1637,0.694275,
-2.11487,0.697327,
-2.07214,0.71106,
-2.01874,0.70343,
-1.96838,0.68512,
-1.91956,0.700378,
-1.86462,0.701904,
-1.80817,0.708008,
-1.75018,0.700378,
-1.69373,0.698853,
-1.63422,0.688171,
-1.57776,0.697327,
-1.52283,0.701904,
-1.474,0.697327,
-1.41907,0.686646,
-1.36871,0.694275,
-1.32751,0.70343,
-1.28326,0.698853,
-1.24512,0.700378,
-1.21002,0.689697,
-1.1795,0.688171,
-1.15051,0.695801,
-1.12152,0.709534,
-1.09863,0.698853,
-1.07727,0.694275,
-1.05743,0.71106,
-1.0376,0.698853,
-1.02081,0.708008,
-1.01013,0.691223,
-1.0025,0.692749,
-0.994873,0.689697,
-0.991821,0.701904,
-0.982666,0.706482,
-0.985718,0.692749,
-0.978088,0.686646,
-0.982666,0.691223,
-0.984192,0.695801,
-0.98877,0.706482,
-0.993347,0.700378,
-0.999451,0.683594,
-1.00555,0.695801,
-1.01318,0.706482,
-1.02539,0.708008,
-1.03302,0.700378,
-1.0437,0.691223,
-1.05133,0.689697,
-1.06506,0.698853,
-1.0788,0.708008,
-1.08795,0.700378,
-1.10168,0.686646,
-1.11389,0.686646,
-1.12762,0.697327,
-1.13831,0.698853,
-1.15051,0.697327,
-1.16882,0.686646,
-1.17645,0.68512,
-1.19019,0.701904,
-1.20239,0.706482,
-1.2146,0.695801,
-1.22833,0.689697,
-1.24207,0.689697,
-1.25427,0.695801,
-1.26343,0.708008,
-1.27411,0.701904,
-1.28479,0.686646,
-1.29395,0.68512,
-1.30005,0.695801,
-1.3092,0.701904,
-1.31073,0.694275,
-1.31836,0.686646,
-1.31683,0.686646,
-1.31989,0.695801,
-1.31378,0.701904,
-1.31531,0.698853,
-1.31226,0.686646,
-1.30615,0.688171,
-1.29852,0.697327,
-1.29089,0.697327,
-1.28632,0.700378,
-1.28021,0.686646,
-1.26801,0.692749,
-1.25885,0.700378,
-1.25122,0.706482,
-1.23749,0.697327,
-1.22986,0.679016,
-1.21765,0.68512,
-1.20697,0.697327,
-1.19934,0.70343,
-1.19019,0.697327,
-1.18408,0.689697,
-1.17798,0.682068,
-1.17035,0.706482,
-1.17035,0.706482,
-1.17035,0.692749,
-1.16425,0.692749,
-1.16425,0.691223,
-1.15814,0.695801,
-1.15509,0.706482,
-1.15356,0.698853,
-1.15356,0.691223,
-1.15814,0.689697,
-1.16577,0.698853,
-1.16882,0.708008,
-1.1734,0.695801,
-1.18103,0.688171,
-1.19019,0.688171,
-1.20392,0.700378,
-1.2146,0.706482,
-1.22223,0.700378,
-1.23291,0.686646,
-1.24359,0.692749,
-1.25732,0.70343,
-1.26801,0.701904,
-1.28326,0.700378,
-1.29547,0.689697,
-1.30463,0.688171,
-1.31683,0.700378,
-1.33209,0.706482,
-1.34583,0.700378,
-1.35803,0.688171,
-1.37482,0.686646,
-1.38702,0.701904,
-1.40381,0.70343,
-1.41907,0.694275,
-1.42975,0.688171,
-1.44501,0.68512,
-1.45569,0.700378,
-1.47095,0.70343,
-1.48621,0.691223,
-1.49841,0.694275,
-1.51215,0.689697,
-1.52435,0.698853,
-1.53351,0.709534,
-1.54877,0.697327,
-1.55792,0.686646,
-1.57471,0.689697,
-1.58997,0.698853,
-1.60065,0.708008,
-1.61438,0.698853,
-1.62811,0.688171,
-1.63879,0.688171,
-1.65405,0.697327,
-1.67084,0.706482,
-1.68152,0.697327,
-1.69067,0.686646,
-1.70288,0.691223,
-1.71814,0.701904,
-1.7334,0.701904,
-1.74408,0.697327,
-1.75629,0.689697,
-1.77307,0.686646,
-1.78528,0.695801,
-1.79443,0.71106,
-1.80817,0.698853,
-1.81427,0.688171,
-1.82343,0.689697,
-1.83105,0.698853,
-1.84326,0.70343,
-1.84784,0.697327,
-1.85699,0.692749,
-1.8692,0.688171,
-1.87836,0.698853,
-1.88446,0.70343,
-1.89514,0.695801,
-1.90582,0.688171,
-1.91345,0.682068,
-1.92261,0.698853,
-1.93176,0.706482,
-1.94092,0.691223,
-1.95007,0.67749,
-1.9577,0.68512,
-1.96686,0.701904,
-1.97601,0.701904,
-1.98364,0.701904,
-1.99432,0.688171,
-2.00653,0.683594,
-2.01416,0.708008,
-2.02179,0.708008,
-2.02942,0.698853,
-2.03705,0.686646,
-2.04468,0.682068,
-2.05383,0.70343,
-2.06604,0.70343,
-2.07672,0.697327,
-2.0874,0.691223,
-2.09656,0.679016,
-2.10724,0.695801,
-2.11487,0.708008,
-2.12555,0.695801,
-2.13165,0.691223,
-2.13623,0.68512,
-2.14539,0.697327,
-2.16064,0.698853,
-2.16675,0.695801,
-2.17285,0.68512,
-2.17896,0.689697,
-2.19421,0.700378,
-2.19727,0.708008,
-2.20947,0.714111,
-2.21558,0.68512,
-2.22626,0.688171,
-2.23694,0.697327,
-2.24609,0.708008,
-2.25677,0.694275,
-2.2644,0.683594,
-2.27661,0.686646,
-2.28729,0.698853,
-2.30408,0.709534,
-2.31323,0.694275,
-2.32697,0.689697,
-2.33459,0.688171,
-2.34833,0.698853,
-2.36359,0.712585,
-2.37274,0.694275,
-2.38037,0.689697,
-2.3941,0.680542,
-2.40784,0.700378,
-2.42157,0.706482,
-2.43073,0.691223,
-2.4353,0.691223,
-2.44598,0.682068,
-2.45514,0.697327,
-2.46735,0.708008,
-2.4765,0.691223,
-2.48871,0.68512,
-2.50244,0.688171,
-2.51312,0.691223,
-2.51923,0.708008,
-2.52991,0.698853,
-2.54211,0.686646,
-2.5528,0.701904,
-2.56653,0.695801,
-2.57416,0.70343,
-2.59094,0.691223,
-2.6001,0.688171,
-2.61078,0.679016,
-2.62451,0.698853,
-2.63062,0.71106,
-2.64435,0.683594,
-2.65503,0.688171,
-2.66724,0.682068,
-2.67792,0.697327,
-2.68555,0.700378,
-2.6947,0.692749,
-2.69775,0.688171,
-2.70386,0.679016,
-2.70233,0.694275,
-2.69928,0.712585,
-2.69623,0.691223,
-2.69318,0.692749,
-2.68707,0.68512,
-2.67487,0.692749,
-2.65808,0.71106,
-2.63062,0.694275,
-2.60315,0.688171,
-2.56653,0.683594,
-2.53296,0.695801,
-2.49023,0.708008,
-2.45056,0.694275,
-2.40326,0.689697,
-2.35443,0.686646,
-2.30255,0.691223,
-2.24304,0.70343,
-2.18506,0.695801,
-2.12708,0.68512,
-2.06757,0.686646,
-2.00958,0.697327,
-1.94702,0.70343,
-1.88599,0.697327,
-1.83105,0.689697,
-1.77002,0.68512,
-1.71509,0.698853,
-1.66321,0.709534,
-1.61285,0.694275,
-1.56555,0.695801,
-1.52435,0.688171,
-1.48315,0.698853,
-1.44501,0.706482,
-1.40991,0.692749,
-1.37787,0.688171,
-1.34888,0.686646,
-1.31989,0.695801,
-1.297,0.708008,
-1.27563,0.692749,
-1.25885,0.688171,
-1.24359,0.686646,
-1.23138,0.692749,
-1.21765,0.708008,
-1.21002,0.695801,
-1.20392,0.692749,
-1.20087,0.712585,
-1.19476,0.698853,
-1.19629,0.70343,
-1.19019,0.695801,
-1.19476,0.68512,
-1.19781,0.68512,
-1.19934,0.692749,
-1.20087,0.70343,
-1.20239,0.697327,
-1.20544,0.680542,
-1.21002,0.680542,
-1.21307,0.697327,
-1.21613,0.700378,
-1.21918,0.698853,
-1.22528,0.689697,
-1.22833,0.682068,
-1.23596,0.698853,
-1.24207,0.71106,
-1.25427,0.694275,
-1.26038,0.688171,
-1.26495,0.689697,
-1.27716,0.694275,
-1.28479,0.709534,
-1.29547,0.695801,
-1.3031,0.688171,
-1.31378,0.682068,
-1.32141,0.692749,
-1.33209,0.701904,
-1.34277,0.688171,
-1.35498,0.688171,
-1.36108,0.691223,
-1.37177,0.68512,
-1.3855,0.706482,
-1.39618,0.694275,
-1.40381,0.683594,
-1.40991,0.688171,
-1.41449,0.697327,
-1.41449,0.700378,
-1.42059,0.695801,
-1.42059,0.680542,
-1.42212,0.701904,
-1.42212,0.692749,
-1.42212,0.70343,
-1.41754,0.700378,
-1.41296,0.688171,
-1.40533,0.682068,
-1.39923,0.694275,
-1.39618,0.697327,
-1.38855,0.694275,
-1.38092,0.686646,
-1.37329,0.679016,
-1.36871,0.688171,
-1.35956,0.70343,
-1.35498,0.691223,
-1.3504,0.692749,
-1.34277,0.68512,
-1.33972,0.691223,
-1.33209,0.708008,
-1.33057,0.698853,
-1.32904,0.686646,
-1.32751,0.688171,
-1.32599,0.691223,
-1.32294,0.700378,
-1.32751,0.695801,
-1.32446,0.686646,
-1.32599,0.686646,
-1.32751,0.688171,
-1.32751,0.700378,
-1.33209,0.697327,
-1.33209,0.680542,
-1.33972,0.686646,
-1.3443,0.694275,
-1.3504,0.697327,
-1.36108,0.698853,
-1.37329,0.689697,
-1.37939,0.683594,
-1.38855,0.692749,
-1.40533,0.694275,
-1.41602,0.688171,
-1.42517,0.688171,
-1.43127,0.689697,
-1.44348,0.691223,
-1.45416,0.697327,
-1.46332,0.694275,
-1.47247,0.692749,
-1.48621,0.68512,
-1.49689,0.691223,
-1.50909,0.700378,
-1.52283,0.692749,
-1.53046,0.689697,
-1.54877,0.689697,
-1.56708,0.689697,
-1.57776,0.701904,
-1.59607,0.698853,
-1.6098,0.688171,
-1.62506,0.695801,
-1.6449,0.694275,
-1.66779,0.697327,
-1.67847,0.694275,
-1.70288,0.682068,
-1.71661,0.692749,
-1.73645,0.689697,
-1.75018,0.698853,
-1.76544,0.697327,
-1.77917,0.68512,
-1.79291,0.683594,
-1.80817,0.694275,
-1.81885,0.700378,
-1.83411,0.700378,
-1.84784,0.683594,
-1.85699,0.692749,
-1.87378,0.692749,
-1.88904,0.694275,
-1.90277,0.70343,
-1.91193,0.680542,
-1.92413,0.688171,
-1.93481,0.692749,
-1.94855,0.700378,
-1.95923,0.694275,
-1.97144,0.686646,
-1.98364,0.692749,
-1.99432,0.695801,
-2.00195,0.698853,
-2.01111,0.70343,
-2.02179,0.686646,
-2.03552,0.68512,
-2.04315,0.692749,
-2.04926,0.697327,
-2.06299,0.697327,
-2.06909,0.68512,
-2.07672,0.68512,
-2.0874,0.688171,
-2.09808,0.700378,
-2.10724,0.692749,
-2.11639,0.68512,
-2.1286,0.689697,
-2.13776,0.689697,
-2.14539,0.697327,
-2.15607,0.698853,
-2.1637,0.686646,
-2.17133,0.689697,
-2.18353,0.691223,
-2.19116,0.697327,
-2.20032,0.700378,
-2.20795,0.68512,
-2.21863,0.688171,
-2.23083,0.692749,
-2.24152,0.698853,
-2.24915,0.697327,
-2.25983,0.680542,
-2.27203,0.688171,
-2.28119,0.695801,
-2.28729,0.692749,
-2.29187,0.70343,
-2.3056,0.686646,
-2.31018,0.68512,
-2.32086,0.694275,
-2.33002,0.70343,
-2.3407,0.697327,
-2.35138,0.688171,
-2.36359,0.692749,
-2.37427,0.691223,
-2.38495,0.700378,
-2.3941,0.697327,
-2.40631,0.688171,
-2.41547,0.68512,
-2.4231,0.686646,
-2.43378,0.697327,
-2.44598,0.697327,
-2.45361,0.686646,
-2.46582,0.688171,
-2.47498,0.689697,
-2.4826,0.698853,
-2.49176,0.701904,
-2.50244,0.683594,
-2.50854,0.688171,
-2.51617,0.692749,
-2.52228,0.697327,
-2.53143,0.700378,
-2.53601,0.689697,
-2.54059,0.686646,
-2.54974,0.691223,
-2.5589,0.701904,
-2.56653,0.70343,
-2.57263,0.683594,
-2.58026,0.680542,
-2.59247,0.689697,
-2.60162,0.694275,
-2.61078,0.695801,
-2.62146,0.679016,
-2.63367,0.682068,
-2.6413,0.70343,
-2.6535,0.70343,
-2.66266,0.695801,
-2.67487,0.686646,
-2.68402,0.68512,
-2.6886,0.692749,
-2.69928,0.700378,
-2.70844,0.697327,
-2.71606,0.682068,
-2.72827,0.668335,
-2.73895,0.683594,
-2.74506,0.700378,
-2.76031,0.692749,
-2.76794,0.683594,
-2.7771,0.688171,
-2.7832,0.691223,
-2.79541,0.697327,
-2.80304,0.697327,
-2.81372,0.679016,
-2.81982,0.688171,
-2.83203,0.691223,
-2.83966,0.697327,
-2.84882,0.706482,
-2.85797,0.68512,
-2.86865,0.68512,
-2.87933,0.694275,
-2.88696,0.700378,
-2.89612,0.698853,
-2.90222,0.679016,
-2.9129,0.68512,
-2.92358,0.691223,
-2.92816,0.695801,
-2.93121,0.692749,
-2.93884,0.68512,
-2.94189,0.683594,
-2.94342,0.691223,
-2.94647,0.695801,
-2.948,0.694275,
-2.948,0.688171,
-2.94342,0.68512,
-2.93427,0.691223,
-2.91748,0.70343,
-2.90527,0.700378,
-2.88696,0.686646,
-2.86407,0.68512,
-2.83661,0.692749,
-2.80609,0.698853,
-2.76947,0.695801,
-2.73438,0.68512,
-2.69318,0.688171,
-2.65045,0.686646,
-2.60468,0.694275,
-2.5528,0.700378,
-2.50092,0.682068,
-2.44751,0.682068,
-2.3941,0.692749,
-2.33612,0.695801,
-2.27814,0.700378,
-2.22626,0.683594,
-2.16827,0.682068,
-2.11792,0.691223,
-2.06451,0.700378,
-2.01263,0.697327,
-1.96533,0.683594,
-1.92108,0.680542,
-1.87378,0.691223,
-1.83258,0.697327,
-1.79443,0.695801,
-1.75629,0.680542,
-1.72272,0.674438,
-1.69067,0.686646,
-1.66626,0.698853,
-1.64337,0.691223,
-1.61743,0.682068,
-1.59912,0.68512,
-1.58386,0.686646,
-1.56708,0.70343,
-1.55792,0.692749,
-1.54724,0.679016,
-1.54266,0.683594,
-1.53809,0.691223,
-1.53198,0.692749,
-1.53046,0.686646,
-1.5274,0.680542,
-1.5274,0.680542,
-1.53046,0.689697,
-1.52893,0.692749,
-1.53046,0.694275,
-1.53046,0.683594,
-1.54114,0.679016,
-1.54419,0.689697,
-1.54877,0.694275,
-1.56097,0.697327,
-1.57166,0.680542,
-1.58234,0.680542,
-1.58844,0.691223,
-1.60217,0.700378,
-1.61438,0.695801,
-1.62048,0.683594,
-1.64032,0.683594,
-1.64795,0.686646,
-1.66168,0.701904,
-1.67389,0.695801,
-1.6861,0.682068,
-1.70288,0.682068,
-1.70898,0.686646,
-1.72272,0.697327,
-1.73492,0.694275,
-1.74561,0.679016,
-1.75781,0.683594,
-1.76849,0.682068,
-1.77612,0.683594,
-1.78528,0.697327,
-1.79138,0.67749,
-1.79291,0.682068,
-1.79749,0.691223,
-1.80359,0.695801,
-1.80359,0.700378,
-1.80359,0.682068,
-1.80664,0.680542,
-1.80511,0.691223,
-1.80817,0.698853,
-1.80664,0.695801,
-1.79901,0.680542,
-1.79291,0.679016,
-1.78833,0.688171,
-1.78528,0.697327,
-1.7807,0.694275,
-1.7746,0.683594,
-1.76392,0.671387,
-1.75629,0.686646,
-1.74408,0.701904,
-1.73187,0.694275,
-1.72119,0.686646,
-1.71051,0.679016,
-1.70441,0.688171,
-1.6983,0.70343,
-1.68915,0.697327,
-1.68152,0.682068,
-1.67236,0.68512,
-1.66473,0.692749,
-1.66016,0.691223,
-1.66016,0.694275,
-1.65405,0.67749,
-1.6571,0.683594,
-1.65253,0.686646,
-1.651,0.695801,
-1.64948,0.695801,
-1.651,0.674438,
-1.64948,0.683594,
-1.64642,0.686646,
-1.6449,0.694275,
-1.64642,0.697327,
-1.64948,0.682068,
-1.65405,0.683594,
-1.66016,0.692749,
-1.66473,0.694275,
-1.67542,0.695801,
-1.69067,0.68512,
-1.69678,0.682068,
-1.71051,0.689697,
-1.72119,0.692749,
-1.73492,0.692749,
-1.74713,0.686646,
-1.76239,0.682068,
-1.77307,0.679016,
-1.7868,0.695801,
-1.80206,0.689697,
-1.81427,0.68512,
-1.828,0.682068,
-1.84021,0.680542,
-1.85089,0.695801,
-1.86768,0.700378,
-1.87836,0.680542,
-1.89209,0.68512,
-1.90125,0.688171,
-1.90887,0.697327,
-1.92566,0.697327,
-1.93329,0.683594,
-1.94855,0.680542,
-1.95465,0.688171,
-1.96533,0.695801,
-1.98059,0.697327,
-1.98517,0.68512,
-1.9989,0.672913,
-2.01111,0.689697,
-2.02026,0.691223,
-2.02942,0.695801,
-2.04163,0.683594,
-2.04926,0.672913,
-2.05994,0.688171,
-2.06909,0.695801,
-2.07825,0.695801,
-2.08893,0.671387,
-2.09656,0.680542,
-2.10419,0.688171,
-2.11334,0.697327,
-2.1225,0.694275,
-2.13165,0.67749,
-2.13776,0.679016,
-2.14691,0.691223,
-2.15759,0.697327,
-2.1637,0.688171,
-2.17438,0.67749,
-2.18048,0.679016,
-2.19116,0.686646,
-2.20032,0.697327,
-2.211,0.694275,
-2.2171,0.679016,
-2.22473,0.682068,
-2.22931,0.691223,
-2.24152,0.694275,
-2.24762,0.698853,
-2.25372,0.679016,
-2.25983,0.679016,
-2.27203,0.691223,
-2.28271,0.695801,
-2.29187,0.694275,
-2.29797,0.682068,
-2.3056,0.67749,
-2.31018,0.691223,
-2.31628,0.691223,
-2.32086,0.691223,
-2.33002,0.682068,
-2.33612,0.67749,
-2.34375,0.688171,
-2.35138,0.697327,
-2.36359,0.692749,
-2.36816,0.67749,
-2.37427,0.679016,
-2.38342,0.688171,
-2.39105,0.697327,
-2.39716,0.692749,
-2.40479,0.682068,
-2.41699,0.682068,
-2.4231,0.68512,
-2.42615,0.700378,
-2.43225,0.692749,
-2.44141,0.680542,
-2.44446,0.682068,
-2.45209,0.682068,
-2.46277,0.692749,
-2.47192,0.694275,
-2.47955,0.67749,
-2.4826,0.67749,
-2.48871,0.688171,
-2.49329,0.697327,
-2.50092,0.692749,
-2.50854,0.686646,
-2.51465,0.67749,
-2.52228,0.689697,
-2.53143,0.692749,
-2.54211,0.697327,
-2.54974,0.68512,
-2.5528,0.67749,
-2.56195,0.689697,
-2.57263,0.695801,
-2.57568,0.692749,
-2.58636,0.679016,
-2.59247,0.671387,
-2.59857,0.683594,
-2.6062,0.695801,
-2.61688,0.688171,
-2.62146,0.682068,
-2.62909,0.669861,
-2.63824,0.683594,
-2.64587,0.697327,
-2.6535,0.694275,
-2.65961,0.683594,
-2.66571,0.674438,
-2.66571,0.689697,
-2.67029,0.694275,
-2.67944,0.694275,
-2.68402,0.682068,
-2.69775,0.672913,
-2.70386,0.68512,
-2.70996,0.694275,
-2.71454,0.692749,
-2.72217,0.682068,
-2.72675,0.671387,
-2.73132,0.686646,
-2.742,0.688171,
-2.74963,0.694275,
-2.75726,0.682068,
-2.771,0.674438,
-2.7771,0.682068,
-2.78931,0.697327,
-2.79999,0.692749,
-2.80609,0.688171,
-2.81067,0.679016,
-2.81982,0.686646,
-2.82745,0.697327,
-2.83203,0.691223,
-2.83966,0.686646,
-2.84882,0.67749,
-2.85797,0.680542,
-2.86407,0.694275,
-2.87628,0.689697,
-2.88086,0.680542,
-2.88849,0.674438,
-2.89001,0.682068,
-2.89764,0.692749,
-2.90833,0.694275,
-2.9129,0.682068,
-2.91901,0.680542,
-2.92511,0.686646,
-2.92969,0.695801,
-2.94189,0.697327,
-2.94189,0.683594,
-2.94495,0.672913,
-2.94495,0.68512,
-2.94647,0.695801,
-2.94495,0.692749,
-2.93732,0.683594,
-2.93427,0.67749,
-2.92511,0.70343,
-2.91595,0.692749,
-2.9068,0.689697,
-2.88696,0.680542,
-2.8656,0.672913,
-2.83813,0.68512,
-2.8183,0.694275,
-2.79083,0.70343,
-2.75574,0.686646,
-2.72217,0.67749,
-2.6825,0.686646,
-2.63977,0.697327,
-2.59552,0.694275,
-2.54517,0.686646,
-2.49481,0.672913,
-2.44141,0.686646,
-2.38495,0.697327,
-2.32697,0.695801,
-2.27051,0.682068,
-2.211,0.674438,
-2.15607,0.682068,
-2.09961,0.694275,
-2.04163,0.689697,
-1.99127,0.683594,
-1.93634,0.674438,
-1.87988,0.689697,
-1.83411,0.694275,
-1.78986,0.694275,
-1.74866,0.683594,
-1.71051,0.668335,
-1.67084,0.686646,
-1.63879,0.694275,
-1.60828,0.689697,
-1.57776,0.682068,
-1.54877,0.674438,
-1.5274,0.688171,
-1.50452,0.692749,
-1.48621,0.691223,
-1.46942,0.68512,
-1.46027,0.668335,
-1.44653,0.68512,
-1.44501,0.692749,
-1.43433,0.689697,
-1.42975,0.68512,
-1.42517,0.674438,
-1.42059,0.686646,
-1.41754,0.698853,
-1.41754,0.70343,
-1.41754,0.683594,
-1.42517,0.674438,
-1.42822,0.688171,
-1.43127,0.695801,
-1.43585,0.691223,
-1.44043,0.68512,
-1.44501,0.672913,
-1.45111,0.682068,
-1.45721,0.694275,
-1.46637,0.692749,
-1.474,0.679016,
-1.48468,0.672913,
-1.49536,0.688171,
-1.49994,0.689697,
-1.51367,0.692749,
-1.52435,0.68512,
-1.53503,0.672913,
-1.54419,0.689697,
-1.55487,0.692749,
-1.56403,0.691223,
-1.57776,0.682068,
-1.59302,0.671387,
-1.6037,0.688171,
-1.61743,0.695801,
-1.62506,0.686646,
-1.62964,0.68512,
-1.63879,0.668335,
-1.6449,0.68512,
-1.64795,0.694275,
-1.65253,0.688171,
-1.66016,0.682068,
-1.66321,0.672913,
-1.66473,0.683594,
-1.66626,0.697327,
-1.66779,0.692749,
-1.67084,0.682068,
-1.66321,0.674438,
-1.66016,0.689697,
-1.65405,0.697327,
-1.64948,0.694275,
-1.6449,0.680542,
-1.63574,0.672913,
-1.63116,0.683594,
-1.61591,0.698853,
-1.61133,0.692749,
-1.60065,0.680542,
-1.58997,0.67749,
-1.58386,0.686646,
-1.57318,0.689697,
-1.56403,0.686646,
-1.55487,0.68512,
-1.54724,0.669861,
-1.54114,0.68512,
-1.53351,0.700378,
-1.5274,0.691223,
-1.5213,0.686646,
-1.5213,0.679016,
-1.51367,0.708008,
-1.51825,0.695801,
-1.51215,0.689697,
-1.5152,0.686646,
-1.51215,0.671387,
-1.5152,0.68512,
-1.51367,0.689697,
-1.51367,0.689697,
-1.5152,0.683594,
-1.5152,0.672913,
-1.51672,0.679016,
-1.52283,0.695801,
-1.5274,0.692749,
-1.53046,0.680542,
-1.54114,0.680542,
-1.54419,0.689697,
-1.55182,0.692749,
-1.56708,0.691223,
-1.57776,0.68512,
-1.58539,0.67749,
-1.59302,0.683594,
-1.60065,0.691223,
-1.61133,0.692749,
-1.61896,0.683594,
-1.62811,0.67749,
-1.63727,0.68512,
-1.64642,0.688171,
-1.6571,0.689697,
-1.66626,0.68512,
-1.67694,0.668335,
-1.6861,0.683594,
-1.6983,0.697327,
-1.70746,0.689697,
-1.71967,0.689697,
-1.72729,0.674438,
-1.7334,0.683594,
-1.74713,0.695801,
-1.75629,0.689697,
-1.76392,0.683594,
-1.7746,0.672913,
-1.79138,0.680542,
-1.79596,0.695801,
-1.80817,0.688171,
-1.81885,0.680542,
-1.83411,0.674438,
-1.84021,0.683594,
-1.84937,0.692749,
-1.86157,0.691223,
-1.87073,0.680542,
-1.87683,0.679016,
-1.88904,0.686646,
-1.89972,0.689697,
-1.90582,0.691223,
-1.91193,0.68512,
-1.92108,0.672913,
-1.92719,0.686646,
-1.93481,0.694275,
-1.94092,0.691223,
-1.95007,0.683594,
-1.9577,0.668335,
-1.96228,0.68512,
-1.96686,0.682068,
-1.98059,0.688171,
-1.98517,0.683594,
-1.99127,0.668335,
-1.99585,0.68512,
-2.00653,0.694275,
-2.00958,0.688171,
-2.01721,0.680542,
-2.02179,0.672913,
-2.02942,0.679016,
-2.034,0.695801,
-2.04315,0.697327,
-2.04773,0.683594,
-2.05231,0.674438,
-2.05841,0.68512,
-2.06451,0.695801,
-2.06909,0.694275,
-2.0752,0.683594,
-2.0813,0.669861,
-2.08435,0.686646,
-2.09198,0.694275,
-2.09808,0.686646,
-2.10266,0.682068,
-2.11182,0.671387,
-2.1225,0.688171,
-2.1225,0.689697,
-2.13318,0.692749,
-2.13928,0.682068,
-2.14386,0.668335,
-2.15302,0.68512,
-2.1637,0.695801,
-2.17133,0.688171,
-2.18506,0.686646,
-2.19269,0.674438,
-2.19879,0.688171,
-2.20795,0.697327,
-2.21405,0.691223,
-2.22015,0.68512,
-2.22626,0.674438,
-2.23236,0.680542,
-2.24152,0.695801,
-2.24915,0.688171,
-2.25372,0.679016,
-2.2583,0.67749,
-2.26135,0.680542,
-2.26898,0.692749,
-2.27661,0.688171,
-2.28271,0.682068,
-2.28729,0.672913,
-2.2934,0.68512,
-2.2995,0.692749,
-2.3056,0.695801,
-2.31171,0.68512,
-2.31628,0.674438,
-2.31934,0.686646,
-2.33002,0.691223,
-2.33002,0.688171,
-2.33917,0.683594,
-2.34375,0.67749,
-2.34985,0.686646,
-2.35443,0.691223,
-2.36206,0.689697,
-2.37427,0.68512,
-2.37732,0.671387,
-2.38647,0.682068,
-2.39563,0.694275,
-2.40021,0.68512,
-2.40631,0.688171,
-2.41394,0.67749,
-2.42004,0.680542,
-2.4292,0.694275,
-2.43683,0.694275,
-2.45209,0.683594,
-2.45667,0.67749,
-2.46582,0.68512,
-2.47345,0.694275,
-2.48108,0.695801,
-2.49023,0.674438,
-2.50092,0.680542,
-2.50854,0.68512,
-2.51617,0.692749,
-2.52533,0.692749,
-2.53601,0.682068,
-2.54059,0.674438,
-2.54517,0.68512,
-2.55432,0.689697,
-2.56348,0.689697,
-2.57263,0.686646,
-2.57874,0.67749,
-2.58636,0.683594,
-2.58789,0.691223,
-2.59857,0.688171,
-2.60315,0.68512,
-2.61078,0.682068,
-2.61688,0.674438,
-2.62451,0.694275,
-2.62909,0.71106,
-2.63672,0.683594,
-2.63824,0.67749,
-2.64587,0.682068,
-2.65656,0.692749,
-2.65961,0.688171,
-2.67029,0.679016,
-2.67487,0.679016,
-2.67792,0.679016,
-2.68402,0.689697,
-2.6886,0.691223,
-2.69012,0.672913,
-2.68707,0.680542,
-2.69012,0.682068,
-2.68555,0.688171,
-2.67944,0.689697,
-2.66876,0.682068,
-2.65961,0.674438,
-2.6413,0.680542,
-2.62451,0.694275,
-2.60315,0.694275,
-2.57721,0.683594,
-2.54517,0.679016,
-2.50854,0.682068,
-2.47345,0.692749,
-2.43225,0.688171,
-2.38342,0.679016,
-2.33307,0.67749,
-2.28119,0.683594,
-2.22321,0.691223,
-2.16217,0.689697,
-2.09808,0.683594,
-2.03857,0.67749,
-1.97601,0.680542,
-1.91193,0.692749,
-1.85242,0.688171,
-1.78528,0.679016,
-1.7334,0.683594,
-1.67236,0.68512,
-1.62048,0.692749,
-1.56555,0.695801,
-1.51825,0.682068,
-1.4679,0.67749,
-1.42212,0.682068,
-1.38092,0.688171,
-1.3443,0.689697,
-1.3092,0.679016,
-1.27258,0.679016,
-1.24512,0.683594,
-1.21918,0.694275,
-1.19476,0.692749,
-1.1734,0.68512,
-1.15356,0.672913,
-1.13678,0.680542,
-1.12,0.691223,
-1.10626,0.688171,
-1.08795,0.680542,
-1.08032,0.680542,
-1.06964,0.680542,
-1.06354,0.694275,
-1.05438,0.692749,
-1.0437,0.680542,
-1.03912,0.679016,
-1.03912,0.682068,
-1.0376,0.694275,
-1.0376,0.691223,
-1.03912,0.67749,
-1.04065,0.680542,
-1.04675,0.679016,
-1.04828,0.691223,
-1.05591,0.691223,
-1.06049,0.67749,
-1.06506,0.67749,
-1.07574,0.68512,
-1.08643,0.689697,
-1.09406,0.691223,
-1.10626,0.68512,
-1.11694,0.674438,
-1.12915,0.68512,
-1.14136,0.692749,
-1.15356,0.691223,
-1.1673,0.683594,
-1.18256,0.67749,
-1.19476,0.682068,
-1.20239,0.691223,
-1.2146,0.686646,
-1.22528,0.680542,
-1.23444,0.672913,
-1.24359,0.67749,
-1.25275,0.694275,
-1.25732,0.68512,
-1.2619,0.680542,
-1.26648,0.67749,
-1.26801,0.67749,
-1.27106,0.691223,
-1.27106,0.692749,
-1.27106,0.682068,
-1.26953,0.682068,
-1.26801,0.683594,
-1.26343,0.694275,
-1.25885,0.691223,
-1.25122,0.680542,
-1.24664,0.67749,
-1.24054,0.683594,
-1.23138,0.692749,
-1.22375,0.689697,
-1.21307,0.679016,
-1.19934,0.672913,
-1.18713,0.682068,
-1.17645,0.691223,
-1.16577,0.691223,
-1.15662,0.680542,
-1.14594,0.671387,
-1.13678,0.683594,
-1.12762,0.697327,
-1.12,0.689697,
-1.11084,0.680542,
-1.10016,0.666809,
-1.09711,0.679016,
-1.08948,0.695801,
-1.08643,0.692749,
-1.08185,0.682068,
-1.08032,0.67749,
-1.0788,0.679016,
-1.07269,0.694275,
-1.07574,0.689697,
-1.0788,0.674438,
-1.08337,0.679016,
-1.08337,0.67749,
-1.08643,0.697327,
-1.09406,0.695801,
-1.10016,0.67749,
-1.11237,0.679016,
-1.11694,0.682068,
-1.12915,0.692749,
-1.13525,0.694275,
-1.14746,0.682068,
-1.15356,0.671387,
-1.16882,0.682068,
-1.17493,0.694275,
-1.18866,0.694275,
-1.19781,0.679016,
-1.2085,0.674438,
-1.22223,0.683594,
-1.22986,0.691223,
-1.23901,0.686646,
-1.25122,0.679016,
-1.2619,0.669861,
-1.26953,0.67749,
-1.28479,0.691223,
-1.29547,0.691223,
-1.30615,0.682068,
-1.31989,0.682068,
-1.33209,0.682068,
-1.3443,0.695801,
-1.35345,0.694275,
-1.36414,0.67749,
-1.37482,0.67749,
-1.38245,0.680542,
-1.39313,0.692749,
-1.40381,0.689697,
-1.41296,0.679016,
-1.42212,0.672913,
-1.42975,0.679016,
-1.44348,0.689697,
-1.45416,0.691223,
-1.46942,0.671387,
-1.47705,0.67749,
-1.48773,0.680542,
-1.49841,0.686646,
-1.50604,0.689697,
-1.51367,0.666809,
-1.52588,0.672913,
-1.53198,0.68512,
-1.54572,0.694275,
-1.55487,0.689697,
-1.56708,0.679016,
-1.57776,0.679016,
-1.58539,0.683594,
-1.59607,0.683594,
-1.60675,0.689697,
-1.61133,0.682068,
-1.62354,0.672913,
-1.63269,0.679016,
-1.63879,0.692749,
-1.64642,0.692749,
-1.65253,0.679016,
-1.66168,0.679016,
-1.66779,0.67749,
-1.67847,0.688171,
-1.68762,0.691223,
-1.69373,0.67749,
-1.6983,0.674438,
-1.70593,0.680542,
-1.71509,0.692749,
-1.71661,0.694275,
-1.72424,0.679016,
-1.72729,0.679016,
-1.7334,0.682068,
-1.73645,0.691223,
-1.73645,0.692749,
-1.74561,0.674438,
-1.75323,0.671387,
-1.76086,0.683594,
-1.76392,0.691223,
-1.7746,0.686646,
-1.77917,0.680542,
-1.78375,0.671387,
-1.79138,0.679016,
-1.79596,0.689697,
-1.79901,0.688171,
-1.80511,0.68512,
-1.80969,0.67749,
-1.81732,0.672913,
-1.82343,0.698853,
-1.83105,0.689697,
-1.83258,0.682068,
-1.83716,0.67749,
-1.84021,0.682068,
-1.85089,0.689697,
-1.85089,0.689697,
-1.86157,0.67749,
-1.86615,0.67749,
-1.87378,0.67749,
-1.87988,0.692749,
-1.88904,0.692749,
-1.89362,0.679016,
-1.89819,0.674438,
-1.9043,0.68512,
-1.90887,0.689697,
-1.91956,0.691223,
-1.92413,0.683594,
-1.93176,0.674438,
-1.93634,0.686646,
-1.94397,0.691223,
-1.95618,0.691223,
-1.96228,0.682068,
-1.97144,0.674438,
-1.98059,0.682068,
-1.98822,0.692749,
-2.00043,0.686646,
-2.00958,0.680542,
-2.01569,0.67749,
-2.02179,0.682068,
-2.034,0.692749,
-2.04163,0.68512,
-2.05383,0.682068,
-2.06299,0.67749,
-2.06909,0.679016,
-2.0813,0.692749,
-2.08893,0.691223,
-2.09808,0.67749,
-2.10876,0.67749,
-2.11639,0.674438,
-2.1225,0.691223,
-2.13013,0.695801,
-2.1347,0.680542,
-2.13928,0.679016,
-2.14081,0.683594,
-2.13776,0.691223,
-2.13318,0.694275,
-2.1286,0.682068,
-2.11487,0.67749,
-2.09808,0.682068,
-2.07672,0.689697,
-2.05383,0.688171,
-2.02637,0.67749,
-1.99432,0.671387,
-1.9577,0.679016,
-1.92108,0.691223,
-1.87683,0.688171,
-1.82343,0.682068,
-1.7746,0.679016,
-1.72272,0.680542,
-1.66779,0.695801,
-1.60828,0.695801,
-1.54724,0.679016,
-1.48926,0.682068,
-1.42822,0.682068,
-1.36871,0.692749,
-1.30463,0.697327,
-1.24817,0.682068,
-1.19476,0.679016,
-1.13831,0.679016,
-1.0849,0.691223,
-1.04065,0.691223,
-0.993347,0.674438,
-0.952148,0.672913,
-0.91095,0.683594,
-0.874329,0.686646,
-0.83313,0.689697,
-0.801086,0.682068,
-0.775146,0.672913,
-0.744629,0.68512,
-0.723267,0.691223,
-0.701904,0.689697,
-0.679016,0.686646,
-0.660706,0.672913,
-0.645447,0.679016,
-0.636292,0.689697,
-0.624084,0.680542,
-0.617981,0.679016,
-0.605774,0.679016,
-0.602722,0.682068,
-0.596619,0.692749,
-0.595093,0.688171,
-0.595093,0.67749,
-0.593567,0.672913,
-0.592041,0.67749,
-0.598145,0.691223,
-0.605774,0.692749,
-0.6073,0.672913,
-0.617981,0.682068,
-0.62561,0.686646,
-0.631714,0.691223,
-0.642395,0.694275,
-0.648499,0.682068,
-0.660706,0.67749,
-0.671387,0.686646,
-0.68512,0.695801,
-0.692749,0.692749,
-0.71106,0.679016,
-0.721741,0.672913,
-0.738525,0.683594,
-0.750732,0.691223,
-0.767517,0.689697,
-0.78125,0.680542,
-0.798035,0.671387,
-0.816345,0.679016,
-0.827026,0.692749,
-0.843811,0.68512,
-0.849915,0.67749,
-0.85907,0.674438,
-0.869751,0.67749,
-0.872803,0.692749,
-0.881958,0.692749,
-0.889587,0.682068,
-0.88501,0.682068,
-0.889587,0.683594,
-0.891113,0.694275,
-0.894165,0.691223,
-0.891113,0.682068,
-0.894165,0.679016,
-0.895691,0.683594,
-0.889587,0.688171,
-0.883484,0.686646,
-0.878906,0.680542,
-0.868225,0.671387,
-0.860596,0.683594,
-0.854492,0.686646,
-0.840759,0.688171,
-0.834656,0.680542,
-0.827026,0.668335,
-0.819397,0.682068,
-0.810242,0.694275,
-0.805664,0.691223,
-0.798035,0.682068,
-0.790405,0.672913,
-0.785828,0.679016,
-0.779724,0.692749,
-0.776672,0.695801,
-0.770569,0.679016,
-0.765991,0.682068,
-0.761414,0.683594,
-0.758362,0.692749,
-0.759888,0.689697,
-0.758362,0.680542,
-0.759888,0.671387,
-0.762939,0.680542,
-0.761414,0.688171,
-0.759888,0.694275,
-0.765991,0.672913,
-0.769043,0.679016,
-0.770569,0.683594,
-0.778198,0.688171,
-0.785828,0.692749,
-0.787354,0.679016,
-0.793457,0.672913,
-0.799561,0.68512,
-0.808716,0.694275,
-0.819397,0.694275,
-0.830078,0.683594,
-0.836182,0.674438,
-0.845337,0.683594,
-0.856018,0.695801,
-0.865173,0.692749,
-0.87738,0.67749,
-0.891113,0.674438,
-0.90332,0.67749,
-0.914001,0.689697,
-0.927734,0.68512,
-0.938416,0.674438,
-0.947571,0.67749,
-0.961304,0.672913,
-0.970459,0.689697,
-0.979614,0.691223,
-0.991821,0.67749,
-1.00098,0.67749,
-1.01166,0.683594,
-1.02386,0.688171,
-1.03302,0.695801,
-1.04675,0.68512,
-1.05896,0.672913,
-1.06812,0.68512,
-1.0849,0.691223,
-1.09711,0.695801,
-1.11542,0.679016,
-1.1261,0.669861,
-1.14136,0.683594,
-1.14899,0.691223,
-1.15814,0.692749,
-1.17035,0.680542,
-1.18713,0.669861,
-1.19629,0.668335,
-1.20697,0.692749,
-1.2146,0.692749,
-1.22681,0.683594,
-1.23749,0.671387,
-1.24664,0.68512,
-1.25427,0.691223,
-1.2619,0.686646,
-1.26801,0.679016,
-1.28021,0.669861,
-1.28937,0.683594,
-1.297,0.692749,
-1.31073,0.700378,
-1.31683,0.679016,
-1.32751,0.679016,
-1.3382,0.682068,
-1.34583,0.689697,
-1.35498,0.691223,
-1.36719,0.682068,
-1.37482,0.672913,
-1.3855,0.682068,
-1.39771,0.691223,
-1.40686,0.689697,
-1.41144,0.682068,
-1.42212,0.666809,
-1.43127,0.683594,
-1.43585,0.692749,
-1.44348,0.692749,
-1.45416,0.679016,
-1.46332,0.672913,
-1.47095,0.68512,
-1.4801,0.689697,
-1.48926,0.679016,
-1.49536,0.679016,
-1.49841,0.672913,
-1.50604,0.682068,
-1.5152,0.691223,
-1.52588,0.689697,
-1.53351,0.67749,
-1.54266,0.669861,
-1.54724,0.67749,
-1.5564,0.688171,
-1.56708,0.698853,
-1.57776,0.679016,
-1.58386,0.672913,
-1.59302,0.686646,
-1.6098,0.688171,
-1.61896,0.692749,
-1.62964,0.686646,
-1.63727,0.671387,
-1.64795,0.683594,
-1.6571,0.691223,
-1.66473,0.695801,
-1.67084,0.682068,
-1.67542,0.671387,
-1.68915,0.686646,
-1.6983,0.691223,
-1.70441,0.692749,
-1.71204,0.682068,
-1.72272,0.671387,
-1.73187,0.682068,
-1.74103,0.689697,
-1.75323,0.691223,
-1.76086,0.67749,
-1.77002,0.672913,
-1.78528,0.682068,
-1.79291,0.691223,
-1.79901,0.697327,
-1.80969,0.679016,
-1.81885,0.674438,
-1.828,0.683594,
-1.83716,0.689697,
-1.85242,0.695801,
-1.86157,0.682068,
-1.86768,0.671387,
-1.87683,0.686646,
-1.88599,0.692749,
-1.89819,0.721741,
-1.90735,0.682068,
-1.91803,0.671387,
-1.92566,0.688171,
-1.93481,0.688171,
-1.94702,0.695801,
-1.95465,0.680542,
-1.96075,0.668335,
-1.96686,0.683594,
-1.98059,0.692749,
-1.98975,0.692749,
-1.9989,0.682068,
-2.00958,0.674438,
-2.01874,0.680542,
-2.02789,0.689697,
-2.0401,0.698853,
-2.05231,0.680542,
-2.05841,0.674438,
-2.07062,0.682068,
-2.07825,0.694275,
-2.0874,0.692749,
-2.09656,0.672913,
-2.10266,0.674438,
-2.09961,0.68512,
-2.10266,0.688171,
-2.09961,0.691223,
-2.09503,0.682068,
-2.08282,0.674438,
-2.07367,0.68512,
-2.05078,0.68512,
-2.02942,0.691223,
-2.005,0.683594,
-1.96991,0.671387,
-1.93024,0.683594,
-1.88446,0.692749,
-1.84021,0.694275,
-1.7868,0.683594,
-1.7334,0.671387,
-1.67084,0.680542,
-1.61133,0.694275,
-1.55182,0.695801,
-1.49384,0.682068,
-1.42975,0.668335,
-1.36261,0.680542,
-1.29852,0.691223,
-1.23291,0.694275,
-1.1673,0.680542,
-1.10779,0.672913,
-1.04828,0.67749,
-0.991821,0.686646,
-0.938416,0.694275,
-0.886536,0.682068,
-0.839233,0.671387,
-0.793457,0.683594,
-0.750732,0.688171,
-0.715637,0.691223,
-0.679016,0.68512,
-0.642395,0.669861,
-0.614929,0.68512,
-0.590515,0.694275,
-0.567627,0.694275,
-0.544739,0.68512,
-0.526428,0.679016,
-0.506592,0.68512,
-0.495911,0.691223,
-0.483704,0.694275,
-0.473022,0.680542,
-0.463867,0.669861,
-0.454712,0.680542,
-0.448608,0.680542,
-0.448608,0.688171,
-0.447083,0.682068,
-0.444031,0.674438,
-0.444031,0.67749,
-0.440979,0.689697,
-0.445557,0.692749,
-0.448608,0.67749,
-0.450134,0.674438,
-0.450134,0.680542,
-0.456238,0.688171,
-0.463867,0.694275,
-0.471497,0.682068,
-0.479126,0.668335,
-0.486755,0.683594,
-0.492859,0.689697,
-0.508118,0.694275,
-0.514221,0.683594,
-0.52948,0.674438,
-0.543213,0.683594,
-0.55542,0.688171,
-0.566101,0.691223,
-0.579834,0.68512,
-0.593567,0.672913,
-0.605774,0.679016,
-0.619507,0.689697,
-0.630188,0.674438,
-0.642395,0.68512,
-0.648499,0.680542,
-0.656128,0.674438,
-0.662231,0.694275,
-0.671387,0.691223,
-0.674438,0.683594,
-0.680542,0.679016,
-0.680542,0.680542,
-0.679016,0.688171,
-0.680542,0.692749,
-0.67749,0.683594,
-0.675964,0.674438,
-0.674438,0.683594,
-0.666809,0.689697,
-0.669861,0.692749,
-0.660706,0.680542,
-0.656128,0.67749,
-0.65155,0.679016,
-0.645447,0.688171,
-0.63324,0.689697,
-0.627136,0.686646,
-0.614929,0.671387,
-0.6073,0.672913,
-0.601196,0.689697,
-0.592041,0.686646,
-0.582886,0.68512,
-0.578308,0.672913,
-0.572205,0.679016,
-0.567627,0.695801,
-0.563049,0.689697,
-0.559998,0.68512,
-0.558472,0.682068,
-0.556946,0.683594,
-0.553894,0.680542,
-0.55542,0.679016,
-0.553894,0.680542,
-0.550842,0.67749,
-0.556946,0.67749,
-0.55542,0.688171,
-0.556946,0.682068,
-0.561523,0.679016,
-0.566101,0.68512,
-0.570679,0.68512,
-0.578308,0.686646,
-0.585938,0.68512,
-0.592041,0.680542,
-0.604248,0.67749,
-0.614929,0.682068,
-0.62561,0.679016,
-0.630188,0.688171,
-0.643921,0.683594,
-0.657654,0.67749,
-0.671387,0.674438,
-0.683594,0.689697,
-0.698853,0.701904,
-0.709534,0.683594,
-0.720215,0.672913,
-0.735474,0.679016,
-0.747681,0.692749,
-0.761414,0.680542,
-0.775146,0.680542,
-0.787354,0.67749,
-0.798035,0.679016,
-0.814819,0.688171,
-0.828552,0.691223,
-0.840759,0.680542,
-0.856018,0.680542,
-0.869751,0.680542,
-0.881958,0.689697,
-0.895691,0.695801,
-0.912476,0.682068,
-0.924683,0.679016,
-0.941467,0.682068,
-0.959778,0.691223,
-0.967407,0.682068,
-0.98114,0.682068,
-0.996399,0.67749,
-1.00403,0.67749,
-1.01166,0.689697,
-1.02539,0.689697,
-1.0376,0.686646,
-1.04675,0.671387,
-1.05438,0.669861,
-1.06506,0.692749,
-1.07269,0.682068,
-1.08185,0.680542,
-1.091,0.680542,
-1.10016,0.674438,
-1.10931,0.694275,
-1.11694,0.689697,
-1.1322,0.680542,
-1.14288,0.682068,
-1.15051,0.680542,
-1.15814,0.691223,
-1.17035,0.689697,
-1.1795,0.686646,
-1.19019,0.669861,
-1.19781,0.679016,
-1.20697,0.688171,
-1.21613,0.688171,
-1.22223,0.679016,
-1.23291,0.680542,
-1.24207,0.679016,
-1.2558,0.686646,
-1.26495,0.686646,
-1.27716,0.68512,
-1.28632,0.672913,
-1.29242,0.679016,
-1.297,0.694275,
-1.30615,0.686646,
-1.31378,0.682068,
-1.32751,0.679016,
-1.33362,0.671387,
-1.3443,0.692749,
-1.3504,0.689697,
-1.35956,0.682068,
-1.36719,0.682068,
-1.37482,0.674438,
-1.38245,0.692749,
-1.38855,0.688171,
-1.39618,0.682068,
-1.40076,0.67749,
-1.40991,0.671387,
-1.41754,0.688171,
-1.42822,0.688171,
-1.43433,0.679016,
-1.44348,0.672913,
-1.45569,0.67749,
-1.46332,0.686646,
-1.46942,0.689697,
-1.48621,0.683594,
-1.48468,0.674438,
-1.49231,0.679016,
-1.49994,0.695801,
-1.51215,0.691223,
-1.52283,0.68512,
-1.52893,0.672913,
-1.54419,0.674438,
-1.55487,0.691223,
-1.56097,0.689697,
-1.57318,0.683594,
-1.57776,0.674438,
-1.58997,0.671387,
-1.59607,0.697327,
-1.60828,0.692749,
-1.61896,0.683594,
-1.62506,0.669861,
-1.63422,0.672913,
-1.64642,0.68512,
-1.65253,0.697327,
-1.66626,0.679016,
-1.67847,0.672913,
-1.68762,0.67749,
-1.6983,0.691223,
-1.70898,0.692749,
-1.71509,0.683594,
-1.72424,0.672913,
-1.73187,0.680542,
-1.74103,0.691223,
-1.75171,0.692749,
-1.76239,0.689697,
-1.7746,0.674438,
-1.78375,0.672913,
-1.79596,0.691223,
-1.80511,0.691223,
-1.81274,0.68512,
-1.82648,0.672913,
-1.83868,0.672913,
-1.84937,0.692749,
-1.85699,0.686646,
-1.87073,0.683594,
-1.88293,0.674438,
-1.89209,0.671387,
-1.90735,0.68512,
-1.92261,0.691223,
-1.92566,0.680542,
-1.93939,0.672913,
-1.94702,0.67749,
-1.9577,0.68512,
-1.96838,0.686646,
-1.97601,0.683594,
-1.98517,0.669861,
-1.9928,0.679016,
-1.9989,0.691223,
-2.00958,0.686646,
-2.01874,0.68512,
-2.02026,0.669861,
-2.02026,0.67749,
-2.02179,0.692749,
-2.02484,0.688171,
-2.02179,0.68512,
-2.01416,0.672913,
-2.00195,0.672913,
-1.98517,0.692749,
-1.96228,0.686646,
-1.93329,0.671387,
-1.89972,0.674438,
-1.86615,0.668335,
-1.8219,0.689697,
-1.77765,0.695801,
-1.72577,0.680542,
-1.67236,0.67749,
-1.61591,0.674438,
-1.55334,0.689697,
-1.48773,0.694275,
-1.42517,0.682068,
-1.36108,0.674438,
-1.29852,0.680542,
-1.23749,0.689697,
-1.18103,0.689697,
-1.11694,0.683594,
-1.05591,0.671387,
-1.00098,0.67749,
-0.947571,0.689697,
-0.897217,0.689697,
-0.846863,0.683594,
-0.805664,0.669861,
-0.761414,0.674438,
-0.721741,0.692749,
-0.683594,0.689697,
-0.645447,0.682068,
-0.616455,0.669861,
-0.585938,0.671387,
-0.561523,0.691223,
-0.540161,0.694275,
-0.526428,0.683594,
-0.509644,0.67749,
-0.495911,0.672913,
-0.483704,0.691223,
-0.471497,0.692749,
-0.463867,0.68512,
-0.453186,0.674438,
-0.450134,0.67749,
-0.440979,0.691223,
-0.442505,0.689697,
-0.445557,0.683594,
-0.444031,0.669861,
-0.445557,0.67749,
-0.45166,0.689697,
-0.453186,0.689697,
-0.457764,0.682068,
-0.45929,0.671387,
-0.460815,0.674438,
-0.466919,0.691223,
-0.471497,0.688171,
-0.474548,0.688171,
-0.486755,0.674438,
-0.491333,0.672913,
-0.502014,0.689697,
-0.512695,0.692749,
-0.520325,0.683594,
-0.534058,0.674438,
-0.540161,0.679016,
-0.556946,0.691223,
-0.563049,0.689697,
-0.57373,0.686646,
-0.579834,0.674438,
-0.588989,0.671387,
-0.59967,0.688171,
-0.6073,0.692749,
-0.621033,0.680542,
-0.628662,0.669861,
-0.636292,0.67749,
-0.645447,0.688171,
-0.654602,0.694275,
-0.657654,0.68512,
-0.665283,0.669861,
-0.669861,0.669861,
-0.671387,0.694275,
-0.672913,0.691223,
-0.675964,0.686646,
-0.67749,0.67749,
-0.680542,0.666809,
-0.674438,0.709534,
-0.671387,0.698853,
-0.669861,0.683594,
-0.663757,0.680542,
-0.65918,0.669861,
-0.656128,0.691223,
-0.650024,0.694275,
-0.645447,0.672913,
-0.634766,0.674438,
-0.628662,0.672913,
-0.622559,0.683594,
-0.614929,0.68512,
-0.6073,0.682068,
-0.602722,0.674438,
-0.593567,0.682068,
-0.587463,0.68512,
-0.584412,0.695801,
-0.582886,0.683594,
-0.576782,0.672913,
-0.57373,0.679016,
-0.57373,0.691223,
-0.570679,0.691223,
-0.57373,0.683594,
-0.578308,0.674438,
-0.578308,0.679016,
-0.585938,0.688171,
-0.593567,0.689697,
-0.59967,0.682068,
-0.604248,0.671387,
-0.616455,0.671387,
-0.619507,0.680542,
-0.628662,0.700378,
-0.634766,0.671387,
-0.645447,0.674438,
-0.654602,0.672913,
-0.665283,0.686646,
-0.680542,0.691223,
-0.691223,0.679016,
-0.70343,0.669861,
-0.71106,0.680542,
-0.721741,0.68512,
-0.733948,0.692749,
-0.743103,0.68512,
-0.752258,0.672913,
-0.761414,0.680542,
-0.773621,0.691223,
-0.782776,0.682068,
-0.799561,0.683594,
-0.808716,0.669861,
-0.820923,0.67749,
-0.831604,0.686646,
-0.849915,0.688171,
-0.860596,0.683594,
-0.868225,0.672913,
-0.883484,0.672913,
-0.898743,0.692749,
-0.91095,0.686646,
-0.923157,0.682068,
-0.93689,0.674438,
-0.949097,0.67749,
-0.96283,0.695801,
-0.978088,0.689697,
-0.991821,0.679016,
-1.0025,0.679016,
-1.01471,0.679016,
-1.02844,0.689697,
-1.0376,0.698853,
-1.05286,0.682068,
-1.06354,0.671387,
-1.07727,0.67749,
-1.08795,0.689697,
-1.09863,0.692749,
-1.10626,0.680542,
-1.11847,0.669861,
-1.12915,0.67749,
-1.13831,0.68512,
-1.14899,0.692749,
-1.15967,0.683594,
-1.17188,0.668335,
-1.1795,0.671387,
-1.19324,0.694275,
-1.20392,0.692749,
-1.2146,0.682068,
-1.22528,0.672913,
-1.23901,0.662231,
-1.25275,0.691223,
-1.25885,0.697327,
-1.26953,0.680542,
-1.28174,0.682068,
-1.29089,0.68512,
-1.29852,0.70343,
-1.3092,0.694275,
-1.31989,0.680542,
-1.32751,0.669861,
-1.3382,0.674438,
-1.34735,0.686646,
-1.35193,0.688171,
-1.36108,0.698853,
-1.36871,0.662231,
-1.38245,0.674438,
-1.39008,0.682068,
-1.39923,0.689697,
-1.41144,0.682068,
-1.42059,0.668335,
-1.42975,0.67749,
-1.43738,0.691223,
-1.44653,0.688171,
-1.45874,0.68512,
-1.47095,0.674438,
-1.47705,0.672913,
-1.48773,0.692749,
-1.49231,0.689697,
-1.50146,0.680542,
-1.5152,0.674438,
-1.52435,0.672913,
-1.53351,0.688171,
-1.54572,0.692749,
-1.55487,0.683594,
-1.56403,0.674438,
-1.57623,0.669861,
-1.58386,0.691223,
-1.59302,0.697327,
-1.60065,0.67749,
-1.6098,0.665283,
-1.62048,0.674438,
-1.63422,0.680542,
-1.64185,0.694275,
-1.64948,0.683594,
-1.66016,0.660706,
-1.66779,0.67749,
-1.67847,0.688171,
-1.69067,0.691223,
-1.70288,0.682068,
-1.71661,0.674438,
-1.72424,0.672913,
-1.73492,0.686646,
-1.74561,0.692749,
-1.75781,0.680542,
-1.77002,0.67749,
-1.7807,0.671387,
-1.79138,0.688171,
-1.80206,0.695801,
-1.81427,0.680542,
-1.82343,0.674438,
-1.83868,0.672913,
-1.84631,0.68512,
-1.86005,0.697327,
-1.86768,0.67749,
-1.87836,0.672913,
-1.88599,0.674438,
-1.89209,0.682068,
-1.90735,0.697327,
-1.91803,0.68512,
-1.92566,0.668335,
-1.93634,0.679016,
-1.94855,0.688171,
-1.95923,0.694275,
-1.97296,0.686646,
-1.98364,0.665283,
-1.99432,0.679016,
-2.005,0.686646,
-2.01263,0.697327,
-2.02026,0.680542,
-2.02789,0.67749,
-2.03705,0.680542,
-2.0401,0.686646,
-2.04315,0.692749,
-2.04468,0.697327,
-2.04468,0.668335,
-2.04163,0.674438,
-2.0401,0.680542,
-2.02637,0.691223,
-2.01416,0.682068,
-1.9989,0.679016,
-1.97601,0.674438,
-1.95007,0.67749,
-1.91803,0.692749,
-1.87988,0.680542,
-1.83868,0.666809,
-1.79138,0.672913,
-1.74561,0.682068,
-1.6922,0.691223,
-1.63879,0.706482,
-1.58234,0.674438,
-1.51978,0.669861,
-1.45416,0.689697,
-1.39008,0.691223,
-1.32751,0.683594,
-1.26648,0.680542,
-1.20087,0.679016,
-1.13983,0.683594,
-1.08032,0.691223,
-1.02692,0.682068,
-0.971985,0.674438,
-0.921631,0.67749,
-0.874329,0.672913,
-0.822449,0.689697,
-0.788879,0.672913,
-0.749207,0.669861,
-0.712585,0.671387,
-0.682068,0.67749,
-0.650024,0.686646,
-0.624084,0.683594,
-0.601196,0.663757,
-0.579834,0.680542,
-0.558472,0.680542,
-0.543213,0.674438,
-0.532532,0.68512,
-0.517273,0.67749,
-0.508118,0.672913,
-0.502014,0.68512,
-0.497437,0.694275,
-0.495911,0.680542,
-0.488281,0.672913,
-0.489807,0.67749,
-0.486755,0.683594,
-0.491333,0.695801,
-0.491333,0.682068,
-0.497437,0.669861,
-0.492859,0.671387,
-0.50354,0.683594,
-0.505066,0.712585,
-0.514221,0.674438,
-0.524902,0.671387,
-0.531006,0.67749,
-0.541687,0.67749,
-0.553894,0.692749,
-0.563049,0.67749,
-0.569153,0.668335,
-0.585938,0.67749,
-0.595093,0.683594,
-0.6073,0.689697,
-0.621033,0.680542,
-0.636292,0.672913,
-0.650024,0.671387,
-0.666809,0.68512,
-0.680542,0.692749,
-0.692749,0.680542,
-0.709534,0.671387,
-0.721741,0.672913,
-0.733948,0.68512,
-0.741577,0.694275,
-0.747681,0.682068,
-0.761414,0.672913,
-0.767517,0.672913,
-0.776672,0.680542,
-0.78125,0.694275,
-0.787354,0.67749,
-0.790405,0.666809,
-0.790405,0.674438,
-0.788879,0.680542,
-0.788879,0.689697,
-0.790405,0.67749,
-0.787354,0.672913,
-0.779724,0.672913,
-0.773621,0.683594,
-0.769043,0.691223,
-0.761414,0.67749,
-0.756836,0.668335,
-0.752258,0.674438,
-0.744629,0.68512,
-0.741577,0.692749,
-0.737,0.680542,
-0.730896,0.669861,
-0.724792,0.672913,
-0.724792,0.680542,
-0.718689,0.686646,
-0.71106,0.67749,
-0.706482,0.669861,
-0.700378,0.666809,
-0.698853,0.679016,
-0.692749,0.692749,
-0.689697,0.680542,
-0.683594,0.671387,
-0.675964,0.663757,
-0.680542,0.683594,
-0.680542,0.695801,
-0.68512,0.672913,
-0.691223,0.671387,
-0.698853,0.680542,
-0.70343,0.682068,
-0.714111,0.692749,
-0.72937,0.67749,
-0.732422,0.672913,
-0.740051,0.671387,
-0.749207,0.680542,
-0.759888,0.691223,
-0.765991,0.682068,
-0.775146,0.665283,
-0.790405,0.65918,
-0.801086,0.682068,
-0.814819,0.686646,
-0.823975,0.679016,
-0.834656,0.671387,
-0.843811,0.668335,
-0.857544,0.68512,
-0.866699,0.694275,
-0.87738,0.67749,
-0.894165,0.671387,
-0.91095,0.671387,
-0.921631,0.680542,
-0.939941,0.692749,
-0.947571,0.68512,
-0.961304,0.669861,
-0.971985,0.67749,
-0.991821,0.680542,
-1.00403,0.694275,
-1.01929,0.682068,
-1.0376,0.671387,
-1.0498,0.674438,
-1.06506,0.680542,
-1.08185,0.688171,
-1.09558,0.682068,
-1.10626,0.671387,
-1.12152,0.671387,
-1.1322,0.682068,
-1.14594,0.68512,
-1.15662,0.688171,
-1.16882,0.671387,
-1.1795,0.669861,
-1.18561,0.682068,
-1.20087,0.692749,
-1.2085,0.67749,
-1.22223,0.672913,
-1.23138,0.672913,
-1.24359,0.682068,
-1.2558,0.695801,
-1.26953,0.682068,
-1.28174,0.674438,
-1.29547,0.671387,
-1.30615,0.680542,
-1.31836,0.691223,
-1.33057,0.680542,
-1.3443,0.668335,
-1.35345,0.67749,
-1.36108,0.680542,
-1.37024,0.686646,
-1.38092,0.682068,
-1.38397,0.666809,
-1.39313,0.672913,
-1.40381,0.682068,
-1.41144,0.688171,
-1.42212,0.680542,
-1.4328,0.668335,
-1.4389,0.672913,
-1.44806,0.68512,
-1.45874,0.691223,
-1.46484,0.683594,
-1.47705,0.672913,
-1.48773,0.672913,
-1.49689,0.680542,
-1.50757,0.691223,
-1.51825,0.67749,
-1.52435,0.67749,
-1.53656,0.671387,
-1.54724,0.680542,
-1.55334,0.691223,
-1.55945,0.674438,
-1.57013,0.669861,
-1.58081,0.669861,
-1.58844,0.67749,
-1.60065,0.688171,
-1.60828,0.679016,
-1.61285,0.665283,
-1.62506,0.671387,
-1.63574,0.680542,
-1.64795,0.689697,
-1.6571,0.67749,
-1.66321,0.668335,
-1.67389,0.668335,
-1.68152,0.683594,
-1.68762,0.691223,
-1.70135,0.680542,
-1.70898,0.669861,
-1.71967,0.672913,
-1.72424,0.679016,
-1.73492,0.689697,
-1.74713,0.679016,
-1.75934,0.669861,
-1.7746,0.668335,
-1.78223,0.674438,
-1.79138,0.688171,
-1.80817,0.672913,
-1.81732,0.665283,
-1.83258,0.671387,
-1.84326,0.674438,
-1.85394,0.689697,
-1.86768,0.680542,
-1.87531,0.666809,
-1.88904,0.674438,
-1.90125,0.679016,
-1.91498,0.68512,
-1.92413,0.682068,
-1.93634,0.672913,
-1.94702,0.671387,
-1.96228,0.680542,
-1.96838,0.688171,
-1.98059,0.680542,
-1.98975,0.668335,
-1.99738,0.672913,
-2.01416,0.682068,
-2.02026,0.686646,
-2.02789,0.67749,
-2.03552,0.668335,
-2.04468,0.668335,
-2.05383,0.67749,
-2.05841,0.688171,
-2.06909,0.674438,
-2.0813,0.671387,
-2.08893,0.669861,
-2.10266,0.679016,
-2.11182,0.686646,
-2.12402,0.680542,
-2.1347,0.669861,
-2.14081,0.672913,
-2.15454,0.682068,
-2.16522,0.680542,
-2.1759,0.68512,
-2.18506,0.668335,
-2.19879,0.669861,
-2.21252,0.682068,
-2.22168,0.686646,
-2.22473,0.680542,
-2.22778,0.668335,
-2.22931,0.668335,
-2.22931,0.682068,
-2.22931,0.683594,
-2.22473,0.680542,
-2.21558,0.668335,
-2.19727,0.665283,
-2.1759,0.683594,
-2.15454,0.68512,
-2.12097,0.669861,
-2.08282,0.672913,
-2.04315,0.668335,
-1.9989,0.674438,
-1.95313,0.686646,
-1.89972,0.68512,
-1.84479,0.668335,
-1.7807,0.679016,
-1.71814,0.67749,
-1.65405,0.68512,
-1.58844,0.67749,
-1.52283,0.669861,
-1.45721,0.668335,
-1.39618,0.680542,
-1.32904,0.682068,
-1.26953,0.679016,
-1.2085,0.665283,
-1.14594,0.668335,
-1.08948,0.680542,
-1.03607,0.67749,
-0.984192,0.674438,
-0.939941,0.668335,
-0.894165,0.665283,
-0.852966,0.680542,
-0.819397,0.683594,
-0.788879,0.679016,
-0.761414,0.669861,
-0.740051,0.672913,
-0.715637,0.679016,
-0.698853,0.688171,
-0.67749,0.683594,
-0.65918,0.668335,
-0.645447,0.672913,
-0.634766,0.680542,
-0.627136,0.682068,
-0.621033,0.683594,
-0.614929,0.668335,
-0.608826,0.669861,
-0.6073,0.674438,
-0.605774,0.682068,
-0.608826,0.680542,
-0.6073,0.65155,
-0.608826,0.662231,
-0.6073,0.682068,
-0.613403,0.674438,
-0.616455,0.682068,
-0.624084,0.669861,
-0.62561,0.666809,
-0.631714,0.679016,
-0.63324,0.688171,
-0.642395,0.683594,
-0.646973,0.669861,
-0.656128,0.669861,
-0.65918,0.682068,
-0.671387,0.683594,
-0.680542,0.680542,
-0.691223,0.668335,
-0.704956,0.668335,
-0.717163,0.679016,
-0.735474,0.68512,
-0.744629,0.672913,
-0.758362,0.665283,
-0.767517,0.668335,
-0.782776,0.671387,
-0.791931,0.680542,
-0.798035,0.679016,
-0.80719,0.663757,
-0.816345,0.671387,
-0.823975,0.682068,
-0.831604,0.682068,
-0.837708,0.671387,
-0.845337,0.668335,
-0.846863,0.671387,
-0.85144,0.682068,
-0.856018,0.683594,
-0.857544,0.683594,
-0.854492,0.663757,
-0.852966,0.666809,
-0.852966,0.680542,
-0.85144,0.683594,
-0.846863,0.682068,
-0.839233,0.668335,
-0.840759,0.662231,
-0.836182,0.682068,
-0.830078,0.686646,
-0.822449,0.67749,
-0.817871,0.663757,
-0.817871,0.662231,
-0.810242,0.679016,
-0.805664,0.692749,
-0.799561,0.679016,
-0.798035,0.666809,
-0.788879,0.669861,
-0.785828,0.682068,
-0.776672,0.683594,
-0.773621,0.672913,
-0.773621,0.665283,
-0.770569,0.671387,
-0.769043,0.674438,
-0.770569,0.68512,
-0.773621,0.679016,
-0.776672,0.653076,
-0.776672,0.665283,
-0.78125,0.683594,
-0.791931,0.683594,
-0.799561,0.680542,
-0.801086,0.668335,
-0.811768,0.668335,
-0.819397,0.682068,
-0.8255,0.68512,
-0.836182,0.679016,
-0.845337,0.668335,
-0.85907,0.668335,
-0.868225,0.680542,
-0.880432,0.68512,
-0.894165,0.672913,
-0.90332,0.668335,
-0.915527,0.669861,
-0.926208,0.67749,
-0.938416,0.688171,
-0.952148,0.67749,
-0.96283,0.666809,
-0.976563,0.669861,
-0.994873,0.671387,
-1.00403,0.689697,
-1.01776,0.680542,
-1.02997,0.663757,
-1.04218,0.672913,
-1.05438,0.682068,
-1.06964,0.683594,
-1.08032,0.683594,
-1.091,0.666809,
-1.10626,0.669861,
-1.11847,0.683594,
-1.1261,0.683594,
-1.13525,0.672913,
-1.14746,0.663757,
-1.16119,0.669861,
-1.17035,0.67749,
-1.18408,0.680542,
-1.19019,0.679016,
-1.20087,0.668335,
-1.21307,0.663757,
-1.22223,0.679016,
-1.23444,0.688171,
-1.24207,0.679016,
-1.25885,0.671387,
-1.27106,0.668335,
-1.28021,0.679016,
-1.29242,0.688171,
-1.3031,0.679016,
-1.31531,0.666809,
-1.32446,0.666809,
-1.34277,0.67749,
-1.35193,0.686646,
-1.36108,0.67749,
-1.37024,0.666809,
-1.38092,0.665283,
-1.3855,0.671387,
-1.40228,0.682068,
-1.40991,0.679016,
-1.41907,0.665283,
-1.43585,0.669861,
-1.44348,0.682068,
-1.46027,0.680542,
-1.46637,0.68512,
-1.47705,0.666809,
-1.48468,0.669861,
-1.49384,0.686646,
-1.49841,0.68512,
-1.50909,0.680542,
-1.52283,0.666809,
-1.53046,0.668335,
-1.54266,0.680542,
-1.54724,0.682068,
-1.5564,0.67749,
-1.57013,0.668335,
-1.57471,0.663757,
-1.58234,0.67749,
-1.59454,0.68512,
-1.60522,0.672913,
-1.61896,0.669861,
-1.62354,0.669861,
-1.63116,0.672913,
-1.64185,0.688171,
-1.64795,0.679016,
-1.65863,0.668335,
-1.66473,0.669861,
-1.67389,0.680542,
-1.68762,0.68512,
-1.69373,0.679016,
-1.70288,0.669861,
-1.71967,0.671387,
-1.72424,0.674438,
-1.73492,0.682068,
-1.74713,0.680542,
-1.75629,0.660706,
-1.76849,0.669861,
-1.77917,0.679016,
-1.78986,0.680542,
-1.79901,0.680542,
-1.80969,0.669861,
-1.82037,0.657654,
-1.83716,0.692749,
-1.84479,0.680542,
-1.85547,0.674438,
-1.86615,0.668335,
-1.87836,0.666809,
-1.88904,0.682068,
-1.89819,0.682068,
-1.90735,0.67749,
-1.91956,0.688171,
-1.92719,0.65918,
-1.93787,0.674438,
-1.95007,0.68512,
-1.96228,0.672913,
-1.98212,0.668335,
-1.99127,0.666809,
-2.00195,0.67749,
-2.01416,0.708008,
-2.02637,0.682068,
-2.04163,0.666809,
-2.04926,0.669861,
-2.06451,0.682068,
-2.07825,0.683594,
-2.08893,0.67749,
-2.09961,0.672913,
-2.11487,0.668335,
-2.12555,0.67749,
-2.13776,0.680542,
-2.15302,0.67749,
-2.16064,0.663757,
-2.17133,0.668335,
-2.18048,0.682068,
-2.19421,0.683594,
-2.20337,0.680542,
-2.21558,0.668335,
-2.22778,0.662231,
-2.24152,0.682068,
-2.25525,0.68512,
-2.26135,0.67749,
-2.27203,0.671387,
-2.28729,0.65918,
-2.2934,0.680542,
-2.30408,0.683594,
-2.31018,0.680542,
-2.32086,0.668335,
-2.33154,0.663757,
-2.33917,0.680542,
-2.3468,0.694275,
-2.35596,0.683594,
-2.36359,0.668335,
-2.37579,0.671387,
-2.38342,0.679016,
-2.3941,0.686646,
-2.40479,0.680542,
-2.41241,0.665283,
-2.42157,0.669861,
-2.4292,0.682068,
-2.43835,0.68512,
-2.44598,0.679016,
-2.45514,0.671387,
-2.46429,0.666809,
-2.4765,0.679016,
-2.48413,0.680542,
-2.49176,0.674438,
-2.49634,0.663757,
-2.50854,0.668335,
-2.51617,0.679016,
-2.52228,0.680542,
-2.52838,0.679016,
-2.53448,0.669861,
-2.53754,0.663757,
-2.54059,0.680542,
-2.54211,0.68512,
-2.53754,0.672913,
-2.53143,0.671387,
-2.52533,0.671387,
-2.50854,0.67749,
-2.49329,0.68512,
-2.46735,0.679016,
-2.44446,0.668335,
-2.40936,0.666809,
-2.37274,0.67749,
-2.33002,0.686646,
-2.28271,0.669861,
-2.22931,0.666809,
-2.17133,0.665283,
-2.11182,0.672913,
-2.0462,0.686646,
-1.97906,0.680542,
-1.90735,0.666809,
-1.83563,0.671387,
-1.76086,0.683594,
-1.69067,0.688171,
-1.61896,0.682068,
-1.55334,0.669861,
-1.48773,0.669861,
-1.41907,0.68512,
-1.35956,0.68512,
-1.30157,0.67749,
-1.24207,0.665283,
-1.18866,0.663757,
-1.14288,0.680542,
-1.09558,0.682068,
-1.05286,0.67749,
-1.01013,0.668335,
-0.970459,0.663757,
-0.927734,0.679016,
-0.90332,0.683594,
-0.874329,0.679016,
-0.85144,0.669861,
-0.830078,0.656128,
-0.80719,0.67749,
-0.791931,0.692749,
-0.776672,0.679016,
-0.765991,0.669861,
-0.752258,0.668335,
-0.746155,0.674438,
-0.740051,0.689697,
-0.735474,0.665283,
-0.737,0.663757,
-0.733948,0.665283,
-0.730896,0.672913,
-0.733948,0.682068,
-0.732422,0.67749,
-0.733948,0.663757,
-0.733948,0.663757,
-0.733948,0.67749,
-0.732422,0.682068,
-0.737,0.674438,
-0.737,0.668335,
-0.743103,0.660706,
-0.741577,0.682068,
-0.744629,0.686646,
-0.750732,0.67749,
-0.759888,0.669861,
-0.767517,0.666809,
-0.775146,0.679016,
-0.78125,0.691223,
-0.793457,0.671387,
-0.808716,0.668335,
-0.823975,0.668335,
-0.837708,0.672913,
-0.849915,0.688171,
-0.862122,0.669861,
-0.875854,0.665283,
-0.883484,0.665283,
-0.897217,0.674438,
-0.912476,0.686646,
-0.918579,0.67749,
-0.924683,0.663757,
-0.938416,0.669861,
-0.942993,0.680542,
-0.946045,0.686646,
-0.949097,0.67749,
-0.9552,0.666809,
-0.956726,0.663757,
-0.956726,0.67749,
-0.956726,0.688171,
-0.9552,0.674438,
-0.952148,0.666809,
-0.950623,0.663757,
-0.942993,0.674438,
-0.939941,0.68512,
-0.938416,0.674438,
-0.933838,0.669861,
-0.924683,0.656128,
-0.920105,0.67749,
-0.914001,0.689697,
-0.906372,0.674438,
-0.901794,0.665283,
-0.892639,0.665283,
-0.889587,0.674438,
-0.886536,0.691223,
-0.883484,0.67749,
-0.87738,0.666809,
-0.875854,0.657654,
-0.875854,0.67749,
-0.872803,0.686646,
-0.878906,0.672913,
-0.874329,0.666809,
-0.874329,0.662231,
-0.875854,0.67749,
-0.87738,0.689697,
-0.881958,0.672913,
-0.889587,0.666809,
-0.897217,0.65918,
-0.904846,0.680542,
-0.918579,0.680542,
-0.926208,0.666809,
-0.939941,0.666809,
-0.950623,0.65918,
-0.961304,0.680542,
-0.970459,0.689697,
-0.982666,0.679016,
-0.993347,0.672913,
-1.00403,0.653076,
-1.01776,0.67749,
-1.02692,0.691223,
-1.04218,0.669861,
-1.04828,0.668335,
-1.05743,0.660706,
-1.06506,0.674438,
-1.08185,0.70343,
-1.09253,0.668335,
-1.10474,0.668335,
-1.11389,0.665283,
-1.12915,0.669861,
-1.13983,0.689697,
-1.15204,0.67749,
-1.16882,0.665283,
-1.17798,0.668335,
-1.19019,0.674438,
-1.21002,0.689697,
-1.22223,0.680542,
-1.23444,0.672913,
-1.25122,0.668335,
-1.26343,0.67749,
-1.27411,0.672913,
-1.28937,0.669861,
-1.30005,0.666809,
-1.31836,0.662231,
-1.33057,0.679016,
-1.34125,0.683594,
-1.35651,0.672913,
-1.36414,0.656128,
-1.37939,0.662231,
-1.38702,0.672913,
-1.39618,0.688171,
-1.40686,0.674438,
-1.41602,0.666809,
-1.42975,0.665283,
-1.43738,0.686646,
-1.44653,0.692749,
-1.45721,0.671387,
-1.4679,0.666809,
-1.47858,0.668335,
-1.49231,0.674438,
-1.50299,0.688171,
-1.51672,0.682068,
-1.52588,0.669861,
-1.53656,0.666809,
-1.54877,0.67749,
-1.55945,0.682068,
-1.57013,0.674438,
-1.58386,0.668335,
-1.59149,0.662231,
-1.60065,0.671387,
-1.60828,0.68512,
-1.62048,0.672913,
-1.62964,0.665283,
-1.63879,0.65918,
-1.64795,0.668335,
-1.65863,0.68512,
-1.66626,0.671387,
-1.67084,0.668335,
-1.67999,0.665283,
-1.68915,0.67749,
-1.6983,0.689697,
-1.70441,0.674438,
-1.71967,0.669861,
-1.72882,0.660706,
-1.73798,0.672913,
-1.74713,0.68512,
-1.76239,0.680542,
-1.77307,0.65918,
-1.78223,0.65918,
-1.79291,0.671387,
-1.80969,0.682068,
-1.82037,0.67749,
-1.83411,0.65918,
-1.84021,0.665283,
-1.85242,0.674438,
-1.86462,0.680542,
-1.87531,0.682068,
-1.88904,0.671387,
-1.89972,0.662231,
-1.90887,0.679016,
-1.91803,0.68512,
-1.92719,0.683594,
-1.93634,0.665283,
-1.95007,0.662231,
-1.95923,0.67749,
-1.97144,0.683594,
-1.98212,0.679016,
-1.98975,0.671387,
-1.99585,0.665283,
-2.00806,0.671387,
-2.02026,0.683594,
-2.02942,0.671387,
-2.03705,0.668335,
-2.05078,0.668335,
-2.05994,0.669861,
-2.07214,0.683594,
-2.0813,0.679016,
-2.0874,0.665283,
-2.09656,0.668335,
-2.10266,0.672913,
-2.11182,0.680542,
-2.12555,0.683594,
-2.13776,0.668335,
-2.14996,0.671387,
-2.15759,0.672913,
-2.17285,0.682068,
-2.18506,0.680542,
-2.19574,0.663757,
-2.20947,0.668335,
-2.21863,0.674438,
-2.22931,0.67749,
-2.23846,0.674438,
-2.24915,0.669861,
-2.2583,0.662231,
-2.26898,0.674438,
-2.28119,0.683594,
-2.2934,0.674438,
-2.2995,0.668335,
-2.30865,0.679016,
-2.31628,0.674438,
-2.32544,0.68512,
-2.33765,0.682068,
-2.35138,0.668335,
-2.35748,0.671387,
-2.36969,0.672913,
-2.38342,0.682068,
-2.3941,0.680542,
-2.40326,0.662231,
-2.41241,0.666809,
-2.41699,0.669861,
-2.4231,0.680542,
-2.4353,0.674438,
-2.44293,0.660706,
-2.45056,0.662231,
-2.45361,0.672913,
-2.47498,0.680542,
-2.47955,0.680542,
-2.48566,0.657654,
-2.49634,0.663757,
-2.50854,0.674438,
-2.51465,0.682068,
-2.52991,0.682068,
-2.53754,0.671387,
-2.54517,0.668335,
-2.55432,0.671387,
-2.56653,0.68512,
-2.57111,0.674438,
-2.58026,0.668335,
-2.58789,0.666809,
-2.59247,0.67749,
-2.6001,0.680542,
-2.60925,0.674438,
-2.62146,0.665283,
-2.62756,0.668335,
-2.63824,0.669861,
-2.6474,0.682068,
-2.65961,0.68512,
-2.66876,0.662231,
-2.67944,0.674438,
-2.69012,0.674438,
-2.69928,0.679016,
-2.70844,0.683594,
-2.71912,0.665283,
-2.72675,0.666809,
-2.73438,0.674438,
-2.742,0.682068,
-2.75421,0.671387,
-2.76337,0.665283,
-2.771,0.666809,
-2.78015,0.674438,
-2.78931,0.679016,
-2.80151,0.67749,
-2.80914,0.662231,
-2.81525,0.67749,
-2.8244,0.683594,
-2.83356,0.67749,
-2.84271,0.67749,
-2.85034,0.668335,
-2.85187,0.668335,
-2.85187,0.668335,
-2.84271,0.68512,
-2.83051,0.682068,
-2.81525,0.662231,
-2.79236,0.666809,
-2.76184,0.674438,
-2.73438,0.680542,
-2.69623,0.682068,
-2.65503,0.663757,
-2.6062,0.663757,
-2.5528,0.67749,
-2.49329,0.683594,
-2.43225,0.680542,
-2.36359,0.662231,
-2.29645,0.660706,
-2.22015,0.671387,
-2.14386,0.672913,
-2.06909,0.680542,
-1.99432,0.666809,
-1.92108,0.65918,
-1.84937,0.672913,
-1.77612,0.683594,
-1.69983,0.67749,
-1.63422,0.671387,
-1.56555,0.663757,
-1.50299,0.668335,
-1.4389,0.68512,
-1.38245,0.682068,
-1.33057,0.665283,
-1.28326,0.666809,
-1.23596,0.671387,
-1.19629,0.682068,
-1.15204,0.680542,
-1.11694,0.663757,
-1.08643,0.669861,
-1.05743,0.672913,
-1.03607,0.682068,
-1.01471,0.674438,
-0.991821,0.662231,
-0.973511,0.653076,
-0.9552,0.668335,
-0.941467,0.67749,
-0.93689,0.674438,
-0.924683,0.666809,
-0.917053,0.665283,
-0.917053,0.671387,
-0.912476,0.680542,
-0.91095,0.679016,
-0.909424,0.665283,
-0.912476,0.668335,
-0.914001,0.674438,
-0.915527,0.688171,
-0.918579,0.682068,
-0.923157,0.665283,
-0.927734,0.666809,
-0.93689,0.665283,
-0.942993,0.683594,
-0.946045,0.67749,
-0.949097,0.665283,
-0.956726,0.65918,
-0.96283,0.666809,
-0.964355,0.683594,
-0.968933,0.683594,
-0.976563,0.656128,
-0.98114,0.665283,
-0.982666,0.67749,
-0.993347,0.680542,
-0.997925,0.683594,
-1.00708,0.663757,
-1.01318,0.665283,
-1.02539,0.672913,
-1.03455,0.68512,
-1.04675,0.679016,
-1.05286,0.665283,
-1.06354,0.660706,
-1.07269,0.668335,
-1.0849,0.679016,
-1.09253,0.679016,
-1.09863,0.665283,
-1.09863,0.656128,
-1.10168,0.666809,
-1.10779,0.683594,
-1.10626,0.688171,
-1.10931,0.656128,
-1.10474,0.662231,
-1.10474,0.666809,
-1.09863,0.683594,
-1.08948,0.683594,
-1.08795,0.665283,
-1.08185,0.666809,
-1.07269,0.672913,
-1.06659,0.680542,
-1.05896,0.682068,
-1.04828,0.666809,
-1.04065,0.669861,
-1.03455,0.671387,
-1.02844,0.682068,
-1.02081,0.682068,
-1.01318,0.65918,
-1.00861,0.662231,
-1.0025,0.669861,
-0.999451,0.674438,
-0.993347,0.67749,
-0.98877,0.662231,
-0.984192,0.657654,
-0.978088,0.668335,
-0.975037,0.682068,
-0.971985,0.680542,
-0.975037,0.669861,
-0.973511,0.665283,
-0.975037,0.672913,
-0.978088,0.683594,
-0.976563,0.686646,
-0.98114,0.666809,
-0.98114,0.663757,
-0.985718,0.669861,
-0.993347,0.672913,
-0.999451,0.680542,
-1.0025,0.660706,
-1.01318,0.65918,
-1.02539,0.666809,
-1.03607,0.680542,
-1.04675,0.67749,
-1.06201,0.663757,
-1.06964,0.662231,
-1.0849,0.668335,
-1.09558,0.679016,
-1.10931,0.679016,
-1.12305,0.660706,
-1.13525,0.669861,
-1.14746,0.669861,
-1.15967,0.682068,
-1.17493,0.680542,
-1.18713,0.663757,
-1.20087,0.660706,
-1.21918,0.674438,
-1.23291,0.683594,
-1.24359,0.671387,
-1.26038,0.663757,
-1.27563,0.656128,
-1.28784,0.665283,
-1.30157,0.680542,
-1.31683,0.666809,
-1.33057,0.668335,
-1.3443,0.663757,
-1.35803,0.666809,
-1.37634,0.682068,
-1.3855,0.674438,
-1.40228,0.663757,
-1.41296,0.666809,
-1.42212,0.669861,
-1.4389,0.683594,
-1.45111,0.679016,
-1.46179,0.665283,
-1.47705,0.663757,
-1.48926,0.668335,
-1.49689,0.672913,
-1.50909,0.680542,
-1.51825,0.663757,
-1.52435,0.660706,
-1.53503,0.688171,
-1.54724,0.67749,
-1.55945,0.672913,
-1.56555,0.662231,
-1.57928,0.65918,
-1.58844,0.671387,
-1.60065,0.683594,
-1.6098,0.674438,
-1.61743,0.668335,
-1.62811,0.666809,
-1.63879,0.669861,
-1.64795,0.682068,
-1.65863,0.674438,
-1.66473,0.663757,
-1.67542,0.65918,
-1.68304,0.669861,
-1.69525,0.679016,
-1.70441,0.671387,
-1.71509,0.65918,
-1.72424,0.662231,
-1.73492,0.665283,
-1.74713,0.674438,
-1.75629,0.680542,
-1.76697,0.65918,
-1.77307,0.660706,
-1.78375,0.674438,
-1.79291,0.679016,
-1.80511,0.682068,
-1.81274,0.657654,
-1.81732,0.65918,
-1.83105,0.662231,
-1.84326,0.680542,
-1.85699,0.679016,
-1.86615,0.65918,
-1.87378,0.662231,
-1.88446,0.668335,
-1.89362,0.669861,
-1.90277,0.67749,
-1.91803,0.663757,
-1.92719,0.653076,
-1.93787,0.674438,
-1.9516,0.682068,
-1.96228,0.674438,
-1.97296,0.665283,
-1.98212,0.660706,
-1.98517,0.671387,
-1.9928,0.682068,
-2.005,0.679016,
-2.02026,0.663757,
-2.02942,0.663757,
-2.04163,0.669861,
-2.05231,0.683594,
-2.06451,0.67749,
-2.07062,0.65918,
-2.0813,0.662231,
-2.08893,0.665283,
-2.10114,0.679016,
-2.11182,0.67749,
-2.1225,0.656128,
-2.13318,0.660706,
-2.14233,0.672913,
-2.15302,0.680542,
-2.1637,0.67749,
-2.17285,0.666809,
-2.18048,0.660706,
-2.19421,0.674438,
-2.20184,0.680542,
-2.20947,0.680542,
-2.22015,0.665283,
-2.22778,0.657654,
-2.23083,0.666809,
-2.24152,0.672913,
-2.25067,0.67749,
-2.2583,0.663757,
-2.27051,0.654602,
-2.27509,0.671387,
-2.28577,0.679016,
-2.29034,0.669861,
-2.30103,0.668335,
-2.31018,0.657654,
-2.31628,0.669861,
-2.32849,0.680542,
-2.33765,0.67749,
-2.34528,0.663757,
-2.35748,0.660706,
-2.36664,0.668335,
-2.37732,0.682068,
-2.38953,0.672913,
-2.39716,0.665283,
-2.40784,0.65918,
-2.41699,0.663757,
-2.42615,0.679016,
-2.43683,0.679016,
-2.44598,0.662231,
-2.45667,0.657654,
-2.46429,0.672913,
-2.47803,0.680542,
-2.48413,0.680542,
-2.49939,0.666809,
-2.5116,0.657654,
-2.5238,0.660706,
-2.53296,0.682068,
-2.54364,0.665283,
-2.55432,0.668335,
-2.56805,0.662231,
-2.57874,0.669861,
-2.59247,0.672913,
-2.60468,0.674438,
-2.61536,0.668335,
-2.62604,0.657654,
-2.63367,0.663757,
-2.64435,0.679016,
-2.65808,0.669861,
-2.66418,0.666809,
-2.67029,0.663757,
-2.67944,0.665283,
-2.68555,0.680542,
-2.6947,0.67749,
-2.70691,0.663757,
-2.71759,0.662231,
-2.72827,0.666809,
-2.73743,0.679016,
-2.74353,0.67749,
-2.75574,0.665283,
-2.75726,0.662231,
-2.76947,0.668335,
-2.771,0.67749,
-2.7771,0.679016,
-2.77405,0.663757,
-2.77252,0.657654,
-2.76642,0.672913,
-2.75269,0.672913,
-2.73895,0.67749,
-2.72064,0.671387,
-2.69775,0.653076,
-2.66571,0.671387,
-2.63214,0.679016,
-2.59094,0.674438,
-2.54364,0.674438,
-2.49481,0.662231,
-2.43835,0.668335,
-2.37579,0.679016,
-2.31018,0.672913,
-2.24457,0.663757,
-2.17896,0.657654,
-2.10724,0.666809,
-2.03705,0.680542,
-1.96381,0.671387,
-1.89209,0.663757,
-1.81732,0.65918,
-1.74408,0.662231,
-1.67847,0.67749,
-1.61285,0.680542,
-1.54877,0.663757,
-1.48468,0.65918,
-1.42059,0.665283,
-1.36108,0.67749,
-1.3092,0.680542,
-1.25885,0.668335,
-1.2146,0.65918,
-1.17035,0.672913,
-1.1322,0.674438,
-1.09711,0.679016,
-1.06506,0.665283,
-1.03455,0.654602,
-1.00708,0.674438,
-0.985718,0.674438,
-0.968933,0.672913,
-0.949097,0.665283,
-0.938416,0.653076,
-0.924683,0.666809,
-0.914001,0.682068,
-0.906372,0.669861,
-0.898743,0.665283,
-0.892639,0.662231,
-0.889587,0.665283,
-0.892639,0.680542,
-0.891113,0.674438,
-0.889587,0.666809,
-0.894165,0.657654,
-0.894165,0.669861,
-0.894165,0.683594,
-0.895691,0.674438,
-0.901794,0.665283,
-0.909424,0.65918,
-0.912476,0.668335,
-0.920105,0.674438,
-0.923157,0.674438,
-0.927734,0.662231,
-0.93689,0.653076,
-0.941467,0.669861,
-0.950623,0.680542,
-0.964355,0.672913,
-0.976563,0.666809,
-0.993347,0.65918,
-1.00403,0.671387,
-1.01166,0.682068,
-1.02997,0.67749,
-1.04065,0.671387,
-1.05286,0.656128,
-1.06354,0.665283,
-1.07727,0.679016,
-1.0849,0.672913,
-1.09406,0.654602,
-1.10474,0.67749,
-1.10931,0.656128,
-1.11847,0.674438,
-1.12457,0.671387,
-1.12915,0.666809,
-1.12915,0.65918,
-1.1322,0.665283,
-1.13068,0.674438,
-1.12915,0.672913,
-1.12457,0.665283,
-1.12305,0.663757,
-1.11542,0.663757,
-1.11237,0.682068,
-1.10931,0.67749,
-1.10016,0.668335,
-1.09558,0.656128,
-1.091,0.668335,
-1.0849,0.669861,
-1.07727,0.67749,
-1.06812,0.663757,
-1.05591,0.657654,
-1.04828,0.668335,
-1.03607,0.672913,
-1.02997,0.67749,
-1.01776,0.665283,
-1.00555,0.653076,
-0.999451,0.669861,
-0.991821,0.67749,
-0.98877,0.679016,
-0.984192,0.668335,
-0.979614,0.65918,
-0.982666,0.668335,
-0.984192,0.67749,
-0.978088,0.669861,
-0.979614,0.665283,
-0.982666,0.656128,
-0.985718,0.665283,
-0.991821,0.67749,
-0.997925,0.669861,
-0.996399,0.665283,
-1.00861,0.660706,
-1.01166,0.663757,
-1.01929,0.680542,
-1.02539,0.672913,
-1.03302,0.669861,
-1.04065,0.65918,
-1.0498,0.668335,
-1.06049,0.679016,
-1.06812,0.679016,
-1.08185,0.668335,
-1.09253,0.656128,
-1.10474,0.665283,
-1.11847,0.682068,
-1.12915,0.674438,
-1.13831,0.666809,
-1.14746,0.656128,
-1.15509,0.669861,
-1.1734,0.671387,
-1.18713,0.67749,
-1.20392,0.666809,
-1.21613,0.653076,
-1.23138,0.668335,
-1.24664,0.679016,
-1.25885,0.674438,
-1.27258,0.671387,
-1.28174,0.65918,
-1.29395,0.668335,
-1.31073,0.679016,
-1.32141,0.672913,
-1.33514,0.669861,
-1.34583,0.657654,
-1.35498,0.665283,
-1.36871,0.680542,
-1.38245,0.669861,
-1.38855,0.663757,
-1.39923,0.660706,
-1.40839,0.660706,
-1.4267,0.680542,
-1.43738,0.67749,
-1.44806,0.656128,
-1.46027,0.657654,
-1.46942,0.668335,
-1.47858,0.67749,
-1.49231,0.674438,
-1.50452,0.671387,
-1.5152,0.653076,
-1.52588,0.672913,
-1.53656,0.67749,
-1.54877,0.674438,
-1.55792,0.666809,
-1.57013,0.65918,
-1.58081,0.660706,
-1.59149,0.674438,
-1.60065,0.67749,
-1.61285,0.668335,
-1.62506,0.657654,
-1.63727,0.666809,
-1.64795,0.679016,
-1.66168,0.671387,
-1.66931,0.668335,
-1.67999,0.65918,
-1.68762,0.669861,
-1.69678,0.68512,
-1.70288,0.674438,
-1.71051,0.668335,
-1.72119,0.65918,
-1.72882,0.668335,
-1.74103,0.682068,
-1.74866,0.668335,
-1.75629,0.663757,
-1.76239,0.662231,
-1.77612,0.663757,
-1.78223,0.680542,
-1.79138,0.674438,
-1.80511,0.668335,
-1.80817,0.663757,
-1.82037,0.668335,
-1.83411,0.679016,
-1.83868,0.679016,
-1.84784,0.669861,
-1.86005,0.663757,
-1.8692,0.666809,
-1.87531,0.67749,
-1.88446,0.67749,
-1.89209,0.666809,
-1.90277,0.657654,
-1.90735,0.671387,
-1.91498,0.669861,
-1.92108,0.680542,
-1.93176,0.672913,
-1.94244,0.65918,
-1.95313,0.666809,
-1.96228,0.683594,
-1.96838,0.679016,
-1.98059,0.669861,
-1.98822,0.666809,
-1.99738,0.666809,
-2.01263,0.682068,
-2.02026,0.67749,
-2.034,0.668335,
-2.04163,0.660706,
-2.05231,0.665283,
-2.05841,0.67749,
-2.07367,0.674438,
-2.08435,0.666809,
-2.09503,0.65918,
-2.10266,0.663757,
-2.11639,0.67749,
-2.13013,0.67749,
-2.14386,0.662231,
-2.15454,0.662231,
-2.16827,0.65918,
-2.18048,0.683594,
-2.19269,0.672913,
-2.19727,0.668335,
-2.211,0.663757,
-2.22473,0.665283,
-2.23846,0.672913,
-2.24609,0.679016,
-2.25372,0.65918,
-2.2644,0.65918,
-2.27814,0.666809,
-2.29034,0.665283,
-2.3056,0.674438,
-2.31476,0.663757,
-2.32544,0.657654,
-2.33612,0.668335,
-2.34985,0.67749,
-2.36206,0.674438,
-2.37579,0.666809,
-2.39105,0.663757,
-2.39868,0.663757,
-2.40936,0.682068,
-2.42462,0.674438,
-2.44293,0.665283,
-2.45514,0.65918,
-2.4704,0.663757,
-2.4765,0.67749,
-2.48718,0.671387,
-2.49481,0.662231,
-2.50244,0.663757,
-2.51007,0.660706,
-2.51312,0.67749,
-2.5116,0.671387,
-2.50549,0.65918,
-2.49481,0.663757,
-2.4826,0.669861,
-2.46735,0.674438,
-2.44446,0.674438,
-2.41241,0.665283,
-2.38342,0.662231,
-2.34528,0.668335,
-2.30255,0.679016,
-2.25677,0.672913,
-2.20032,0.665283,
-2.14691,0.65918,
-2.09351,0.665283,
-2.02789,0.672913,
-1.96381,0.67749,
-1.89819,0.662231,
-1.82648,0.656128,
-1.76086,0.665283,
-1.6922,0.682068,
-1.62811,0.669861,
-1.56555,0.665283,
-1.50146,0.660706,
-1.43738,0.663757,
-1.37634,0.682068,
-1.31836,0.674438,
-1.2619,0.662231,
-1.21155,0.662231,
-1.16425,0.666809,
-1.12,0.674438,
-1.08185,0.674438,
-1.04675,0.660706,
-1.01318,0.657654,
-0.979614,0.65918,
-0.946045,0.672913,
-0.920105,0.67749,
-0.897217,0.65918,
-0.875854,0.660706,
-0.85907,0.666809,
-0.843811,0.674438,
-0.831604,0.679016,
-0.822449,0.668335,
-0.817871,0.65155,
-0.805664,0.668335,
-0.805664,0.679016,
-0.801086,0.672913,
-0.801086,0.663757,
-0.799561,0.657654,
-0.799561,0.666809,
-0.798035,0.672913,
-0.801086,0.671387,
-0.802612,0.665283,
-0.804138,0.653076,
-0.805664,0.654602,
-0.808716,0.695801,
-0.810242,0.668335,
-0.817871,0.663757,
-0.817871,0.660706,
-0.827026,0.662231,
-0.834656,0.672913,
-0.840759,0.674438,
-0.849915,0.665283,
-0.856018,0.662231,
-0.872803,0.663757,
-0.883484,0.679016,
-0.895691,0.680542,
-0.909424,0.662231,
-0.923157,0.662231,
-0.932312,0.660706,
-0.944519,0.669861,
-0.961304,0.68512,
-0.975037,0.660706,
-0.98114,0.657654,
-0.993347,0.663757,
-1.00098,0.672913,
-1.01013,0.67749,
-1.02081,0.665283,
-1.02692,0.660706,
-1.03455,0.668335,
-1.0376,0.67749,
-1.04675,0.67749,
-1.04828,0.666809,
-1.05133,0.660706,
-1.05286,0.665283,
-1.05591,0.672913,
-1.05286,0.672913,
-1.0498,0.666809,
-1.04828,0.654602,
-1.03607,0.65918,
-1.02997,0.67749,
-1.02539,0.674438,
-1.02081,0.665283,
-1.01471,0.662231,
-1.00861,0.642395,
-1.00403,0.67749,
-0.997925,0.671387,
-0.990295,0.660706,
-0.990295,0.663757,
-0.984192,0.665283,
-0.979614,0.679016,
-0.98114,0.679016,
-0.976563,0.666809,
-0.976563,0.663757,
-0.976563,0.665283,
-0.976563,0.672913,
-0.975037,0.67749,
-0.978088,0.662231,
-0.976563,0.660706,
-0.978088,0.663757,
-0.98114,0.67749,
-0.984192,0.672913,
-0.98877,0.663757,
-0.993347,0.657654,
-1.0025,0.666809,
-1.01013,0.67749,
-1.01471,0.679016,
-1.02234,0.663757,
-1.02997,0.666809,
-1.04218,0.662231,
-1.0498,0.679016,
-1.05743,0.672913,
-1.06964,0.665283,
-1.0849,0.662231,
-1.09711,0.663757,
-1.10931,0.672913,
-1.12457,0.67749,
-1.13831,0.662231,
-1.14899,0.660706,
-1.16119,0.65918,
-1.1795,0.671387,
-1.19476,0.67749,
-1.2085,0.65918,
-1.22528,0.657654,
-1.23901,0.663757,
-1.25427,0.674438,
-1.26953,0.67749,
-1.28326,0.663757,
-1.29547,0.662231,
-1.31073,0.666809,
-1.32141,0.67749,
-1.33209,0.682068,
-1.34583,0.663757,
-1.35803,0.657654,
-1.37329,0.668335,
-1.38855,0.669861,
-1.40076,0.671387,
-1.41449,0.657654,
-1.42517,0.656128,
-1.43585,0.660706,
-1.44806,0.67749,
-1.46027,0.666809,
-1.47705,0.656128,
-1.48773,0.657654,
-1.49536,0.656128,
-1.50452,0.671387,
-1.5213,0.672913,
-1.53198,0.657654,
-1.54724,0.65918,
-1.55945,0.663757,
-1.57013,0.671387,
-1.58081,0.671387,
-1.59149,0.663757,
-1.60217,0.660706,
-1.6098,0.665283,
-1.62811,0.672913,
-1.63727,0.672913,
-1.651,0.65918,
-1.66321,0.657654,
-1.67542,0.663757,
-1.68152,0.668335,
-1.69983,0.671387,
-1.70898,0.662231,
-1.72272,0.656128,
-1.73187,0.662231,
-1.74103,0.671387,
-1.75171,0.669861,
-1.75934,0.662231,
-1.76849,0.65918,
-1.77765,0.663757,
-1.7868,0.67749,
-1.79596,0.680542,
-1.80664,0.662231,
-1.81885,0.660706,
-1.82343,0.662231,
-1.83258,0.67749,
-1.84021,0.674438,
-1.84937,0.665283,
-1.8631,0.660706,
-1.8692,0.657654,
-1.87836,0.671387,
-1.88599,0.672913,
-1.90277,0.656128,
-1.91345,0.654602,
-1.92566,0.663757,
-1.93939,0.665283,
-1.94702,0.67749,
-1.9577,0.662231,
-1.96686,0.653076,
-1.97601,0.665283,
-1.98364,0.672913,
-1.99432,0.668335,
-2.00653,0.662231,
-2.01111,0.65918,
-2.02179,0.663757,
-2.03094,0.67749,
-2.0401,0.674438,
-2.05078,0.657654,
-2.05841,0.657654,
-2.07062,0.662231,
-2.07977,0.67749,
-2.09198,0.672913,
-2.10571,0.65918,
-2.11029,0.656128,
-2.12402,0.657654,
-2.13623,0.668335,
-2.14233,0.67749,
-2.15607,0.656128,
-2.1637,0.656128,
-2.17438,0.665283,
-2.18201,0.669861,
-2.19574,0.680542,
-2.20947,0.663757,
-2.2171,0.657654,
-2.22778,0.668335,
-2.23999,0.674438,
-2.25372,0.672913,
-2.2644,0.660706,
-2.27356,0.653076,
-2.28577,0.665283,
-2.2934,0.672913,
-2.30713,0.669861,
-2.31781,0.65155,
-2.33154,0.65155,
-2.34222,0.665283,
-2.35443,0.669861,
-2.36053,0.672913,
-2.37274,0.662231,
-2.38037,0.656128,
-2.388,0.662231,
-2.39868,0.672913,
-2.40936,0.67749,
-2.42157,0.65918,
-2.43073,0.657654,
-2.44293,0.663757,
-2.45514,0.672913,
-2.46582,0.674438,
-2.47498,0.680542,
-2.48718,0.656128,
-2.49634,0.662231,
-2.50702,0.672913,
-2.51617,0.672913,
-2.52991,0.65918,
-2.53906,0.654602,
-2.5528,0.666809,
-2.56195,0.668335,
-2.57111,0.671387,
-2.58179,0.665283,
-2.59399,0.653076,
-2.60773,0.663757,
-2.61841,0.669861,
-2.63519,0.671387,
-2.64587,0.663757,
-2.6535,0.654602,
-2.66571,0.660706,
-2.68097,0.67749,
-2.69012,0.67749,
-2.70386,0.662231,
-2.71606,0.656128,
-2.72522,0.663757,
-2.73743,0.666809,
-2.74811,0.679016,
-2.76337,0.660706,
-2.76947,0.65155,
-2.78168,0.663757,
-2.78931,0.668335,
-2.79541,0.680542,
-2.79846,0.65918,
-2.79236,0.65918,
-2.78931,0.666809,
-2.77863,0.666809,
-2.76642,0.679016,
-2.74811,0.662231,
-2.72369,0.65155,
-2.69928,0.663757,
-2.66113,0.669861,
-2.62451,0.680542,
-2.57568,0.668335,
-2.52533,0.657654,
-2.46735,0.663757,
-2.40326,0.668335,
-2.33612,0.701904,
-2.26746,0.663757,
-2.19269,0.654602,
-2.11639,0.662231,
-2.0401,0.672913,
-1.96075,0.671387,
-1.88599,0.662231,
-1.80969,0.645447,
-1.73492,0.654602,
-1.65863,0.665283,
-1.58691,0.668335,
-1.51672,0.660706,
-1.45416,0.653076,
-1.39008,0.65918,
-1.33057,0.671387,
-1.27716,0.671387,
-1.22833,0.665283,
-1.18103,0.650024,
-1.13983,0.660706,
-1.10016,0.669861,
-1.06201,0.672913,
-1.03302,0.660706,
-1.00098,0.645447,
-0.971985,0.663757,
-0.950623,0.672913,
-0.932312,0.674438,
-0.912476,0.663757,
-0.894165,0.650024,
-0.886536,0.662231,
-0.878906,0.669861,
-0.869751,0.671387,
-0.862122,0.669861,
-0.857544,0.654602,
-0.854492,0.657654,
-0.85144,0.666809,
-0.845337,0.679016,
-0.843811,0.657654,
-0.845337,0.657654,
-0.845337,0.65918,
-0.845337,0.668335,
-0.848389,0.67749,
-0.85144,0.662231,
