-2.4353,0.942993
-2.43683,0.944519
-2.43835,0.949097
-2.44446,0.944519
-2.44293,0.944519
-2.44141,0.939941
-2.43988,0.944519
-2.4292,0.941467
-2.42462,0.947571
-2.41394,0.944519
-2.40173,0.942993
-2.388,0.944519
-2.37274,0.947571
-2.35291,0.942993
-2.33154,0.939941
-2.31171,0.942993
-2.28882,0.944519
-2.26746,0.949097
-2.24304,0.947571
-2.21863,0.941467
-2.19727,0.944519
-2.1698,0.942993
-2.14233,0.944519
-2.1225,0.944519
-2.09503,0.941467
-2.07367,0.941467
-2.05078,0.942993
-2.02942,0.947571
-2.00195,0.947571
-1.98212,0.947571
-1.96228,0.941467
-1.9455,0.941467
-1.92108,0.944519
-1.90582,0.944519
-1.88751,0.941467
-1.87073,0.941467
-1.85547,0.942993
-1.83868,0.942993
-1.82648,0.947571
-1.81274,0.941467
-1.80359,0.941467
-1.79443,0.947571
-1.78528,0.949097
-1.77307,0.944519
-1.76697,0.947571
-1.76239,0.941467
-1.75323,0.942993
-1.75018,0.942993
-1.74561,0.944519
-1.74255,0.942993
-1.73492,0.939941
-1.73187,0.944519
-1.73035,0.947571
-1.72729,0.949097
-1.72577,0.944519
-1.72424,0.942993
-1.72119,0.949097
-1.71967,0.944519
-1.71814,0.944519
-1.71509,0.944519
-1.71661,0.938416
-1.71356,0.947571
-1.71204,0.942993
-1.70898,0.947571
-1.71356,0.939941
-1.71356,0.941467
-1.71356,0.942993
-1.71051,0.947571
-1.71356,0.942993
-1.71356,0.942993
-1.71661,0.941467
-1.72119,0.944519
-1.71967,0.944519
-1.71967,0.944519
-1.72119,0.942993
-1.72424,0.942993
-1.72577,0.947571
-1.72729,0.944519
-1.72882,0.942993
-1.7334,0.944519
-1.7334,0.944519
-1.73798,0.944519
-1.74255,0.950623
-1.74255,0.944519
-1.74408,0.942993
-1.74866,0.942993
-1.74866,0.944519
-1.75018,0.942993
-1.75323,0.944519
-1.75629,0.942993
-1.75629,0.942993
-1.75781,0.942993
-1.75629,0.944519
-1.75629,0.942993
-1.75781,0.942993
-1.75629,0.942993
-1.75781,0.944519
-1.75934,0.947571
-1.75476,0.947571
-1.75781,0.944519
-1.75323,0.947571
-1.75476,0.944519
-1.75476,0.947571
-1.75323,0.944519
-1.75323,0.944519
-1.75018,0.941467
-1.75018,0.944519
-1.75018,0.947571
-1.75171,0.947571
-1.74713,0.941467
-1.74866,0.942993
-1.75171,0.944519
-1.74713,0.949097
-1.74713,0.941467
-1.74561,0.947571
-1.74866,0.942993
-1.74866,0.942993
-1.75018,0.944519
-1.75323,0.942993
-1.75476,0.941467
-1.75629,0.941467
-1.75629,0.942993
-1.75781,0.942993
-1.76086,0.944519
-1.76392,0.941467
-1.76544,0.942993
-1.76697,0.949097
-1.77155,0.944519
-1.77612,0.942993
-1.77765,0.941467
-1.78223,0.941467
-1.78528,0.949097
-1.78833,0.947571
-1.79138,0.944519
-1.79596,0.941467
-1.80054,0.942993
-1.80511,0.942993
-1.80817,0.944519
-1.81274,0.947571
-1.8158,0.942993
-1.8219,0.941467
-1.82648,0.944519
-1.82953,0.942993
-1.83258,0.942993
-1.83868,0.942993
-1.84174,0.942993
-1.84784,0.944519
-1.85089,0.942993
-1.85394,0.947571
-1.86005,0.941467
-1.8631,0.939941
-1.86768,0.942993
-1.87531,0.944519
-1.87988,0.944519
-1.88446,0.939941
-1.88904,0.939941
-1.89819,0.947571
-1.89972,0.944519
-1.90277,0.939941
-1.9104,0.939941
-1.91345,0.942993
-1.9165,0.941467
-1.92108,0.947571
-1.92566,0.941467
-1.93329,0.942993
-1.94092,0.941467
-1.94244,0.944519
-1.94702,0.947571
-1.95007,0.942993
-1.95465,0.941467
-1.9577,0.938416
-1.96381,0.942993
-1.96838,0.942993
-1.97144,0.942993
-1.97449,0.942993
-1.98059,0.939941
-1.98669,0.942993
-1.98517,0.942993
-1.99432,0.941467
-1.99585,0.942993
-1.9989,0.941467
-2.00348,0.942993
-2.00653,0.947571
-2.01111,0.942993
-2.01416,0.941467
-2.01874,0.941467
-2.02026,0.942993
-2.02179,0.942993
-2.02637,0.942993
-2.02942,0.944519
-2.03857,0.938416
-2.0401,0.942993
-2.04163,0.947571
-2.04773,0.942993
-2.04773,0.941467
-2.05383,0.938416
-2.05841,0.941467
-2.05841,0.942993
-2.06604,0.942993
-2.06757,0.938416
-2.07214,0.938416
-2.0752,0.939941
-2.07977,0.941467
-2.0813,0.941467
-2.08435,0.942993
-2.09045,0.939941
-2.09351,0.944519
-2.09656,0.942993
-2.10266,0.938416
-2.10419,0.939941
-2.10876,0.941467
-2.11182,0.942993
-2.11334,0.942993
-2.12097,0.939941
-2.12402,0.93689
-2.12555,0.938416
-2.13165,0.942993
-2.13776,0.944519
-2.13928,0.941467
-2.14386,0.941467
-2.15149,0.938416
-2.15302,0.941467
-2.15454,0.941467
-2.16064,0.938416
-2.16522,0.939941
-2.17285,0.93689
-2.17438,0.944519
-2.17896,0.942993
-2.18811,0.939941
-2.18658,0.938416
-2.19269,0.93689
-2.19727,0.941467
-2.19574,0.942993
-2.20184,0.942993
-2.20642,0.938416
-2.21405,0.938416
-2.21558,0.938416
-2.21863,0.941467
-2.22321,0.941467
-2.22931,0.941467
-2.23236,0.938416
-2.23846,0.941467
-2.24304,0.939941
-2.24915,0.939941
-2.25372,0.939941
-2.26135,0.93689
-2.26288,0.941467
-2.26898,0.941467
-2.27356,0.939941
-2.27814,0.93689
-2.28271,0.939941
-2.28882,0.942993
-2.2934,0.942993
-2.2995,0.938416
-2.30408,0.935364
-2.30713,0.93689
-2.31628,0.939941
-2.31781,0.944519
-2.31781,0.941467
-2.32849,0.939941
-2.33002,0.93689
-2.33612,0.942993
-2.33765,0.938416
-2.34375,0.939941
-2.34375,0.938416
-2.3468,0.939941
-2.34528,0.939941
-2.34375,0.941467
-2.3407,0.939941
-2.33459,0.939941
-2.32544,0.938416
-2.31476,0.941467
-2.30103,0.941467
-2.28577,0.939941
-2.26746,0.939941
-2.24915,0.93689
-2.22931,0.939941
-2.211,0.939941
-2.19116,0.941467
-2.16675,0.938416
-2.15149,0.935364
-2.1286,0.941467
-2.10571,0.942993
-2.07672,0.939941
-2.05841,0.935364
-2.03857,0.935364
-2.01263,0.939941
-1.99432,0.938416
-1.97601,0.939941
-1.95313,0.939941
-1.93634,0.93689
-1.91803,0.938416
-1.90277,0.941467
-1.88446,0.942993
-1.86768,0.938416
-1.85089,0.938416
-1.83868,0.942993
-1.828,0.939941
-1.81274,0.941467
-1.80054,0.935364
-1.79138,0.935364
-1.7807,0.938416
-1.76849,0.939941
-1.75934,0.938416
-1.75323,0.938416
-1.74866,0.93689
-1.74561,0.938416
-1.73798,0.938416
-1.7334,0.93689
-1.73035,0.938416
-1.72272,0.935364
-1.72119,0.938416
-1.71967,0.941467
-1.71814,0.93689
-1.71356,0.93689
-1.71356,0.93689
-1.71204,0.939941
-1.71051,0.939941
-1.71051,0.938416
-1.70593,0.938416
-1.70441,0.938416
-1.70441,0.939941
-1.70288,0.941467
-1.70288,0.939941
-1.70288,0.93689
-1.70135,0.93689
-1.70441,0.938416
-1.70135,0.938416
-1.70593,0.938416
-1.71051,0.939941
-1.70593,0.938416
-1.71051,0.938416
-1.71509,0.942993
-1.71814,0.939941
-1.71967,0.93689
-1.72272,0.938416
-1.72729,0.941467
-1.72729,0.941467
-1.73187,0.944519
-1.73645,0.942993
-1.74255,0.938416
-1.74713,0.939941
-1.74561,0.941467
-1.75018,0.942993
-1.75629,0.938416
-1.75629,0.939941
-1.75934,0.942993
-1.76086,0.942993
-1.76239,0.941467
-1.76544,0.942993
-1.76239,0.939941
-1.76697,0.942993
-1.76849,0.941467
-1.76849,0.942993
-1.7746,0.939941
-1.77155,0.939941
-1.7746,0.944519
-1.77155,0.947571
-1.77155,0.942993
-1.76697,0.939941
-1.76849,0.939941
-1.76849,0.944519
-1.76697,0.944519
-1.76544,0.941467
-1.76392,0.939941
-1.76697,0.941467
-1.76239,0.942993
-1.76239,0.947571
-1.75934,0.944519
-1.75781,0.941467
-1.75629,0.942993
-1.75476,0.944519
-1.75171,0.942993
-1.75171,0.944519
-1.74866,0.942993
-1.75018,0.941467
-1.74713,0.944519
-1.74866,0.944519
-1.74561,0.944519
-1.74255,0.942993
-1.74561,0.944519
-1.74713,0.947571
-1.74713,0.944519
-1.75018,0.947571
-1.74866,0.944519
-1.75323,0.944519
-1.75476,0.949097
-1.75323,0.950623
-1.75629,0.947571
-1.75934,0.947571
-1.75934,0.947571
-1.76086,0.949097
-1.76544,0.953674
-1.77307,0.947571
-1.77765,0.949097
-1.77917,0.947571
-1.78223,0.952148
-1.78833,0.953674
-1.79291,0.950623
-1.79901,0.949097
-1.80511,0.947571
-1.81122,0.949097
-1.81732,0.950623
-1.8219,0.953674
-1.82648,0.947571
-1.82953,0.947571
-1.84021,0.952148
-1.84326,0.952148
-1.84784,0.952148
-1.85089,0.950623
-1.85852,0.952148
-1.86462,0.952148
-1.87073,0.9552
-1.87531,0.953674
-1.87836,0.952148
-1.88599,0.952148
-1.89056,0.953674
-1.89819,0.956726
-1.89972,0.9552
-1.90887,0.952148
-1.9104,0.952148
-1.91498,0.9552
-1.91803,0.956726
-1.92719,0.956726
-1.92566,0.9552
-1.93939,0.953674
-1.93939,0.9552
-1.9455,0.958252
-1.95007,0.958252
-1.95465,0.950623
-1.95923,0.9552
-1.96533,0.956726
-1.96991,0.956726
-1.97296,0.958252
-1.97601,0.9552
-1.97906,0.956726
-1.98212,0.958252
-1.98822,0.961304
-1.9928,0.958252
-1.9989,0.9552
-2.00195,0.956726
-2.00653,0.959778
-2.01111,0.959778
-2.01263,0.959778
-2.01569,0.958252
-2.02179,0.959778
-2.02637,0.961304
-2.02789,0.964355
-2.03094,0.961304
-2.03705,0.961304
-2.04163,0.959778
-2.04773,0.96283
-2.04926,0.96283
-2.05383,0.961304
-2.05841,0.959778
-2.06299,0.959778
-2.06757,0.961304
-2.07214,0.965881
-2.0752,0.964355
-2.08282,0.96283
-2.08588,0.96283
-2.09351,0.964355
-2.09961,0.967407
-2.10266,0.96283
-2.10571,0.959778
-2.10724,0.965881
-2.11334,0.967407
-2.11639,0.968933
-2.12097,0.965881
-2.1286,0.965881
-2.13013,0.96283
-2.13318,0.965881
-2.13928,0.968933
-2.14539,0.967407
-2.14844,0.967407
-2.15302,0.965881
-2.16064,0.967407
-2.16217,0.970459
-2.16827,0.970459
-2.17285,0.964355
-2.17743,0.970459
-2.18353,0.968933
-2.18658,0.968933
-2.18964,0.968933
-2.19574,0.967407
-2.19879,0.967407
-2.20184,0.971985
-2.20947,0.973511
-2.21405,0.968933
-2.21558,0.970459
-2.22015,0.967407
-2.21863,0.971985
-2.22015,0.971985
-2.22321,0.971985
-2.22168,0.971985
-2.22015,0.970459
-2.21558,0.973511
-2.20642,0.973511
-2.20184,0.976563
-2.19116,0.970459
-2.17743,0.971985
-2.1698,0.968933
-2.15302,0.971985
-2.13776,0.976563
-2.1225,0.971985
-2.10419,0.978088
-2.08893,0.976563
-2.06909,0.976563
-2.04926,0.979614
-2.03094,0.971985
-2.00653,0.971985
-1.98975,0.976563
-1.96991,0.98114
-1.94702,0.978088
-1.93176,0.971985
-1.90887,0.973511
-1.89209,0.979614
-1.87683,0.979614
-1.85547,0.98114
-1.84174,0.976563
-1.82343,0.978088
-1.80511,0.98114
-1.79138,0.982666
-1.77917,0.979614
-1.76392,0.978088
-1.75171,0.976563
-1.73798,0.98114
-1.72729,0.982666
-1.71814,0.98114
-1.70898,0.979614
-1.70135,0.979614
-1.69373,0.984192
-1.68915,0.98114
-1.68152,0.984192
-1.67694,0.978088
-1.67236,0.979614
-1.66779,0.979614
-1.66779,0.982666
-1.66168,0.984192
-1.66321,0.979614
-1.66016,0.979614
-1.66016,0.985718
-1.6571,0.987244
-1.66016,0.98114
-1.66016,0.979614
-1.66168,0.979614
-1.66016,0.987244
-1.66321,0.985718
-1.66321,0.984192
-1.66473,0.982666
-1.66779,0.982666
-1.66321,0.98877
-1.67084,0.982666
-1.67236,0.987244
-1.67236,0.982666
-1.67847,0.984192
-1.67999,0.984192
-1.68304,0.990295
-1.68152,0.985718
-1.68762,0.984192
-1.69067,0.987244
-1.69373,0.984192
-1.69678,0.985718
-1.70288,0.987244
-1.70441,0.982666
-1.71204,0.985718
-1.71509,0.987244
-1.71814,0.98877
-1.71814,0.985718
-1.72424,0.985718
-1.72424,0.985718
-1.72882,0.987244
-1.72882,0.991821
-1.73492,0.98877
-1.7334,0.987244
-1.73798,0.985718
-1.74255,0.990295
-1.74103,0.98877
-1.74255,0.990295
-1.74561,0.985718
-1.74561,0.987244
-1.74866,0.98877
-1.75018,0.98877
-1.75323,0.990295
-1.75018,0.98877
-1.75171,0.987244
-1.75171,0.990295
-1.75476,0.991821
-1.75476,0.993347
-1.75323,0.990295
-1.75476,0.98877
-1.75323,0.991821
-1.75171,0.993347
-1.75323,0.993347
-1.75323,0.98877
-1.75629,0.990295
-1.75476,0.990295
-1.75476,0.994873
-1.75476,0.990295
-1.75629,0.98877
-1.75781,0.98877
-1.75781,0.993347
-1.76086,0.996399
-1.76239,0.990295
-1.76392,0.991821
-1.77307,0.993347
-1.77307,0.990295
-1.7746,0.997925
-1.77612,0.991821
-1.77917,0.990295
-1.77917,0.991821
-1.78375,0.993347
-1.7868,0.991821
-1.79291,0.993347
-1.79291,0.990295
-1.79901,0.991821
-1.80359,0.993347
-1.80664,0.994873
-1.81274,0.993347
-1.81885,0.994873
-1.8219,0.991821
-1.82648,0.994873
-1.83105,0.996399
-1.83868,0.997925
-1.84174,0.993347
-1.84631,0.991821
-1.85242,0.993347
-1.85852,0.993347
-1.86462,0.994873
-1.87073,0.990295
-1.87683,0.993347
-1.88446,0.996399
-1.88751,0.996399
-1.89056,0.996399
-1.90277,0.993347
-1.90887,0.991821
-1.91193,0.996399
-1.91345,0.994873
-1.92108,0.994873
-1.93024,0.994873
-1.93481,0.994873
-1.94092,0.996399
-1.9455,0.994873
-1.94855,0.996399
-1.95618,0.991821
-1.96381,0.991821
-1.96838,0.994873
-1.97144,0.999451
-1.97449,0.996399
-1.98364,0.993347
-1.98822,0.991821
-1.9928,0.994873
-2.00043,0.999451
-2.00043,0.996399
-2.00653,0.993347
-2.01569,0.997925
-2.01721,0.996399
-2.02484,0.997925
-2.03094,0.996399
-2.034,0.991821
-2.04163,0.991821
-2.04773,0.994873
-2.05078,0.994873
-2.05841,0.994873
-2.05688,0.996399
-2.06451,0.991821
-2.07062,0.994873
-2.07214,0.999451
-2.0752,0.997925
-2.07825,0.994873
-2.08282,0.994873
-2.08588,0.994873
-2.09045,0.994873
-2.09351,0.999451
-2.09808,0.993347
-2.09961,0.993347
-2.10266,0.996399
-2.10571,0.996399
-2.10724,0.997925
-2.11334,0.994873
-2.11639,0.993347
-2.12402,0.994873
-2.12555,0.999451
-2.13013,0.993347
-2.13318,0.996399
-2.13776,0.994873
-2.14081,0.999451
-2.14539,0.997925
-2.14844,0.996399
-2.15607,0.996399
-2.16064,0.993347
-2.1637,0.997925
-2.16675,0.997925
-2.17133,0.996399
-2.17743,0.994873
-2.18353,0.996399
-2.18658,0.996399
-2.19116,0.999451
-2.19269,0.997925
-2.19879,0.991821
-2.20337,0.993347
-2.20642,0.999451
-2.20947,1.00098
-2.21863,0.997925
-2.21863,0.993347
-2.21863,0.994873
-2.22778,0.997925
-2.22931,0.997925
-2.23236,0.994873
-2.23541,0.994873
-2.24304,0.994873
-2.24609,0.997925
-2.25067,0.999451
-2.25525,0.994873
-2.25983,0.991821
-2.2644,0.993347
-2.26746,0.994873
-2.27203,0.997925
-2.28119,0.996399
-2.28729,0.994873
-2.29187,0.993347
-2.29645,0.999451
-2.30103,0.996399
-2.30408,0.999451
-2.3056,0.993347
-2.31018,0.993347
-2.30713,0.994873
-2.30713,0.997925
-2.30408,0.994873
-2.30103,0.994873
-2.29492,0.996399
-2.28882,0.996399
-2.27814,0.997925
-2.26593,0.996399
-2.2522,0.994873
-2.23846,0.994873
-2.22473,0.997925
-2.20337,1.00098
-2.18506,0.997925
-2.16675,0.993347
-2.14691,0.996399
-2.1286,0.996399
-2.10571,0.997925
-2.08435,0.996399
-2.06451,0.994873
-2.04468,0.994873
-2.02484,0.996399
-2.00348,0.999451
-1.98517,0.997925
-1.96533,0.994873
-1.9455,0.994873
-1.93176,0.999451
-1.91193,0.997925
-1.89819,0.997925
-1.88446,0.996399
-1.8692,0.997925
-1.85699,0.999451
-1.84174,1.00403
-1.83105,0.999451
-1.82037,0.994873
-1.81122,0.994873
-1.79749,1.00098
-1.78833,1.00098
-1.7868,1.00098
-1.77765,0.997925
-1.76697,0.996399
-1.75781,0.997925
-1.75629,0.997925
-1.75171,1.00403
-1.74713,0.997925
-1.74713,0.993347
-1.74561,1.00403
-1.74408,1.00098
-1.73798,1.00555
-1.74408,0.996399
-1.73798,0.999451
-1.74103,1.00555
-1.73798,1.00403
-1.73492,1.00555
-1.73492,0.999451
-1.7334,1.00403
-1.7334,1.00555
-1.73187,1.00708
-1.73187,1.00555
-1.73187,0.997925
-1.7334,0.999451
-1.7334,1.00708
-1.7334,1.00708
-1.73492,1.00555
-1.73492,1.00403
-1.73645,0.999451
-1.73645,1.00403
-1.74103,1.00403
-1.74255,1.00403
-1.74713,1.00098
-1.74866,1.00403
-1.75323,1.00555
-1.75781,1.00708
-1.75934,1.00708
-1.76239,1.00098
-1.76849,1.00555
-1.77155,1.00403
-1.77307,1.00861
-1.7746,1.00708
-1.78223,1.00555
-1.7868,1.00555
-1.78833,1.00861
-1.78986,1.01166
-1.79138,1.01013
-1.79749,1.00708
-1.79749,1.00861
-1.79749,1.01166
-1.80054,1.01318
-1.80511,1.01013
-1.80359,1.00708
-1.80664,1.00861
-1.80511,1.01318
-1.80664,1.01166
-1.80969,1.01166
-1.80969,1.00861
-1.80817,1.01013
-1.80817,1.01318
-1.81274,1.01776
-1.80664,1.01318
-1.81122,1.01318
-1.80969,1.01166
-1.80817,1.01624
-1.80511,1.01624
-1.80511,1.01776
-1.80664,1.01318
-1.80817,1.01318
-1.80359,1.01624
-1.80664,1.01624
-1.80817,1.02081
-1.80511,1.01776
-1.80969,1.01624
-1.80817,1.01776
-1.80969,1.01776
-1.81122,1.01624
-1.8158,1.01624
-1.81427,1.01776
-1.81885,1.02234
-1.81885,1.02234
-1.82037,1.01929
-1.82343,1.01929
-1.82495,1.01776
-1.82953,1.02234
-1.83563,1.02234
-1.83258,1.02234
-1.84021,1.02081
-1.84326,1.01929
-1.84784,1.02234
-1.85089,1.02234
-1.85394,1.02234
-1.86005,1.02234
-1.86462,1.02386
-1.86768,1.02234
-1.87378,1.02692
-1.87836,1.02692
-1.88141,1.02539
-1.88904,1.02386
-1.89362,1.02692
-1.90125,1.02692
-1.90277,1.02539
-1.91345,1.02386
-1.91956,1.02386
-1.92413,1.02997
-1.92719,1.02844
-1.93634,1.02692
-1.93939,1.02539
-1.9455,1.02692
-1.95007,1.02997
-1.95465,1.03302
-1.95923,1.02997
-1.96991,1.02692
-1.97449,1.02692
-1.97906,1.02997
-1.98517,1.03455
-1.98822,1.03302
-1.9989,1.02844
-2.005,1.02997
-2.00806,1.03455
-2.01111,1.03455
-2.01569,1.0376
-2.01874,1.02997
-2.02942,1.03455
-2.03094,1.03607
-2.03705,1.0376
-2.03857,1.0376
-2.0401,1.03607
-2.0462,1.03455
-2.05231,1.03912
-2.05841,1.04065
-2.06604,1.0376
-2.06757,1.03607
-2.07367,1.03455
-2.07367,1.03912
-2.07825,1.03912
-2.07977,1.04065
-2.08893,1.0376
-2.09045,1.03912
-2.09503,1.03912
-2.09656,1.04065
-2.10114,1.04065
-2.10724,1.0376
-2.11029,1.0376
-2.11182,1.04218
-2.11639,1.0437
-2.11945,1.0437
-2.12555,1.04065
-2.12708,1.04065
-2.13165,1.0437
-2.13776,1.0437
-2.14081,1.0437
-2.14386,1.04218
-2.15149,1.04218
-2.15149,1.0437
-2.15912,1.04828
-2.16217,1.04675
-2.16675,1.04065
-2.1698,1.0437
-2.17285,1.04523
-2.17743,1.04828
-2.17896,1.04675
-2.18353,1.0437
-2.19269,1.04675
-2.19421,1.04675
-2.19727,1.04828
-2.20184,1.0498
-2.20795,1.04523
-2.21405,1.04675
-2.2171,1.05133
-2.21863,1.05133
-2.22473,1.0498
-2.22778,1.04828
-2.23236,1.04675
-2.23694,1.05133
-2.24152,1.05133
-2.24609,1.05286
-2.24762,1.04828
-2.25525,1.04828
-2.2583,1.05286
-2.26135,1.05438
-2.26593,1.05133
-2.27051,1.04828
-2.27509,1.0498
-2.28577,1.05438
-2.28424,1.05438
-2.28882,1.05438
-2.29492,1.05133
-2.29645,1.05286
-2.30103,1.05591
-2.30713,1.05286
-2.31323,1.05438
-2.31934,1.05133
-2.32391,1.05591
-2.32697,1.05591
-2.33459,1.05743
-2.33765,1.05591
-2.34222,1.05438
-2.34833,1.05591
-2.35138,1.05438
-2.35596,1.05743
-2.36053,1.05591
-2.36816,1.05438
-2.37274,1.05743
-2.37885,1.05896
-2.38647,1.05896
-2.39105,1.05896
-2.39258,1.05591
-2.40021,1.05438
-2.40479,1.05743
-2.40936,1.06354
-2.41241,1.06201
-2.41852,1.05743
-2.4231,1.05743
-2.42767,1.06354
-2.43225,1.06201
-2.43683,1.05896
-2.44446,1.05591
-2.44598,1.06201
-2.45209,1.05896
-2.45667,1.06201
-2.46124,1.06201
-2.47192,1.06201
-2.47498,1.05896
-2.48108,1.06201
-2.48566,1.06201
-2.48871,1.06506
-2.49023,1.05896
-2.49481,1.06201
-2.49939,1.06201
-2.49481,1.06659
-2.49939,1.06354
-2.49481,1.05743
-2.48871,1.06354
-2.48566,1.06506
-2.4765,1.06659
-2.46735,1.06201
-2.45056,1.06201
-2.43683,1.06354
-2.41394,1.06506
-2.39716,1.06812
-2.37885,1.06506
-2.35443,1.06201
-2.33459,1.06506
-2.31476,1.06659
-2.29034,1.06659
-2.26898,1.06506
-2.24304,1.06506
-2.22473,1.06201
-2.20184,1.06506
-2.17743,1.06812
-2.15912,1.06201
-2.13928,1.06354
-2.12097,1.06659
-2.10114,1.06354
-2.08282,1.06354
-2.06757,1.06506
-2.04926,1.06201
-2.03552,1.06659
-2.02179,1.06659
-2.00653,1.06659
-1.99432,1.06812
-1.98212,1.06354
-1.96838,1.06354
-1.95618,1.06659
-1.9455,1.06812
-1.94092,1.06812
-1.93481,1.06201
-1.92719,1.06659
-1.91956,1.06354
-1.91498,1.06812
-1.9104,1.06659
-1.90887,1.06506
-1.9043,1.06354
-1.9043,1.06506
-1.89972,1.06659
-1.89362,1.06812
-1.89209,1.06201
-1.89056,1.06506
-1.88904,1.06659
-1.89362,1.06964
-1.88904,1.06506
-1.88904,1.06354
-1.89209,1.06506
-1.89209,1.06506
-1.89972,1.06812
-1.90125,1.06659
-1.89819,1.06354
-1.90125,1.06506
-1.89972,1.06659
-1.89819,1.06812
-1.90125,1.06659
-1.89819,1.06354
-1.90125,1.06659
-1.90125,1.06964
-1.90277,1.06812
-1.90277,1.06354
-1.90582,1.06506
-1.90582,1.06659
-1.9104,1.06964
-1.9104,1.06812
-1.91193,1.06659
-1.91803,1.06506
-1.9165,1.06812
-1.91956,1.06964
-1.92261,1.06659
-1.92566,1.06659
-1.92719,1.06506
-1.93176,1.06506
-1.93329,1.06354
-1.93634,1.06812
-1.93634,1.06354
-1.94092,1.06201
-1.94092,1.06659
-1.94855,1.06354
-1.9455,1.06659
-1.94855,1.06506
-1.95007,1.06201
-1.95313,1.06354
-1.95313,1.06506
-1.95465,1.06659
-1.95618,1.06659
-1.95618,1.06201
-1.9577,1.06354
-1.96533,1.06506
-1.96228,1.06812
-1.96381,1.06659
-1.96533,1.06201
-1.96533,1.06354
-1.96381,1.06659
-1.96533,1.06812
-1.96686,1.06506
-1.96533,1.06354
-1.96533,1.06201
-1.96686,1.06354
-1.96381,1.06812
-1.96533,1.06506
-1.96686,1.06354
-1.96838,1.06506
-1.96686,1.06506
-1.96991,1.06812
-1.97296,1.06354
-1.97296,1.05896
-1.97144,1.05896
-1.97449,1.06354
-1.97601,1.06659
-1.97754,1.06354
-1.98059,1.05896
-1.98212,1.06354
-1.98669,1.06201
-1.98669,1.06354
-1.98975,1.06659
-1.9928,1.05896
-1.99585,1.06354
-2.00043,1.06354
-1.99738,1.06506
-2.005,1.06201
-2.00806,1.06201
-2.01111,1.06201
-2.01416,1.06354
-2.01721,1.06506
-2.02026,1.05896
-2.02637,1.05896
-2.034,1.05743
-2.03552,1.06201
-2.03705,1.06506
-2.04315,1.06201
-2.04773,1.05591
-2.05688,1.05743
-2.05383,1.06201
-2.05994,1.05896
-2.06604,1.05896
-2.07214,1.05743
-2.07825,1.05591
-2.07977,1.05743
-2.08893,1.06201
-2.09198,1.05591
-2.09808,1.05591
-2.10571,1.05743
-2.10876,1.06354
-2.11334,1.06201
-2.12097,1.05591
-2.12708,1.05743
-2.13013,1.05896
-2.13776,1.05743
-2.13776,1.05743
-2.14539,1.05896
-2.15149,1.05438
-2.15454,1.05896
-2.16064,1.05896
-2.16522,1.06354
-2.1698,1.05743
-2.17438,1.05591
-2.17743,1.05438
-2.18506,1.05438
-2.18964,1.05896
-2.19421,1.05743
-2.20184,1.05743
-2.20642,1.05438
-2.211,1.05743
-2.21558,1.05896
-2.2171,1.05591
-2.22015,1.05591
-2.22473,1.05133
-2.23083,1.05743
-2.23236,1.05591
-2.23846,1.05591
-2.23999,1.0498
-2.24915,1.05286
-2.25067,1.05438
-2.2522,1.05743
-2.25677,1.05438
-2.26135,1.05133
-2.26135,1.05286
-2.26746,1.05591
-2.26898,1.05438
-2.27814,1.05286
-2.27966,1.05286
-2.28424,1.05133
-2.28729,1.05133
-2.29187,1.05286
-2.29645,1.05286
-2.30103,1.05133
-2.30408,1.0498
-2.31018,1.05286
-2.31323,1.05591
-2.31628,1.05133
-2.32391,1.04828
-2.32697,1.05133
-2.33002,1.0498
-2.33459,1.05133
-2.33765,1.04828
-2.34222,1.04523
-2.3468,1.05133
-2.35138,1.05133
-2.35596,1.04828
-2.35596,1.05133
-2.36359,1.04675
-2.36511,1.0498
-2.36969,1.04828
-2.37427,1.05286
-2.37732,1.0498
-2.38037,1.04675
-2.38495,1.04828
-2.38953,1.04828
-2.39258,1.04828
-2.39258,1.04675
-2.39868,1.04523
-2.40479,1.04523
-2.40631,1.04523
-2.41089,1.0498
-2.41547,1.04828
-2.42004,1.04523
-2.42157,1.04523
-2.42767,1.04828
-2.4292,1.04828
-2.43683,1.04523
-2.43835,1.04523
-2.44598,1.0437
-2.44904,1.04523
-2.44751,1.04675
-2.45361,1.0437
-2.45972,1.0437
-2.46124,1.0437
-2.46735,1.04218
-2.4704,1.04523
-2.47498,1.0437
-2.47955,1.04218
-2.48566,1.0437
-2.49023,1.0437
-2.49176,1.0437
-2.49939,1.04218
-2.50092,1.0437
-2.50397,1.04065
-2.51007,1.0437
-2.51465,1.04675
-2.51923,1.0437
-2.5238,1.03912
-2.52838,1.04218
-2.53448,1.04065
-2.54059,1.04218
-2.54517,1.04218
-2.54974,1.0376
-2.55585,1.04065
-2.55585,1.04218
-2.565,1.0437
-2.56958,1.04218
-2.57416,1.03912
-2.58026,1.03455
-2.58484,1.03607
-2.58484,1.0437
-2.59552,1.04065
-2.59857,1.03455
-2.6001,1.03912
-2.60162,1.03912
-2.60315,1.03912
-2.60315,1.0376
-2.6062,1.03607
-2.59857,1.0376
-2.59399,1.03912
-2.58789,1.04065
-2.57721,1.03912
-2.56805,1.03455
-2.5528,1.03607
-2.54059,1.03912
-2.51617,1.03912
-2.50244,1.0376
-2.48108,1.03302
-2.46124,1.03607
-2.44293,1.03455
-2.4231,1.0376
-2.40021,1.03607
-2.37885,1.02997
-2.35901,1.03302
-2.33765,1.03607
-2.31476,1.03607
-2.29492,1.03455
-2.27356,1.02844
-2.25525,1.03302
-2.23541,1.02997
-2.21863,1.03455
-2.20032,1.03302
-2.18048,1.02692
-2.16827,1.02997
-2.15149,1.03455
-2.13776,1.02997
-2.12402,1.02844
-2.11029,1.02997
-2.09961,1.02997
-2.09198,1.03302
-2.07825,1.03302
-2.07214,1.02997
-2.06604,1.02844
-2.05841,1.02692
-2.05231,1.02997
-2.04773,1.03455
-2.04468,1.02844
-2.0401,1.02692
-2.0401,1.02692
-2.03705,1.02997
-2.03705,1.02997
-2.03094,1.02844
-2.03552,1.02386
-2.02942,1.02844
-2.02942,1.02844
-2.02789,1.02997
-2.02942,1.02692
-2.03094,1.02539
-2.02789,1.02692
-2.03247,1.02692
-2.03094,1.03302
-2.02942,1.02539
-2.034,1.02386
-2.034,1.02386
-2.034,1.02539
-2.03705,1.02997
-2.0401,1.02539
-2.04468,1.02386
-2.04163,1.02386
-2.04315,1.02539
-2.0462,1.02692
-2.04773,1.02386
-2.05231,1.02081
-2.05231,1.02081
-2.05688,1.02386
-2.06299,1.02539
-2.06604,1.02539
-2.06757,1.02081
-2.07214,1.02539
-2.07367,1.02386
-2.0752,1.02539
-2.07977,1.02386
-2.08435,1.02386
-2.08893,1.02081
-2.09503,1.02081
-2.09503,1.02234
-2.09808,1.02081
-2.10266,1.02234
-2.10419,1.01929
-2.10571,1.02234
-2.10571,1.02386
-2.10724,1.01929
-2.11029,1.01776
-2.11182,1.01929
-2.11334,1.01929
-2.11487,1.01929
-2.11487,1.01776
-2.11945,1.01624
-2.12097,1.01624
-2.11487,1.02081
-2.11639,1.02081
-2.11334,1.01776
-2.11334,1.01624
-2.11639,1.01624
-2.11182,1.01929
-2.11029,1.02081
-2.10876,1.01929
-2.10571,1.01624
-2.10724,1.01776
-2.10266,1.01624
-2.10419,1.01929
-2.10419,1.01929
-2.10419,1.01318
-2.09961,1.01624
-2.09656,1.01624
-2.09808,1.01929
-2.09503,1.01776
-2.09503,1.01471
-2.09503,1.01471
-2.09503,1.01624
-2.09198,1.01776
-2.09503,1.01471
-2.09656,1.01318
-2.09503,1.01318
-2.09656,1.01624
-2.09808,1.01624
-2.09808,1.01318
-2.10266,1.01013
-2.10266,1.01166
-2.10419,1.01624
-2.11029,1.01471
-2.11182,1.01318
-2.11639,1.01013
-2.11945,1.01013
-2.12402,1.01471
-2.1286,1.01013
-2.13165,1.01471
-2.13318,1.01013
-2.14081,1.01166
-2.14386,1.01318
-2.15149,1.01471
-2.15302,1.01013
-2.15759,1.00861
-2.16217,1.01013
-2.16675,1.01318
-2.17133,1.01318
-2.1759,1.01013
-2.17896,1.01013
-2.18658,1.01013
-2.18811,1.01166
-2.19574,1.01013
-2.20032,1.00861
-2.20642,1.00861
-2.211,1.00861
-2.21863,1.01013
-2.22321,1.01013
-2.22626,1.01013
-2.23389,1.00708
-2.23846,1.00708
-2.24304,1.00555
-2.25067,1.01013
-2.25525,1.00708
-2.26288,1.00708
-2.26746,1.00555
-2.27203,1.00861
-2.27966,1.01013
-2.28271,1.00861
-2.29187,1.00555
-2.29492,1.00555
-2.29797,1.00861
-2.30255,1.00861
-2.31018,1.00708
-2.31171,1.00098
-2.31934,1.00403
-2.32391,1.00555
-2.32697,1.00861
-2.33154,1.00708
-2.3407,1.00403
-2.34222,1.00708
-2.3468,1.00708
-2.34985,1.00708
-2.35443,1.00708
-2.35748,1.00098
-2.36359,1.00555
-2.36511,1.00403
-2.36969,1.00708
-2.37579,1.00098
-2.3819,1.00098
-2.38647,1.00098
-2.38647,1.00403
-2.39258,1.00708
-2.39258,1.00403
-2.39716,0.997925
-2.40173,1.00403
-2.40784,1.00403
-2.40936,1.00555
-2.41241,0.999451
-2.41699,1.00403
-2.42157,0.999451
-2.42157,1.00555
-2.42462,1.00555
-2.42767,1.00098
-2.43073,0.997925
-2.4353,1.00098
-2.43835,1.00403
-2.44141,1.00555
-2.44446,1.00403
-2.44751,1.00098
-2.45056,1.00098
-2.45361,0.999451
-2.45667,1.00555
-2.45972,0.999451
-2.46277,0.999451
-2.46735,0.999451
-2.47192,1.00403
-2.47498,1.00098
-2.47498,1.00555
-2.4826,0.996399
-2.48871,0.999451
-2.49176,0.997925
-2.49939,0.999451
-2.49939,0.999451
-2.50397,0.997925
-2.5116,0.997925
-2.51465,0.999451
-2.51617,1.00098
-2.5238,0.999451
-2.52686,0.994873
-2.52838,0.996399
-2.53601,0.997925
-2.54211,0.999451
-2.54211,0.999451
-2.5528,0.993347
-2.55432,0.999451
-2.5589,0.996399
-2.56805,0.999451
-2.57416,0.999451
-2.57568,0.993347
-2.58179,0.993347
-2.58484,0.999451
-2.59094,1.00098
-2.59857,0.996399
-2.60468,0.994873
-2.60773,0.997925
-2.61383,0.997925
-2.61536,0.996399
-2.61841,0.996399
-2.61841,0.994873
-2.61993,0.993347
-2.61688,0.996399
-2.61688,0.999451
-2.6062,0.997925
-2.59705,0.994873
-2.58331,0.993347
-2.56958,0.994873
-2.55737,0.997925
-2.53754,0.997925
-2.5177,0.991821
-2.49176,0.991821
-2.4704,0.993347
-2.44446,0.996399
-2.42004,0.996399
-2.39563,0.993347
-2.37579,0.994873
-2.34528,0.993347
-2.32086,0.996399
-2.29797,0.991821
-2.27051,0.994873
-2.2522,0.991821
-2.22626,0.993347
-2.20032,0.994873
-2.18353,0.993347
-2.15912,0.990295
-2.13623,0.993347
-2.11334,0.993347
-2.09808,0.993347
-2.07977,0.991821
-2.06146,0.991821
-2.04468,0.990295
-2.03094,0.994873
-2.01416,0.996399
-2.00043,0.991821
-1.98669,0.991821
-1.97449,0.98877
-1.96533,0.993347
-1.95007,0.991821
-1.94397,0.991821
-1.93481,0.98877
-1.92413,0.987244
-1.91498,0.990295
-1.9104,0.991821
-1.9043,0.991821
-1.90125,0.990295
-1.89362,0.990295
-1.88904,0.991821
-1.88599,0.991821
-1.88293,0.98877
-1.87988,0.990295
-1.87836,0.990295
-1.87683,0.990295
-1.87378,0.991821
-1.87225,0.991821
-1.87225,0.987244
-1.87225,0.98877
-1.87225,0.990295
-1.8692,0.990295
-1.87073,0.98877
-1.8692,0.98877
-1.86768,0.985718
-1.87073,0.990295
-1.87073,0.990295
-1.8692,0.98877
-1.86768,0.987244
-1.86768,0.98877
-1.8692,0.98877
-1.8692,0.990295
-1.87378,0.990295
-1.87378,0.98877
-1.87683,0.987244
-1.87836,0.991821
-1.87988,0.990295
-1.88141,0.98877
-1.88599,0.987244
-1.88751,0.985718
-1.89209,0.987244
-1.89056,0.990295
-1.89514,0.990295
-1.89972,0.985718
-1.89972,0.987244
-1.90582,0.990295
-1.90582,0.987244
-1.90735,0.98877
-1.9104,0.984192
-1.91498,0.984192
-1.91193,0.98877
-1.91345,0.98877
-1.91498,0.990295
-1.9165,0.984192
-1.9165,0.984192
-1.91498,0.985718
-1.91498,0.98877
-1.91193,0.985718
-1.91345,0.985718
-1.91193,0.985718
-1.91193,0.985718
-1.90887,0.98877
-1.90582,0.98877
-1.90125,0.984192
-1.90277,0.984192
-1.89819,0.985718
-1.89362,0.987244
-1.89362,0.987244
-1.88904,0.984192
-1.88904,0.984192
-1.88599,0.984192
-1.88446,0.987244
-1.88293,0.987244
-1.87988,0.982666
-1.88141,0.984192
-1.87988,0.987244
-1.87836,0.98877
-1.87836,0.984192
-1.87836,0.982666
-1.87988,0.984192
-1.87988,0.985718
-1.87836,0.987244
-1.88141,0.984192
-1.88293,0.982666
-1.88141,0.98114
-1.88446,0.985718
-1.88904,0.984192
-1.89209,0.985718
-1.89514,0.982666
-1.89819,0.98114
-1.90277,0.985718
-1.90887,0.98877
-1.91193,0.985718
-1.9165,0.979614
-1.91956,0.984192
-1.92108,0.985718
-1.93024,0.987244
-1.93024,0.987244
-1.93634,0.982666
-1.94092,0.984192
-1.9455,0.984192
-1.9455,0.982666
-1.95313,0.987244
-1.95465,0.982666
-1.96228,0.98114
-1.96686,0.982666
-1.96991,0.984192
-1.97296,0.984192
-1.98059,0.98114
-1.98517,0.979614
-1.9928,0.984192
-1.99738,0.985718
-2.00043,0.982666
-2.00806,0.982666
-2.01111,0.982666
-2.01569,0.985718
-2.02179,0.982666
-2.02637,0.984192
-2.034,0.982666
-2.03857,0.98114
-2.04773,0.984192
-2.05231,0.984192
-2.05841,0.982666
-2.06451,0.978088
-2.06909,0.98114
-2.07672,0.98114
-2.07977,0.982666
-2.08893,0.98114
-2.09656,0.979614
-2.09656,0.979614
-2.10266,0.984192
-2.11029,0.982666
-2.11487,0.982666
-2.12097,0.979614
-2.12708,0.978088
-2.13013,0.982666
-2.13623,0.982666
-2.14233,0.98114
-2.14539,0.979614
-2.15607,0.979614
-2.16217,0.982666
-2.16675,0.984192
-2.17285,0.979614
-2.17743,0.978088
-2.18048,0.979614
-2.19269,0.982666
-2.19421,0.98114
-2.19727,0.98114
-2.2049,0.978088
-2.211,0.973511
-2.21405,0.979614
-2.21558,0.98114
-2.22015,0.982666
-2.22321,0.978088
-2.23083,0.979614
-2.22931,0.979614
-2.23694,0.982666
-2.24304,0.98114
-2.24609,0.976563
-2.24762,0.979614
-2.2522,0.982666
-2.2583,0.979614
-2.25983,0.98114
-2.26593,0.971985
-2.27203,0.978088
-2.27356,0.98114
-2.27814,0.98114
-2.28577,0.976563
-2.28882,0.978088
-2.28882,0.978088
-2.29645,0.979614
-2.29645,0.98114
-2.2995,0.979614
-2.3056,0.978088
-2.31171,0.978088
-2.31476,0.982666
-2.31781,0.98114
-2.32697,0.982666
-2.32849,0.976563
-2.33307,0.976563
-2.33459,0.98114
-2.34222,0.979614
-2.34833,0.98114
-2.35138,0.973511
-2.35443,0.976563
-2.35748,0.979614
-2.36206,0.982666
-2.36359,0.979614
-2.37427,0.978088
-2.37732,0.971985
-2.3819,0.979614
-2.38495,0.98114
-2.38647,0.978088
-2.39258,0.973511
-2.40021,0.976563
-2.40173,0.979614
-2.40784,0.98114
-2.41394,0.98114
-2.41699,0.978088
-2.42615,0.976563
-2.4292,0.979614
-2.4292,0.982666
-2.43683,0.979614
-2.44141,0.976563
-2.44598,0.976563
-2.44904,0.978088
-2.45361,0.98114
-2.45819,0.979614
-2.46277,0.978088
-2.4704,0.976563
-2.47498,0.98114
-2.47345,0.976563
-2.4765,0.979614
-2.47803,0.978088
-2.47498,0.976563
-2.47192,0.976563
-2.46124,0.979614
-2.45361,0.978088
-2.43988,0.976563
-2.4231,0.976563
-2.40479,0.978088
-2.38495,0.98114
-2.35901,0.979614
-2.33307,0.973511
-2.31171,0.976563
-2.28271,0.976563
-2.25067,0.98114
-2.22626,0.98114
-2.20184,0.973511
-2.17438,0.971985
-2.14539,0.978088
-2.11639,0.973511
-2.09045,0.978088
-2.06604,0.976563
-2.0401,0.971985
-2.01569,0.978088
-1.98975,0.979614
-1.96686,0.979614
-1.93939,0.973511
-1.91956,0.971985
-1.89362,0.979614
-1.87225,0.978088
-1.85089,0.976563
-1.83105,0.976563
-1.8158,0.973511
-1.79596,0.978088
-1.78223,0.978088
-1.76392,0.973511
-1.75171,0.973511
-1.7334,0.978088
-1.72424,0.976563
-1.71356,0.976563
-1.70288,0.973511
-1.6922,0.976563
-1.6861,0.971985
-1.67694,0.978088
-1.66779,0.979614
-1.66168,0.971985
-1.65863,0.971985
-1.65253,0.971985
-1.64795,0.976563
-1.64185,0.973511
-1.63879,0.979614
-1.63422,0.973511
-1.63116,0.970459
-1.62964,0.971985
-1.62811,0.976563
-1.62659,0.973511
-1.62506,0.970459
-1.62659,0.970459
-1.62659,0.978088
-1.62659,0.976563
-1.62659,0.971985
-1.62354,0.970459
-1.62659,0.971985
-1.62659,0.976563
-1.62659,0.976563
-1.62811,0.973511
-1.62964,0.971985
-1.62964,0.971985
-1.63269,0.976563
-1.63269,0.976563
-1.63574,0.971985
-1.64032,0.970459
-1.64185,0.968933
-1.64795,0.971985
-1.65253,0.973511
-1.65405,0.973511
-1.65863,0.970459
-1.65863,0.970459
-1.66321,0.971985
-1.66779,0.971985
-1.67084,0.973511
-1.67236,0.970459
-1.67847,0.970459
-1.68152,0.973511
-1.68152,0.976563
-1.68457,0.973511
-1.68762,0.965881
-1.68762,0.967407
-1.69067,0.970459
-1.69373,0.973511
-1.6922,0.971985
-1.69525,0.970459
-1.69525,0.970459
-1.69525,0.970459
-1.69373,0.973511
-1.69525,0.973511
-1.6922,0.968933
-1.69067,0.968933
-1.68915,0.970459
-1.68762,0.971985
-1.68915,0.970459
-1.68457,0.967407
-1.68152,0.965881
-1.68152,0.967407
-1.68152,0.971985
-1.67847,0.971985
-1.68152,0.965881
-1.67847,0.964355
-1.67999,0.970459
-1.67694,0.971985
-1.67694,0.968933
-1.67694,0.967407
-1.67847,0.968933
-1.67389,0.971985
-1.67389,0.970459
-1.67694,0.970459
-1.67694,0.965881
-1.67389,0.967407
-1.67847,0.971985
-1.67999,0.973511
-1.68304,0.970459
-1.68762,0.967407
-1.69067,0.964355
-1.69373,0.968933
-1.69525,0.971985
-1.69678,0.970459
-1.70288,0.967407
-1.70898,0.967407
-1.71051,0.967407
-1.71509,0.970459
-1.71661,0.967407
-1.72272,0.967407
-1.73035,0.967407
-1.73187,0.968933
-1.73645,0.967407
-1.74255,0.967407
-1.74713,0.967407
-1.75171,0.967407
-1.75781,0.970459
-1.76544,0.968933
-1.76849,0.968933
-1.77612,0.964355
-1.7807,0.965881
-1.78833,0.970459
-1.79596,0.968933
-1.79749,0.968933
-1.80054,0.964355
-1.81427,0.965881
-1.81732,0.967407
-1.82343,0.968933
-1.82495,0.968933
-1.83105,0.967407
-1.84174,0.965881
-1.84631,0.968933
-1.85089,0.968933
-1.85547,0.967407
-1.85699,0.964355
-1.86768,0.965881
-1.87073,0.965881
-1.87683,0.968933
-1.88141,0.968933
-1.88904,0.967407
-1.89209,0.965881
-1.89972,0.968933
-1.9043,0.970459
-1.90735,0.967407
-1.91345,0.965881
-1.91956,0.965881
-1.92566,0.965881
-1.93024,0.967407
-1.93787,0.967407
-1.94397,0.964355
-1.95007,0.965881
-1.95007,0.965881
-1.9577,0.968933
-1.96381,0.968933
-1.96991,0.96283
-1.97449,0.965881
-1.97906,0.965881
-1.98059,0.968933
-1.98517,0.970459
-1.99738,0.96283
-1.99738,0.96283
-2.00348,0.964355
-2.00653,0.964355
-2.00806,0.964355
-2.01569,0.964355
-2.01874,0.964355
-2.02484,0.965881
-2.02789,0.968933
-2.03094,0.965881
-2.03705,0.96283
-2.0401,0.967407
-2.0462,0.965881
-2.05231,0.967407
-2.05688,0.964355
-2.06146,0.96283
-2.06604,0.96283
-2.06909,0.96283
-2.0752,0.965881
-2.07825,0.964355
-2.08282,0.96283
-2.08588,0.961304
-2.09045,0.964355
-2.09503,0.965881
-2.09961,0.965881
-2.10571,0.959778
-2.10724,0.964355
-2.11029,0.961304
-2.11182,0.96283
-2.11945,0.96283
-2.12402,0.959778
-2.12402,0.961304
-2.13165,0.964355
-2.1347,0.964355
-2.13776,0.964355
-2.14386,0.961304
-2.14691,0.961304
-2.15302,0.961304
-2.15912,0.964355
-2.1637,0.96283
-2.17133,0.96283
-2.17743,0.959778
-2.18353,0.959778
-2.18964,0.964355
-2.19574,0.961304
-2.20184,0.961304
-2.20795,0.96283
-2.20947,0.965881
-2.22015,0.96283
-2.22015,0.96283
-2.22168,0.961304
-2.22626,0.961304
-2.22473,0.961304
-2.22168,0.964355
-2.22168,0.961304
-2.21405,0.961304
-2.2049,0.958252
-2.19269,0.964355
-2.17285,0.96283
-2.15912,0.958252
-2.13623,0.959778
-2.11487,0.958252
-2.09198,0.959778
-2.06757,0.964355
-2.03705,0.96283
-2.01721,0.956726
-1.98822,0.959778
-1.95923,0.959778
-1.93634,0.961304
-1.90735,0.961304
-1.88141,0.956726
-1.85547,0.961304
-1.82953,0.961304
-1.80511,0.96283
-1.77612,0.959778
-1.75171,0.959778
-1.72424,0.956726
-1.69983,0.958252
-1.67999,0.961304
-1.65558,0.961304
-1.63116,0.958252
-1.61133,0.958252
-1.59302,0.958252
-1.57318,0.96283
-1.5564,0.961304
-1.54114,0.956726
-1.52435,0.958252
-1.50909,0.959778
-1.49841,0.961304
-1.48315,0.959778
-1.474,0.958252
-1.4679,0.956726
-1.45874,0.959778
-1.45111,0.959778
-1.44196,0.9552
-1.44043,0.9552
-1.43433,0.953674
-1.43127,0.959778
-1.42517,0.961304
-1.42517,0.959778
-1.42212,0.958252
-1.42212,0.956726
-1.42212,0.956726
-1.42212,0.958252
-1.42212,0.958252
-1.42517,0.953674
-1.4267,0.956726
-1.42822,0.959778
-1.4328,0.959778
-1.43433,0.956726
-1.43585,0.953674
-1.4389,0.952148
-1.44043,0.958252
-1.44043,0.961304
-1.44653,0.9552
-1.45264,0.953674
-1.45721,0.956726
-1.46179,0.956726
-1.46637,0.956726
-1.46942,0.9552
-1.47705,0.9552
-1.48163,0.9552
-1.49078,0.9552
-1.49384,0.959778
-1.50146,0.956726
-1.50757,0.9552
-1.51367,0.953674
-1.5152,0.956726
-1.52435,0.956726
-1.5274,0.9552
-1.53351,0.953674
-1.53809,0.953674
-1.54419,0.958252
-1.54419,0.956726
-1.54572,0.9552
-1.55029,0.952148
-1.55334,0.953674
-1.5564,0.9552
-1.55487,0.952148
-1.55945,0.953674
-1.5564,0.953674
-1.56097,0.950623
-1.56097,0.9552
-1.55945,0.956726
-1.55945,0.9552
-1.55792,0.950623
-1.55487,0.953674
-1.55487,0.9552
-1.55334,0.956726
-1.55182,0.953674
-1.55182,0.953674
-1.55334,0.953674
-1.55182,0.9552
-1.54572,0.9552
-1.55182,0.956726
-1.55182,0.952148
-1.54724,0.953674
-1.55182,0.953674
-1.54724,0.9552
-1.55029,0.953674
-1.55029,0.952148
-1.55182,0.952148
-1.55334,0.956726
-1.55334,0.956726
-1.55487,0.953674
-1.55792,0.953674
-1.55945,0.950623
-1.56403,0.953674
-1.5686,0.9552
-1.5686,0.953674
-1.57318,0.949097
-1.57776,0.952148
-1.58234,0.9552
-1.58539,0.953674
-1.58844,0.953674
-1.59454,0.950623
-1.60065,0.949097
-1.6037,0.952148
-1.6098,0.953674
-1.61591,0.949097
-1.62201,0.950623
-1.62811,0.950623
-1.63574,0.953674
-1.64032,0.9552
-1.651,0.952148
-1.65863,0.952148
-1.66016,0.950623
-1.66779,0.953674
-1.67389,0.9552
-1.68152,0.952148
-1.69067,0.952148
-1.69678,0.947571
-1.70441,0.950623
-1.71356,0.958252
-1.72119,0.950623
-1.72729,0.947571
-1.73492,0.949097
-1.74561,0.950623
-1.75323,0.953674
-1.76239,0.950623
-1.77155,0.949097
-1.7807,0.947571
-1.78528,0.952148
-1.79138,0.953674
-1.80511,0.950623
-1.80817,0.947571
-1.81274,0.952148
-1.82495,0.952148
-1.828,0.953674
-1.83563,0.952148
-1.84631,0.947571
-1.85394,0.950623
-1.86157,0.952148
-1.8692,0.953674
-1.87378,0.952148
-1.88293,0.944519
-1.89056,0.949097
-1.89514,0.950623
-1.90582,0.952148
-1.91345,0.950623
-1.91956,0.949097
-1.92413,0.952148
-1.93329,0.950623
-1.93481,0.950623
-1.94397,0.950623
-1.9516,0.947571
-1.95618,0.947571
-1.96381,0.949097
-1.97144,0.950623
-1.97754,0.950623
-1.98212,0.949097
-1.98822,0.949097
-1.99585,0.950623
-1.9989,0.950623
-2.00195,0.950623
-2.01111,0.949097
-2.01416,0.949097
-2.01874,0.949097
-2.02179,0.949097
-2.02942,0.949097
-2.03705,0.949097
-2.04163,0.944519
-2.04773,0.947571
-2.05078,0.950623
-2.05841,0.950623
-2.06299,0.944519
-2.06757,0.947571
-2.07062,0.950623
-2.07825,0.950623
-2.0813,0.949097
-2.09045,0.947571
-2.09503,0.947571
-2.09961,0.947571
-2.10114,0.949097
-2.10571,0.952148
-2.11334,0.944519
-2.11487,0.949097
-2.1225,0.949097
-2.12402,0.949097
-2.13318,0.947571
-2.13776,0.944519
-2.13928,0.942993
-2.14386,0.949097
-2.15454,0.952148
-2.15759,0.944519
-2.16217,0.942993
-2.16827,0.947571
-2.17133,0.944519
-2.17743,0.947571
-2.18048,0.944519
-2.18811,0.941467
-2.19421,0.944519
-2.19879,0.947571
-2.20795,0.947571
-2.21405,0.949097
-2.2171,0.942993
-2.22473,0.942993
-2.23083,0.947571
-2.23236,0.949097
-2.23999,0.949097
-2.24609,0.942993
-2.24915,0.944519
-2.25525,0.947571
-2.2583,0.949097
-2.26593,0.942993
-2.27051,0.942993
-2.27356,0.944519
-2.28119,0.942993
-2.28271,0.944519
-2.28119,0.944519
-2.28424,0.947571
-2.28119,0.944519
-2.27814,0.944519
-2.26593,0.949097
-2.25525,0.949097
-2.23694,0.942993
-2.22015,0.942993
-2.19727,0.944519
-2.17133,0.949097
-2.14386,0.947571
-2.11945,0.939941
-2.09198,0.944519
-2.05994,0.942993
-2.02942,0.944519
-1.9989,0.944519
-1.96991,0.942993
-1.93787,0.941467
-1.90735,0.944519
-1.87378,0.947571
-1.84326,0.942993
-1.81427,0.939941
-1.7868,0.939941
-1.75629,0.944519
-1.72729,0.944519
-1.69983,0.942993
-1.66779,0.939941
-1.64185,0.939941
-1.61743,0.941467
-1.58997,0.944519
-1.5625,0.942993
-1.53809,0.939941
-1.51672,0.938416
-1.49689,0.942993
-1.47247,0.944519
-1.45111,0.941467
-1.43738,0.939941
-1.41602,0.941467
-1.40076,0.941467
-1.39008,0.942993
-1.37787,0.944519
-1.36566,0.939941
-1.35498,0.942993
-1.3443,0.944519
-1.3382,0.944519
-1.32599,0.941467
-1.32294,0.938416
-1.32141,0.939941
-1.31683,0.938416
-1.31378,0.944519
-1.31073,0.939941
-1.3092,0.939941
-1.30768,0.938416
-1.30615,0.939941
-1.30615,0.942993
-1.3031,0.939941
-1.30615,0.938416
-1.30615,0.941467
-1.30768,0.942993
-1.30615,0.944519
-1.31226,0.944519
-1.31073,0.939941
-1.31378,0.941467
-1.31378,0.942993
-1.31683,0.942993
-1.32141,0.939941
-1.32141,0.93689
-1.32904,0.938416
-1.33209,0.938416
-1.33667,0.944519
-1.33972,0.942993
-1.34735,0.93689
-1.34888,0.938416
-1.35193,0.939941
-1.35651,0.941467
-1.36566,0.939941
-1.36871,0.938416
-1.36871,0.938416
-1.37939,0.938416
-1.37939,0.942993
-1.3855,0.938416
-1.39008,0.93689
-1.39465,0.938416
-1.39465,0.938416
-1.40076,0.939941
-1.39923,0.942993
-1.40533,0.938416
-1.40533,0.93689
-1.40991,0.939941
-1.41144,0.939941
-1.41144,0.941467
-1.41296,0.935364
-1.41296,0.93689
-1.41296,0.939941
-1.41296,0.939941
-1.41296,0.939941
-1.41296,0.939941
-1.41296,0.939941
-1.41144,0.939941
-1.41144,0.939941
-1.41144,0.938416
-1.41144,0.939941
-1.41602,0.93689
-1.40839,0.938416
-1.40839,0.941467
-1.41144,0.938416
-1.41144,0.938416
-1.41602,0.93689
-1.41449,0.93689
-1.41449,0.941467
-1.41449,0.939941
-1.41449,0.93689
-1.41754,0.938416
-1.42059,0.941467
-1.42059,0.941467
-1.42517,0.938416
-1.42517,0.93689
-1.42822,0.939941
-1.4328,0.93689
-1.43738,0.939941
-1.43738,0.939941
-1.44196,0.935364
-1.44501,0.935364
-1.44958,0.939941
-1.45874,0.939941
-1.45721,0.938416
-1.46332,0.935364
-1.46942,0.93689
-1.47247,0.939941
-1.4801,0.938416
-1.48773,0.938416
-1.49384,0.93689
-1.49841,0.933838
-1.50452,0.939941
-1.51215,0.938416
-1.5152,0.938416
-1.52588,0.933838
-1.53046,0.935364
-1.53656,0.93689
-1.54266,0.93689
-1.55182,0.935364
-1.55945,0.935364
-1.56555,0.933838
-1.57318,0.93689
-1.57928,0.93689
-1.58691,0.935364
-1.59607,0.935364
-1.60065,0.935364
-1.61133,0.938416
-1.61591,0.941467
-1.62811,0.938416
-1.63574,0.938416
-1.64185,0.933838
-1.651,0.93689
-1.6571,0.93689
-1.66473,0.935364
-1.67389,0.933838
-1.68152,0.935364
-1.69373,0.93689
-1.6983,0.938416
-1.70593,0.93689
-1.71509,0.93689
-1.72272,0.930786
-1.73035,0.938416
-1.74255,0.938416
-1.75018,0.935364
-1.75476,0.932312
-1.76392,0.933838
-1.77307,0.935364
-1.77917,0.933838
-1.78833,0.938416
-1.79749,0.930786
-1.80359,0.933838
-1.81274,0.93689
-1.8158,0.933838
-1.82343,0.93689
-1.83258,0.933838
-1.84021,0.935364
-1.84479,0.935364
-1.85089,0.938416
-1.85699,0.93689
-1.86157,0.933838
-1.8692,0.933838
-1.87531,0.935364
-1.87988,0.93689
-1.88293,0.933838
-1.88904,0.933838
-1.89056,0.933838
-1.89972,0.93689
-1.90582,0.93689
-1.90887,0.933838
-1.91345,0.932312
-1.91803,0.93689
-1.92566,0.935364
-1.93024,0.935364
-1.93481,0.935364
-1.94092,0.935364
-1.94397,0.932312
-1.94702,0.93689
-1.9577,0.938416
-1.95923,0.933838
-1.96838,0.933838
-1.97601,0.933838
-1.98059,0.935364
-1.98669,0.935364
-1.99738,0.933838
-2.00043,0.933838
-2.00806,0.935364
-2.01263,0.93689
-2.01721,0.938416
-2.02637,0.935364
-2.02942,0.930786
-2.03705,0.935364
-2.04163,0.935364
-2.05231,0.938416
-2.05688,0.935364
-2.06451,0.930786
-2.07214,0.933838
-2.0752,0.933838
-2.08282,0.93689
-2.09045,0.930786
-2.09808,0.932312
-2.10571,0.933838
-2.11334,0.935364
-2.11639,0.933838
-2.1225,0.935364
-2.13165,0.932312
-2.13928,0.932312
-2.14539,0.93689
-2.15149,0.933838
-2.15759,0.933838
-2.1637,0.927734
-2.17285,0.932312
-2.17438,0.933838
-2.18353,0.935364
-2.18964,0.932312
-2.19574,0.932312
-2.19879,0.930786
-2.20642,0.93689
-2.21405,0.935364
-2.22015,0.930786
-2.22626,0.930786
-2.22931,0.933838
-2.23694,0.933838
-2.24152,0.933838
-2.25067,0.933838
-2.25372,0.932312
-2.25983,0.932312
-2.26288,0.933838
-2.27051,0.933838
-2.28271,0.932312
-2.28729,0.92926
-2.28882,0.932312
-2.29645,0.935364
-2.2995,0.938416
-2.2995,0.930786
-2.2995,0.930786
-2.2934,0.932312
-2.28577,0.93689
-2.27509,0.932312
-2.25677,0.930786
-2.24152,0.932312
-2.21863,0.930786
-2.19574,0.92926
-2.1698,0.933838
-2.13623,0.932312
-2.11029,0.930786
-2.07977,0.932312
-2.0462,0.935364
-2.01111,0.935364
-1.98059,0.930786
-1.94702,0.92926
-1.91193,0.932312
-1.87683,0.932312
-1.84479,0.933838
-1.81274,0.935364
-1.77917,0.930786
-1.74561,0.930786
-1.71509,0.932312
-1.68457,0.932312
-1.65405,0.930786
-1.62659,0.92926
-1.59454,0.926208
-1.56555,0.930786
-1.53961,0.930786
-1.51062,0.933838
-1.48468,0.930786
-1.46179,0.930786
-1.4389,0.930786
-1.41754,0.92926
-1.39923,0.930786
-1.37787,0.927734
-1.35803,0.92926
-1.34735,0.933838
-1.33057,0.930786
-1.31989,0.932312
-1.30615,0.927734
-1.29547,0.930786
-1.28632,0.932312
-1.27716,0.935364
-1.26953,0.92926
-1.26343,0.927734
-1.2558,0.930786
-1.24969,0.932312
-1.24817,0.930786
-1.24512,0.92926
-1.24512,0.92926
-1.24359,0.927734
-1.24207,0.932312
-1.24359,0.930786
-1.24054,0.930786
-1.23901,0.926208
-1.24054,0.926208
-1.24359,0.927734
-1.24359,0.92926
-1.24359,0.930786
-1.24664,0.926208
-1.24969,0.926208
-1.2558,0.92926
-1.25275,0.930786
-1.25885,0.926208
-1.2619,0.924683
-1.26801,0.927734
-1.27106,0.930786
-1.27411,0.930786
-1.27869,0.927734
-1.28479,0.92926
-1.28784,0.926208
-1.29242,0.92926
-1.30005,0.930786
-1.30463,0.927734
-1.31073,0.924683
-1.31683,0.92926
-1.32141,0.92926
-1.32446,0.932312
-1.33057,0.927734
-1.33667,0.927734
-1.3382,0.92926
-1.34735,0.932312
-1.34735,0.933838
-1.3504,0.930786
-1.35345,0.924683
-1.35498,0.92926
-1.36261,0.927734
-1.36108,0.930786
-1.36414,0.92926
-1.36719,0.927734
-1.37024,0.926208
-1.37024,0.927734
-1.37024,0.927734
-1.37024,0.927734
-1.37024,0.924683
-1.36871,0.92926
-1.36566,0.930786
-1.36871,0.930786
-1.37024,0.92926
-1.36719,0.924683
-1.36871,0.930786
-1.36719,0.926208
-1.36719,0.92926
-1.36566,0.92926
-1.36719,0.927734
-1.36566,0.924683
-1.36566,0.927734
-1.36566,0.92926
-1.36719,0.927734
-1.36719,0.92926
-1.37024,0.927734
-1.37329,0.930786
-1.37329,0.930786
-1.37329,0.926208
-1.38092,0.924683
-1.38245,0.926208
-1.3855,0.930786
-1.39008,0.92926
-1.39618,0.926208
-1.39923,0.927734
-1.40381,0.92926
-1.40533,0.92926
-1.40991,0.927734
-1.41754,0.92926
-1.42059,0.924683
-1.42975,0.924683
-1.43585,0.927734
-1.44043,0.92926
-1.44806,0.927734
-1.45721,0.926208
-1.46484,0.926208
-1.46942,0.92926
-1.47552,0.92926
-1.48773,0.927734
-1.49231,0.924683
-1.50299,0.926208
-1.50757,0.927734
-1.5152,0.92926
-1.52588,0.926208
-1.52893,0.926208
-1.53656,0.924683
-1.54572,0.927734
-1.55792,0.92926
-1.56097,0.927734
-1.57166,0.927734
-1.57928,0.927734
-1.58997,0.927734
-1.59302,0.92926
-1.60522,0.924683
-1.61438,0.926208
-1.62048,0.930786
-1.63116,0.930786
-1.63574,0.930786
-1.64795,0.927734
-1.6571,0.924683
-1.66626,0.924683
-1.67389,0.927734
-1.6861,0.92926
-1.69373,0.926208
-1.70288,0.924683
-1.71356,0.926208
-1.72119,0.926208
-1.72577,0.927734
-1.73798,0.924683
-1.74561,0.926208
-1.75323,0.923157
-1.76086,0.926208
-1.76849,0.92926
-1.77917,0.926208
-1.7868,0.923157
-1.79291,0.924683
-1.79749,0.927734
-1.81122,0.92926
-1.8158,0.927734
-1.82495,0.924683
-1.83105,0.923157
-1.84021,0.927734
-1.84631,0.92926
-1.85242,0.927734
-1.85699,0.924683
-1.8631,0.923157
-1.87225,0.926208
-1.87836,0.92926
-1.88446,0.927734
-1.89056,0.927734
-1.89514,0.921631
-1.9043,0.926208
-1.90735,0.927734
-1.91345,0.927734
-1.92108,0.924683
-1.92413,0.923157
-1.93329,0.926208
-1.93634,0.927734
-1.94244,0.926208
-1.95007,0.926208
-1.95465,0.924683
-1.95618,0.92926
-1.96228,0.930786
-1.97144,0.926208
-1.97754,0.926208
-1.98364,0.924683
-1.98822,0.926208
-1.99585,0.92926
-2.00195,0.924683
-2.00653,0.926208
-2.01263,0.924683
-2.01569,0.924683
-2.01874,0.927734
-2.02484,0.926208
-2.02942,0.923157
-2.03552,0.921631
-2.0401,0.92926
-2.04315,0.927734
-2.05078,0.924683
-2.05841,0.926208
-2.06451,0.923157
-2.07062,0.92926
-2.07825,0.927734
-2.08282,0.927734
-2.09351,0.924683
-2.09961,0.924683
-2.10724,0.92926
-2.11182,0.927734
-2.11639,0.926208
-2.12555,0.924683
-2.13165,0.924683
-2.13776,0.92926
-2.14081,0.927734
-2.15149,0.926208
-2.15302,0.924683
-2.15912,0.924683
-2.16522,0.926208
-2.17285,0.927734
-2.18048,0.926208
-2.18658,0.927734
-2.19269,0.924683
-2.19727,0.926208
-2.2049,0.927734
-2.20947,0.924683
-2.2171,0.923157
-2.22473,0.924683
-2.23083,0.927734
-2.23846,0.924683
-2.24304,0.926208
-2.2522,0.926208
-2.2583,0.921631
-2.2644,0.927734
-2.26898,0.924683
-2.27356,0.924683
-2.27966,0.927734
-2.28271,0.924683
-2.28424,0.924683
-2.28119,0.927734
-2.27203,0.924683
-2.26593,0.924683
-2.2583,0.921631
-2.23846,0.923157
-2.22015,0.926208
-2.19879,0.924683
-2.17438,0.924683
-2.14539,0.921631
-2.11487,0.924683
-2.08282,0.924683
-2.05383,0.924683
-2.02484,0.924683
-1.98822,0.924683
-1.95923,0.924683
-1.92261,0.924683
-1.89209,0.923157
-1.85547,0.923157
-1.82648,0.923157
-1.79596,0.926208
-1.76239,0.926208
-1.73187,0.923157
-1.6983,0.926208
-1.66931,0.920105
-1.64185,0.926208
-1.61438,0.926208
-1.58386,0.924683
-1.55792,0.923157
-1.53046,0.923157
-1.50146,0.926208
-1.47705,0.926208
-1.46179,0.923157
-1.44196,0.921631
-1.41907,0.923157
-1.40228,0.926208
-1.3855,0.924683
-1.37024,0.921631
-1.35345,0.920105
-1.34277,0.923157
-1.33362,0.924683
-1.32141,0.927734
-1.31531,0.921631
-1.30463,0.923157
-1.30005,0.923157
-1.29089,0.923157
-1.28937,0.926208
-1.28479,0.924683
-1.28326,0.923157
-1.28021,0.921631
-1.28021,0.923157
-1.28021,0.926208
-1.28479,0.924683
-1.28326,0.924683
-1.28479,0.921631
-1.28632,0.924683
-1.28632,0.926208
-1.29089,0.924683
-1.29395,0.921631
-1.29852,0.921631
-1.29852,0.923157
-1.3031,0.92926
-1.31073,0.923157
-1.31531,0.923157
-1.31836,0.921631
-1.32446,0.924683
-1.33362,0.926208
-1.33972,0.923157
-1.34583,0.924683
-1.35498,0.921631
-1.36108,0.923157
-1.36719,0.926208
-1.37787,0.921631
-1.3855,0.920105
-1.38855,0.921631
-1.39923,0.921631
-1.40228,0.926208
-1.40991,0.923157
-1.41602,0.920105
-1.4267,0.921631
-1.42975,0.924683
-1.43433,0.924683
-1.43738,0.923157
-1.44196,0.921631
-1.44501,0.920105
-1.44653,0.920105
-1.45111,0.923157
-1.45111,0.924683
-1.45264,0.926208
-1.45874,0.918579
-1.45721,0.924683
-1.45721,0.923157
-1.45721,0.918579
-1.45569,0.921631
-1.46027,0.921631
-1.45569,0.923157
-1.45569,0.923157
-1.45721,0.921631
-1.45111,0.923157
-1.44958,0.920105
-1.44806,0.926208
-1.44653,0.923157
-1.44501,0.921631
-1.44501,0.923157
-1.44653,0.920105
-1.44501,0.923157
-1.44348,0.924683
-1.44501,0.920105
-1.44653,0.921631
-1.44806,0.918579
-1.44806,0.921631
-1.45264,0.920105
-1.45569,0.923157
-1.46027,0.921631
-1.46332,0.920105
-1.46637,0.923157
-1.46942,0.921631
-1.47095,0.921631
-1.47705,0.918579
-1.4801,0.921631
-1.48926,0.920105
-1.49384,0.920105
-1.50146,0.915527
-1.50299,0.918579
-1.51062,0.918579
-1.51978,0.921631
-1.52435,0.921631
-1.53046,0.923157
-1.53656,0.921631
-1.54572,0.920105
-1.55487,0.920105
-1.5625,0.923157
-1.56708,0.918579
-1.57776,0.921631
-1.58691,0.918579
-1.59607,0.920105
-1.60522,0.920105
-1.61438,0.920105
-1.62659,0.918579
-1.63574,0.918579
-1.64185,0.920105
-1.651,0.921631
-1.66016,0.920105
-1.66779,0.920105
-1.67694,0.921631
-1.68915,0.921631
-1.69525,0.918579
-1.70441,0.921631
-1.71509,0.915527
-1.72424,0.915527
-1.7334,0.918579
-1.73798,0.923157
-1.74713,0.918579
-1.75629,0.918579
-1.76544,0.921631
-1.7746,0.921631
-1.7868,0.920105
-1.79291,0.921631
-1.80054,0.921631
-1.80817,0.918579
-1.8158,0.920105
-1.82343,0.921631
-1.83258,0.921631
-1.83716,0.920105
-1.85089,0.918579
-1.85699,0.921631
-1.86462,0.923157
-1.87225,0.915527
-1.88293,0.920105
-1.89209,0.918579
-1.89362,0.918579
-1.9043,0.920105
-1.90887,0.920105
-1.91803,0.920105
-1.92261,0.921631
-1.92719,0.920105
-1.93634,0.921631
-1.94244,0.921631
-1.95007,0.920105
-1.95618,0.920105
-1.9577,0.921631
-1.96381,0.923157
-1.97144,0.921631
-1.97601,0.920105
-1.98212,0.915527
-1.98669,0.920105
-1.99585,0.920105
-1.9989,0.918579
-2.005,0.921631
-2.00653,0.915527
-2.01416,0.918579
-2.02026,0.920105
-2.02637,0.918579
-2.02942,0.918579
-2.03857,0.920105
-2.04163,0.918579
-2.04773,0.921631
-2.05231,0.915527
-2.05383,0.915527
-2.06146,0.920105
-2.06604,0.915527
-2.07214,0.923157
-2.07214,0.918579
-2.07825,0.918579
-2.08893,0.918579
-2.09198,0.918579
-2.09808,0.923157
-2.10419,0.915527
-2.11334,0.918579
-2.12097,0.918579
-2.12708,0.915527
-2.13318,0.918579
-2.13928,0.915527
-2.14844,0.915527
-2.15607,0.914001
-2.16522,0.915527
-2.17133,0.920105
-2.17743,0.920105
-2.18811,0.915527
-2.19421,0.920105
-2.20032,0.918579
-2.20642,0.920105
-2.211,0.918579
-2.21558,0.918579
-2.2171,0.918579
-2.21558,0.918579
-2.2171,0.915527
-2.20337,0.918579
-2.19269,0.918579
-2.17743,0.918579
-2.16217,0.921631
-2.14081,0.920105
-2.11639,0.918579
-2.09198,0.915527
-2.06451,0.914001
-2.03247,0.920105
-2.005,0.918579
-1.97601,0.915527
-1.94397,0.918579
-1.90735,0.914001
-1.87531,0.918579
-1.84174,0.920105
-1.80664,0.918579
-1.77307,0.914001
-1.74103,0.914001
-1.70441,0.918579
-1.67084,0.920105
-1.63879,0.915527
-1.6037,0.920105
-1.57013,0.914001
-1.53809,0.915527
-1.50299,0.915527
-1.47552,0.918579
-1.44806,0.914001
-1.41754,0.914001
-1.39008,0.920105
-1.36719,0.915527
-1.34277,0.915527
-1.32294,0.915527
-1.30157,0.914001
-1.28174,0.920105
-1.26343,0.915527
-1.24664,0.914001
-1.23596,0.912476
-1.2207,0.915527
-1.20392,0.915527
-1.19324,0.915527
-1.18103,0.914001
-1.17493,0.915527
-1.16425,0.912476
-1.15967,0.915527
-1.15204,0.915527
-1.14441,0.914001
-1.14288,0.918579
-1.14288,0.91095
-1.13983,0.920105
-1.13525,0.915527
-1.13373,0.914001
-1.13373,0.914001
-1.13525,0.914001
-1.13983,0.918579
-1.14136,0.915527
-1.14746,0.914001
-1.14899,0.914001
-1.14899,0.912476
-1.15356,0.915527
-1.15814,0.915527
-1.16272,0.912476
-1.16577,0.914001
-1.1673,0.91095
-1.17798,0.915527
-1.18256,0.915527
-1.18866,0.914001
-1.19171,0.912476
-1.19934,0.91095
-1.20697,0.915527
-1.21307,0.915527
-1.21765,0.914001
-1.22528,0.914001
-1.23138,0.912476
-1.23749,0.918579
-1.24664,0.915527
-1.24969,0.912476
-1.25732,0.914001
-1.26343,0.912476
-1.27258,0.915527
-1.27563,0.918579
-1.28174,0.91095
-1.28632,0.91095
-1.28937,0.912476
-1.29395,0.914001
-1.30005,0.914001
-1.29852,0.914001
-1.30463,0.909424
-1.30463,0.91095
-1.30615,0.915527
-1.31073,0.912476
-1.3092,0.91095
-1.3092,0.912476
-1.30768,0.91095
-1.30768,0.914001
-1.30768,0.912476
-1.31073,0.914001
-1.3092,0.912476
-1.3092,0.912476
-1.30768,0.915527
-1.3092,0.91095
-1.3092,0.914001
-1.31073,0.912476
-1.3092,0.91095
-1.31073,0.918579
-1.31226,0.91095
-1.31378,0.907898
-1.31378,0.907898
-1.31531,0.91095
-1.31989,0.912476
-1.32294,0.912476
-1.32446,0.912476
-1.32446,0.912476
-1.32904,0.909424
-1.33362,0.914001
-1.33972,0.909424
-1.3443,0.91095
-1.34888,0.909424
-1.35345,0.909424
-1.35651,0.915527
-1.36414,0.914001
-1.37329,0.914001
-1.37634,0.91095
-1.38397,0.907898
-1.39465,0.912476
-1.39771,0.912476
-1.40686,0.909424
-1.41449,0.91095
-1.42212,0.914001
-1.43433,0.912476
-1.44043,0.912476
-1.44806,0.907898
-1.45874,0.912476
-1.4679,0.909424
-1.47858,0.914001
-1.48468,0.912476
-1.49689,0.91095
-1.50452,0.909424
-1.51367,0.909424
-1.52435,0.914001
-1.53351,0.912476
-1.54724,0.907898
-1.55945,0.912476
-1.5686,0.909424
-1.57928,0.915527
-1.58997,0.915527
-1.60065,0.912476
-1.60828,0.909424
-1.61896,0.91095
-1.62964,0.912476
-1.63879,0.912476
-1.651,0.912476
-1.65863,0.912476
-1.66779,0.909424
-1.67694,0.91095
-1.68915,0.91095
-1.69525,0.909424
-1.70441,0.91095
-1.71509,0.909424
-1.72424,0.914001
-1.73187,0.912476
-1.74255,0.909424
-1.74866,0.907898
-1.75629,0.907898
-1.76239,0.912476
-1.77155,0.91095
-1.7807,0.91095
-1.78986,0.91095
-1.79596,0.907898
-1.80359,0.914001
-1.81122,0.912476
-1.8158,0.912476
-1.82495,0.909424
-1.83258,0.907898
-1.83868,0.909424
-1.84631,0.912476
-1.85394,0.907898
-1.86157,0.909424
-1.8692,0.909424
-1.87683,0.909424
-1.88141,0.91095
-1.88904,0.906372
-1.89362,0.909424
-1.90125,0.909424
-1.9104,0.91095
-1.91498,0.912476
-1.92108,0.91095
-1.92719,0.909424
-1.93481,0.907898
-1.94092,0.91095
-1.94855,0.914001
-1.95618,0.907898
-1.96228,0.907898
-1.96838,0.91095
-1.97144,0.909424
-1.97754,0.909424
-1.98517,0.91095
-1.9928,0.907898
-1.9989,0.91095
-2.00348,0.909424
-2.00806,0.909424
-2.01721,0.912476
-2.02026,0.91095
-2.02942,0.909424
-2.03705,0.909424
-2.0401,0.91095
-2.04773,0.909424
-2.05383,0.909424
-2.06451,0.907898
-2.06757,0.907898
-2.0752,0.909424
-2.07825,0.909424
-2.09351,0.91095
-2.09656,0.909424
-2.10114,0.91095
-2.11029,0.91095
-2.11182,0.909424
-2.12097,0.909424
-2.1286,0.909424
-2.13318,0.912476
-2.14081,0.912476
-2.14691,0.91095
-2.15302,0.912476
-2.16064,0.909424
-2.16827,0.91095
-2.17133,0.915527
-2.18353,0.91095
-2.18811,0.909424
-2.19421,0.91095
-2.20184,0.91095
-2.20642,0.912476
-2.2171,0.91095
-2.22778,0.912476
-2.23236,0.91095
-2.23694,0.91095
-2.24762,0.912476
-2.25372,0.91095
-2.26135,0.91095
-2.27051,0.91095
-2.27966,0.91095
-2.28729,0.914001
-2.2934,0.914001
-2.30103,0.912476
-2.31018,0.91095
-2.31781,0.914001
-2.32544,0.915527
-2.33002,0.912476
-2.33307,0.912476
-2.33765,0.91095
-2.34222,0.91095
-2.33154,0.914001
-2.32849,0.914001
-2.31934,0.912476
-2.30255,0.912476
-2.28882,0.914001
-2.26288,0.915527
-2.23846,0.914001
-2.20947,0.918579
-2.1759,0.914001
-2.14844,0.914001
-2.11029,0.915527
-2.07825,0.915527
-2.03857,0.915527
-1.9989,0.91095
-1.96381,0.918579
-1.92566,0.918579
-1.89056,0.915527
-1.85242,0.915527
-1.8158,0.912476
-1.77765,0.918579
-1.73798,0.920105
-1.70288,0.915527
-1.66473,0.914001
-1.62811,0.914001
-1.59454,0.918579
-1.55792,0.920105
-1.52588,0.915527
-1.49384,0.918579
-1.45721,0.914001
-1.42822,0.918579
-1.40076,0.918579
-1.37482,0.915527
-1.34583,0.918579
-1.32446,0.915527
-1.3031,0.918579
-1.28021,0.920105
-1.26343,0.920105
-1.24512,0.920105
-1.22833,0.915527
-1.2146,0.923157
-1.20087,0.924683
-1.19324,0.921631
-1.18103,0.920105
-1.17188,0.921631
-1.16425,0.923157
-1.15814,0.920105
-1.15356,0.921631
-1.14746,0.923157
-1.14594,0.921631
-1.14136,0.923157
-1.13678,0.926208
-1.13983,0.923157
-1.13678,0.923157
-1.14136,0.921631
-1.13983,0.923157
-1.14136,0.924683
-1.14288,0.927734
-1.14594,0.926208
-1.14746,0.924683
-1.15204,0.927734
-1.15509,0.926208
-1.15662,0.926208
-1.16272,0.924683
-1.16577,0.924683
-1.17188,0.92926
-1.17493,0.926208
-1.18256,0.926208
-1.19019,0.927734
-1.19934,0.926208
-1.20087,0.92926
-1.21307,0.92926
-1.21918,0.92926
-1.22528,0.930786
-1.23138,0.927734
-1.24054,0.930786
-1.24512,0.930786
-1.25122,0.92926
-1.25885,0.930786
-1.26801,0.930786
-1.26953,0.932312
-1.27869,0.932312
-1.28326,0.932312
-1.29089,0.92926
-1.29089,0.92926
-1.30005,0.933838
-1.30005,0.933838
-1.30157,0.933838
-1.30615,0.93689
-1.3092,0.935364
-1.3092,0.933838
-1.31226,0.93689
-1.31836,0.938416
-1.31836,0.933838
-1.31989,0.93689
-1.31989,0.941467
-1.31989,0.93689
-1.32294,0.938416
-1.31989,0.938416
-1.32141,0.939941
-1.31989,0.938416
-1.32294,0.941467
-1.31836,0.93689
-1.32141,0.939941
-1.32294,0.939941
-1.32141,0.942993
-1.32141,0.942993
-1.32446,0.939941
-1.32599,0.938416
-1.32904,0.941467
-1.32599,0.942993
-1.32904,0.942993
-1.33362,0.942993
-1.33514,0.944519
-1.33209,0.941467
-1.33514,0.947571
-1.3382,0.947571
-1.34277,0.944519
-1.34583,0.942993
-1.34735,0.942993
-1.3504,0.949097
-1.35498,0.952148
-1.35803,0.947571
-1.36414,0.947571
-1.37024,0.949097
-1.37634,0.952148
-1.38397,0.950623
-1.38702,0.950623
-1.39771,0.947571
-1.40533,0.952148
-1.41296,0.953674
-1.41907,0.952148
-1.42822,0.952148
-1.43433,0.950623
-1.44348,0.949097
-1.44958,0.953674
-1.45874,0.9552
-1.47095,0.953674
-1.47858,0.9552
-1.48926,0.953674
-1.49994,0.9552
-1.50299,0.9552
-1.5152,0.953674
-1.52588,0.9552
-1.53656,0.9552
-1.54419,0.958252
-1.55487,0.956726
-1.5625,0.959778
-1.57623,0.958252
-1.58386,0.956726
-1.59302,0.959778
-1.60217,0.961304
-1.61591,0.956726
-1.62354,0.961304
-1.63574,0.958252
-1.64032,0.96283
-1.65253,0.961304
-1.66321,0.959778
-1.67236,0.959778
-1.6861,0.96283
-1.6922,0.96283
-1.70135,0.96283
-1.70593,0.965881
-1.72119,0.964355
-1.72577,0.961304
-1.73187,0.96283
-1.73798,0.965881
-1.74866,0.964355
-1.75323,0.961304
-1.76239,0.965881
-1.76697,0.967407
-1.77917,0.968933
-1.78375,0.965881
-1.79291,0.965881
-1.79901,0.964355
-1.80664,0.965881
-1.81122,0.968933
-1.8158,0.967407
-1.82495,0.965881
-1.83105,0.967407
-1.83563,0.971985
-1.84479,0.970459
-1.84631,0.971985
-1.85394,0.971985
-1.86005,0.970459
-1.86157,0.971985
-1.8692,0.971985
-1.87683,0.971985
-1.88293,0.971985
-1.89056,0.970459
-1.89819,0.973511
-1.90125,0.976563
-1.91193,0.973511
-1.91193,0.973511
-1.91956,0.970459
-1.92719,0.971985
-1.93481,0.976563
-1.94244,0.973511
-1.94397,0.979614
-1.95007,0.976563
-1.95313,0.978088
-1.96228,0.979614
-1.96686,0.978088
-1.96991,0.978088
-1.97449,0.978088
-1.98059,0.978088
-1.98517,0.982666
-1.9928,0.98114
-1.9989,0.976563
-2.00348,0.978088
-2.00653,0.979614
-2.01569,0.984192
-2.01874,0.979614
-2.02789,0.978088
-2.034,0.979614
-2.0401,0.982666
-2.04468,0.984192
-2.05231,0.982666
-2.05383,0.982666
-2.06604,0.982666
-2.06909,0.984192
-2.07367,0.985718
-2.0813,0.984192
-2.08588,0.98114
-2.09503,0.984192
-2.09808,0.984192
-2.10419,0.985718
-2.11182,0.982666
-2.12097,0.982666
-2.12555,0.984192
-2.13165,0.98877
-2.13776,0.98877
-2.14844,0.987244
-2.15759,0.985718
-2.16522,0.984192
-2.1698,0.987244
-2.1759,0.98877
-2.18353,0.98877
-2.19574,0.987244
-2.20184,0.98877
-2.21405,0.98877
-2.22015,0.98877
-2.22931,0.98877
-2.23541,0.98877
-2.24304,0.985718
-2.25067,0.990295
-2.25525,0.990295
-2.26135,0.990295
-2.2644,0.987244
-2.26898,0.985718
-2.26593,0.98877
-2.26288,0.991821
-2.25677,0.98877
-2.24762,0.990295
-2.23389,0.990295
-2.2171,0.993347
-2.19574,0.991821
-2.17285,0.993347
-2.14691,0.991821
-2.12097,0.98877
-2.09351,0.991821
-2.06146,0.993347
-2.02789,0.991821
-1.99432,0.991821
-1.96533,0.991821
-1.93024,0.993347
-1.89209,0.993347
-1.85852,0.994873
-1.8219,0.990295
-1.78833,0.991821
-1.75323,0.993347
-1.71814,0.990295
-1.67999,0.991821
-1.651,0.996399
-1.61438,0.991821
-1.57928,0.993347
-1.54724,0.994873
-1.5152,0.994873
-1.48926,0.991821
-1.46179,0.993347
-1.43585,0.993347
-1.40533,0.994873
-1.38397,0.996399
-1.36108,0.993347
-1.34277,0.991821
-1.32446,0.997925
-1.30615,0.997925
-1.29547,0.996399
-1.27869,0.994873
-1.26801,0.994873
-1.25885,0.996399
-1.24969,0.997925
-1.24512,0.996399
-1.23749,0.994873
-1.22986,0.996399
-1.22528,0.997925
-1.22223,0.996399
-1.21918,0.997925
-1.2207,0.993347
-1.2207,0.994873
-1.22223,0.996399
-1.22223,0.997925
-1.22528,0.997925
-1.22833,0.994873
-1.23138,0.994873
-1.23444,0.997925
-1.23596,1.00098
-1.24054,0.997925
-1.24359,0.994873
-1.24664,0.994873
-1.25275,0.996399
-1.26038,0.994873
-1.2619,0.996399
-1.27106,0.994873
-1.28021,0.996399
-1.28326,0.996399
-1.29395,0.997925
-1.30157,0.996399
-1.3092,0.994873
-1.32294,0.996399
-1.32904,0.997925
-1.3382,0.996399
-1.34735,0.997925
-1.35651,0.994873
-1.36719,0.996399
-1.37329,0.999451
-1.37939,0.997925
-1.39008,0.994873
-1.39771,0.996399
-1.40228,0.994873
-1.40839,0.997925
-1.41449,0.999451
-1.41602,0.996399
-1.42059,0.994873
-1.42822,0.994873
-1.42822,0.996399
-1.43127,1.00403
-1.43585,0.999451
-1.43738,0.996399
-1.43585,0.994873
-1.4389,1.00403
-1.43738,0.999451
-1.43738,0.999451
-1.43585,0.994873
-1.43738,0.997925
-1.4389,0.999451
-1.4389,0.996399
-1.43585,0.997925
-1.43738,0.994873
-1.43585,0.993347
-1.4328,0.997925
-1.43585,0.997925
-1.4328,0.994873
-1.43127,0.997925
-1.43127,0.997925
-1.4328,0.997925
-1.43585,0.997925
-1.43433,0.997925
-1.43433,0.997925
-1.43433,0.996399
-1.4389,0.997925
-1.4389,1.00098
-1.44653,0.999451
-1.44501,0.999451
-1.44958,0.994873
-1.45569,0.996399
-1.45721,1.00098
-1.46637,0.997925
-1.47247,0.996399
-1.474,0.997925
-1.4801,1.00098
-1.48773,0.999451
-1.49536,0.999451
-1.50299,0.997925
-1.51215,0.996399
-1.51978,0.999451
-1.52588,0.997925
-1.53351,0.999451
-1.54266,0.997925
-1.55182,0.996399
-1.55792,0.994873
-1.56555,0.997925
-1.57623,0.994873
-1.58539,0.996399
-1.59302,0.996399
-1.6037,0.994873
-1.61133,0.999451
-1.62048,0.994873
-1.63574,0.997925
-1.64185,0.993347
-1.6571,0.999451
-1.66321,0.997925
-1.67389,0.996399
-1.68457,0.993347
-1.69525,0.994873
-1.70441,0.997925
-1.71509,0.996399
-1.72577,0.997925
-1.73492,0.996399
-1.74561,0.993347
-1.75323,0.996399
-1.76086,0.997925
-1.7746,0.994873
-1.7807,0.996399
-1.79138,0.994873
-1.80054,0.994873
-1.81122,0.996399
-1.81732,0.996399
-1.82953,0.994873
-1.83868,0.993347
-1.84631,0.997925
-1.85394,0.996399
-1.86157,0.996399
-1.87073,0.993347
-1.87836,0.991821
-1.88446,0.996399
-1.89209,0.994873
-1.90277,0.994873
-1.9104,0.994873
-1.91498,0.993347
-1.92261,0.994873
-1.93176,0.993347
-1.94092,0.996399
-1.94702,0.993347
-1.95618,0.993347
-1.96381,0.994873
-1.97296,0.996399
-1.97601,0.991821
-1.98212,0.991821
-1.99432,0.991821
-2.00043,0.993347
-2.00806,0.993347
-2.01263,0.994873
-2.02026,0.991821
-2.02484,0.990295
-2.034,0.990295
-2.04468,0.993347
-2.04926,0.993347
-2.05231,0.993347
-2.06146,0.994873
-2.06604,0.993347
-2.07214,0.993347
-2.07672,0.990295
-2.0813,0.990295
-2.09045,0.993347
-2.09351,0.991821
-2.10114,0.991821
-2.10724,0.991821
-2.10876,0.991821
-2.11639,0.98877
-2.12402,0.990295
-2.13013,0.993347
-2.1347,0.993347
-2.14081,0.991821
-2.14386,0.990295
-2.15302,0.991821
-2.16064,0.991821
-2.16217,0.990295
-2.16827,0.990295
-2.17438,0.98877
-2.18353,0.98877
-2.18811,0.98877
-2.19269,0.98877
-2.20184,0.98877
-2.20642,0.984192
-2.20947,0.98877
-2.21863,0.98877
-2.22321,0.98877
-2.23236,0.987244
-2.23541,0.987244
-2.24152,0.990295
-2.24915,0.987244
-2.25372,0.990295
-2.26288,0.987244
-2.26593,0.987244
-2.27509,0.987244
-2.27814,0.990295
-2.28882,0.990295
-2.29187,0.985718
-2.2995,0.987244
-2.31171,0.982666
-2.31628,0.987244
-2.32391,0.98877
-2.33002,0.985718
-2.3407,0.985718
-2.3468,0.985718
-2.35596,0.990295
-2.36359,0.985718
-2.36969,0.982666
-2.37885,0.987244
-2.38953,0.985718
-2.39716,0.987244
-2.40936,0.987244
-2.41699,0.984192
-2.42462,0.982666
-2.42767,0.985718
-2.43683,0.985718
-2.43988,0.982666
-2.44141,0.985718
-2.43835,0.98114
-2.4353,0.985718
-2.42615,0.985718
-2.41394,0.987244
-2.39563,0.985718
-2.37579,0.985718
-2.35443,0.985718
-2.32697,0.982666
-2.29645,0.987244
-2.2644,0.98114
-2.23236,0.979614
-2.19879,0.987244
-2.16217,0.982666
-2.1286,0.984192
-2.08893,0.984192
-2.04773,0.978088
-2.01263,0.978088
-1.97601,0.982666
-1.93939,0.982666
-1.89972,0.979614
-1.86005,0.978088
-1.81885,0.98114
-1.78375,0.979614
-1.74713,0.982666
-1.71051,0.98114
-1.67694,0.98114
-1.64032,0.979614
-1.60522,0.98114
-1.5686,0.979614
-1.53809,0.979614
-1.51062,0.978088
-1.47858,0.978088
-1.45111,0.98114
-1.4267,0.979614
-1.40381,0.973511
-1.38397,0.978088
-1.36261,0.978088
-1.34583,0.979614
-1.32599,0.979614
-1.31378,0.976563
-1.29852,0.978088
-1.28479,0.976563
-1.27563,0.98114
-1.26343,0.979614
-1.25427,0.979614
-1.24664,0.976563
-1.24359,0.973511
-1.23444,0.978088
-1.22986,0.98114
-1.22375,0.973511
-1.22223,0.978088
-1.21918,0.978088
-1.21613,0.978088
-1.21613,0.979614
-1.2146,0.978088
-1.21307,0.976563
-1.21155,0.976563
-1.21155,0.976563
-1.2085,0.978088
-1.2085,0.976563
-1.21002,0.973511
-1.21307,0.971985
-1.21155,0.978088
-1.2146,0.973511
-1.21765,0.973511
-1.22223,0.973511
-1.22528,0.976563
-1.22681,0.973511
-1.22986,0.973511
-1.23596,0.973511
-1.24207,0.971985
-1.24664,0.976563
-1.25122,0.979614
-1.26038,0.970459
-1.26648,0.976563
-1.27411,0.970459
-1.27869,0.971985
-1.28021,0.968933
-1.29089,0.970459
-1.29395,0.968933
-1.30157,0.970459
-1.30615,0.971985
-1.31226,0.970459
-1.31683,0.971985
-1.32141,0.968933
-1.32904,0.970459
-1.33514,0.970459
-1.33972,0.971985
-1.34125,0.968933
-1.3443,0.968933
-1.34888,0.968933
-1.3504,0.970459
-1.35345,0.970459
-1.35803,0.968933
-1.36414,0.967407
-1.36414,0.970459
-1.36566,0.967407
-1.36719,0.968933
-1.36871,0.968933
-1.37329,0.965881
-1.37634,0.967407
-1.37634,0.967407
-1.37634,0.970459
-1.37787,0.967407
-1.38092,0.965881
-1.37939,0.965881
-1.38092,0.973511
-1.38245,0.971985
-1.3855,0.967407
-1.3855,0.964355
-1.38855,0.964355
-1.38855,0.968933
-1.39008,0.967407
-1.39313,0.968933
-1.39618,0.964355
-1.40076,0.964355
-1.40381,0.965881
-1.40533,0.968933
-1.41449,0.964355
-1.41602,0.967407
-1.42212,0.964355
-1.42975,0.968933
-1.43127,0.970459
-1.4389,0.968933
-1.44653,0.96283
-1.45569,0.964355
-1.46027,0.96283
-1.46942,0.965881
-1.47705,0.965881
-1.48773,0.961304
-1.49384,0.96283
-1.49689,0.964355
-1.50757,0.965881
-1.5152,0.965881
-1.52893,0.96283
-1.53656,0.961304
-1.54572,0.965881
-1.55792,0.964355
-1.5625,0.96283
-1.57318,0.96283
-1.58234,0.96283
-1.59149,0.96283
-1.6037,0.965881
-1.61591,0.964355
-1.62506,0.961304
-1.63116,0.961304
-1.64642,0.965881
-1.65405,0.964355
-1.66473,0.96283
-1.67236,0.964355
-1.67999,0.961304
-1.69373,0.96283
-1.70135,0.965881
-1.70898,0.96283
-1.72119,0.961304
-1.72729,0.961304
-1.73492,0.961304
-1.74866,0.96283
-1.75629,0.964355
-1.76697,0.959778
-1.77917,0.959778
-1.78986,0.961304
-1.79596,0.959778
-1.80664,0.961304
-1.81427,0.959778
-1.82343,0.958252
-1.82953,0.961304
-1.83716,0.96283
-1.84479,0.959778
-1.85394,0.958252
-1.86005,0.958252
-1.8692,0.96283
-1.87683,0.961304
-1.87988,0.961304
-1.89056,0.956726
-1.89972,0.958252
-1.90582,0.959778
-1.91193,0.959778
-1.91803,0.958252
-1.92261,0.958252
-1.93329,0.958252
-1.93787,0.959778
-1.94244,0.961304
-1.95007,0.959778
-1.95465,0.956726
-1.96381,0.959778
-1.96991,0.959778
-1.97601,0.958252
-1.98212,0.956726
-1.98669,0.956726
-1.99432,0.958252
-1.9989,0.959778
-2.00806,0.961304
-2.01416,0.956726
-2.02026,0.956726
-2.02789,0.958252
-2.03247,0.956726
-2.03857,0.958252
-2.04773,0.956726
-2.04926,0.9552
-2.06146,0.956726
-2.06604,0.956726
-2.07062,0.961304
-2.07367,0.959778
-2.07977,0.9552
-2.08282,0.953674
-2.09045,0.959778
-2.09656,0.958252
-2.10419,0.958252
-2.11182,0.953674
-2.11487,0.9552
-2.12402,0.956726
-2.12708,0.956726
-2.1347,0.958252
-2.14386,0.956726
-2.15149,0.952148
-2.15454,0.956726
-2.1637,0.9552
-2.16675,0.9552
-2.17438,0.953674
-2.18048,0.953674
-2.18506,0.958252
-2.19421,0.9552
-2.20032,0.953674
-2.20642,0.953674
-2.21558,0.952148
-2.22015,0.953674
-2.22626,0.956726
-2.23083,0.953674
-2.23999,0.952148
-2.24609,0.9552
-2.2522,0.9552
-2.2583,0.9552
-2.2644,0.9552
-2.27051,0.950623
-2.27966,0.953674
-2.28271,0.9552
-2.29034,0.953674
-2.29492,0.950623
-2.30103,0.950623
-2.31171,0.952148
-2.31934,0.953674
-2.32391,0.9552
-2.32849,0.952148
-2.33765,0.952148
-2.34528,0.952148
-2.35291,0.953674
-2.36206,0.9552
-2.36816,0.953674
-2.37732,0.952148
-2.38495,0.952148
-2.39563,0.949097
-2.3941,0.953674
-2.40173,0.952148
-2.40936,0.952148
-2.41241,0.952148
-2.41089,0.952148
-2.40936,0.9552
-2.40936,0.950623
-2.39716,0.950623
-2.388,0.950623
-2.37732,0.953674
-2.35748,0.953674
-2.33612,0.949097
-2.31628,0.949097
-2.28882,0.947571
-2.26135,0.952148
-2.23236,0.953674
-2.20032,0.947571
-2.16675,0.949097
-2.1347,0.949097
-2.09961,0.950623
-2.06757,0.952148
-2.03247,0.950623
-1.99585,0.942993
-1.96381,0.947571
-1.92413,0.950623
-1.89209,0.952148
-1.85852,0.949097
-1.82495,0.944519
-1.78833,0.944519
-1.75476,0.947571
-1.72577,0.950623
-1.69525,0.949097
-1.66321,0.947571
-1.63727,0.944519
-1.60675,0.949097
-1.58539,0.949097
-1.56097,0.947571
-1.53656,0.947571
-1.51672,0.947571
-1.49536,0.949097
-1.47858,0.949097
-1.46484,0.944519
-1.44806,0.944519
-1.43738,0.949097
-1.42517,0.944519
-1.41602,0.947571
-1.40839,0.947571
-1.39923,0.942993
-1.39008,0.942993
-1.38702,0.947571
-1.38245,0.944519
-1.37939,0.944519
-1.37482,0.941467
-1.37482,0.942993
-1.37634,0.947571
-1.37329,0.947571
-1.37482,0.944519
-1.37787,0.939941
-1.37329,0.942993
-1.37177,0.944519
-1.37787,0.947571
-1.37634,0.944519
-1.37634,0.939941
-1.38245,0.942993
-1.38092,0.941467
-1.38397,0.944519
-1.38702,0.942993
-1.39313,0.942993
-1.39465,0.942993
-1.39923,0.947571
-1.39923,0.942993
-1.40228,0.944519
-1.40839,0.941467
-1.40991,0.939941
-1.41296,0.941467
-1.41907,0.944519
-1.42517,0.939941
-1.43127,0.941467
-1.43738,0.942993
-1.44348,0.942993
-1.44501,0.942993
-1.45111,0.944519
-1.45721,0.942993
-1.46484,0.939941
-1.46942,0.941467
-1.47095,0.944519
-1.47705,0.941467
-1.47858,0.939941
-1.48468,0.939941
-1.48926,0.944519
-1.49231,0.939941
-1.49536,0.939941
-1.49536,0.939941
-1.49994,0.939941
-1.50146,0.944519
-1.49994,0.942993
-1.50146,0.941467
-1.49994,0.939941
-1.50146,0.939941
-1.49841,0.942993
-1.50146,0.941467
-1.49994,0.941467
-1.49841,0.938416
-1.49994,0.938416
-1.49994,0.941467
-1.49689,0.941467
-1.49536,0.939941
-1.49536,0.941467
-1.49689,0.938416
-1.49689,0.942993
-1.49689,0.939941
-1.49689,0.941467
-1.49536,0.939941
-1.49536,0.938416
-1.49536,0.938416
-1.49841,0.939941
-1.49994,0.938416
-1.50146,0.93689
-1.50604,0.93689
-1.50909,0.939941
-1.50909,0.93689
-1.50909,0.939941
-1.51367,0.939941
-1.52283,0.939941
-1.52283,0.941467
-1.52588,0.941467
-1.53198,0.93689
-1.53809,0.938416
-1.54419,0.939941
-1.54724,0.939941
-1.5564,0.939941
-1.56097,0.939941
-1.5625,0.938416
-1.57013,0.938416
-1.57776,0.938416
-1.58539,0.938416
-1.58997,0.938416
-1.5976,0.935364
-1.60522,0.93689
-1.61133,0.939941
-1.62048,0.939941
-1.62811,0.938416
-1.63422,0.93689
-1.64337,0.93689
-1.651,0.941467
-1.65863,0.938416
-1.66626,0.938416
-1.67236,0.93689
-1.68457,0.939941
-1.69067,0.939941
-1.6983,0.939941
-1.70898,0.93689
-1.71814,0.938416
-1.72577,0.938416
-1.73492,0.939941
-1.74561,0.939941
-1.75018,0.938416
-1.76239,0.93689
-1.77155,0.939941
-1.77612,0.942993
-1.78528,0.939941
-1.79138,0.938416
-1.80511,0.93689
-1.81122,0.938416
-1.8158,0.942993
-1.8219,0.941467
-1.83258,0.939941
-1.84021,0.93689
-1.84631,0.938416
-1.85394,0.939941
-1.86157,0.939941
-1.8692,0.941467
-1.87531,0.938416
-1.88293,0.938416
-1.88904,0.941467
-1.89819,0.941467
-1.9043,0.939941
-1.9104,0.938416
-1.91956,0.939941
-1.92566,0.942993
-1.93481,0.93689
-1.94244,0.939941
-1.9455,0.93689
-1.95007,0.93689
-1.9577,0.941467
-1.96381,0.938416
-1.96991,0.938416
-1.97754,0.939941
-1.98059,0.938416
-1.98517,0.941467
-1.9928,0.941467
-1.99585,0.941467
-2.00348,0.939941
-2.005,0.93689
-2.00958,0.938416
-2.01569,0.941467
-2.02179,0.939941
-2.02789,0.938416
-2.03094,0.938416
-2.03552,0.938416
-2.04315,0.941467
-2.04468,0.939941
-2.05078,0.93689
-2.05383,0.941467
-2.06451,0.942993
-2.06909,0.942993
-2.0752,0.941467
-2.0813,0.938416
-2.08588,0.938416
-2.09198,0.939941
-2.09503,0.941467
-2.10571,0.941467
-2.10571,0.941467
-2.11029,0.941467
-2.11487,0.944519
-2.12402,0.939941
-2.1225,0.941467
-2.13165,0.938416
-2.13776,0.941467
-2.14081,0.942993
-2.15149,0.942993
-2.15607,0.939941
-2.16522,0.939941
-2.17285,0.942993
-2.17896,0.944519
-2.18658,0.942993
-2.19269,0.941467
-2.19879,0.941467
-2.20795,0.941467
-2.21405,0.944519
-2.22321,0.942993
-2.22626,0.944519
-2.23236,0.941467
-2.23999,0.942993
-2.24304,0.942993
-2.25067,0.944519
-2.25525,0.942993
-2.25372,0.939941
-2.25372,0.941467
-2.25067,0.942993
-2.24152,0.944519
-2.23236,0.942993
-2.22015,0.942993
-2.2049,0.942993
-2.18811,0.944519
-2.17285,0.942993
-2.15302,0.942993
-2.1286,0.939941
-2.10571,0.939941
-2.0752,0.947571
-2.05078,0.947571
-2.02179,0.944519
-1.99585,0.941467
-1.96381,0.941467
-1.93481,0.947571
-1.90277,0.947571
-1.87225,0.942993
-1.84174,0.942993
-1.81122,0.944519
-1.78223,0.942993
-1.75018,0.941467
-1.72119,0.942993
-1.69373,0.942993
-1.66626,0.942993
-1.63727,0.942993
-1.6098,0.947571
-1.58691,0.941467
-1.56403,0.944519
-1.53961,0.942993
-1.51978,0.944519
-1.50146,0.949097
-1.4801,0.947571
-1.46637,0.942993
-1.45111,0.944519
-1.4389,0.941467
-1.4267,0.941467
-1.41754,0.944519
-1.40381,0.942993
-1.40228,0.942993
-1.39313,0.947571
-1.3855,0.944519
-1.38245,0.949097
-1.37634,0.941467
-1.37634,0.944519
-1.37482,0.947571
-1.37177,0.944519
-1.37177,0.949097
-1.37177,0.942993
-1.37329,0.939941
-1.37482,0.947571
-1.37787,0.947571
-1.37939,0.944519
-1.38245,0.944519
-1.38397,0.944519
-1.38855,0.947571
-1.39313,0.950623
-1.39618,0.944519
-1.39923,0.947571
-1.40228,0.947571
-1.40991,0.944519
-1.41144,0.947571
-1.41754,0.947571
-1.42212,0.942993
-1.42822,0.942993
-1.4328,0.949097
-1.43585,0.947571
-1.44196,0.947571
-1.44806,0.949097
-1.45721,0.949097
-1.46484,0.950623
-1.46332,0.949097
-1.47095,0.947571
-1.47705,0.949097
-1.48163,0.947571
-1.48926,0.947571
-1.49384,0.949097
-1.49841,0.950623
-1.50299,0.949097
-1.50909,0.949097
-1.51062,0.950623
-1.5152,0.952148
-1.5213,0.949097
-1.52283,0.949097
-1.52588,0.944519
-1.52893,0.950623
-1.52893,0.950623
-1.53198,0.949097
-1.53046,0.947571
-1.53503,0.944519
-1.53656,0.950623
-1.53656,0.950623
-1.53656,0.947571
-1.53503,0.947571
-1.53656,0.947571
-1.53656,0.950623
-1.53503,0.952148
-1.53809,0.952148
-1.53503,0.949097
-1.53961,0.942993
-1.53656,0.953674
-1.53656,0.952148
-1.53656,0.953674
-1.53656,0.949097
-1.54114,0.949097
-1.53961,0.950623
-1.53961,0.952148
-1.54266,0.949097
-1.54572,0.950623
-1.54572,0.952148
-1.54724,0.949097
-1.55334,0.953674
-1.55792,0.950623
-1.56097,0.949097
-1.5625,0.949097
-1.56555,0.950623
-1.57013,0.952148
-1.57623,0.953674
-1.58386,0.949097
-1.58844,0.950623
-1.59454,0.952148
-1.60217,0.953674
-1.60675,0.953674
-1.61438,0.947571
-1.62048,0.950623
-1.62811,0.952148
-1.63727,0.952148
-1.64337,0.953674
-1.65253,0.952148
-1.66168,0.952148
-1.67084,0.953674
-1.68152,0.953674
-1.69067,0.952148
-1.6983,0.952148
-1.70593,0.952148
-1.71509,0.953674
-1.72272,0.956726
-1.73035,0.9552
-1.74103,0.952148
-1.74866,0.953674
-1.75629,0.953674
-1.76392,0.953674
-1.77155,0.956726
-1.77917,0.952148
-1.78986,0.956726
-1.79749,0.953674
-1.80511,0.953674
-1.80969,0.9552
-1.81885,0.953674
-1.82343,0.953674
-1.82953,0.956726
-1.83716,0.956726
-1.84479,0.9552
-1.85547,0.952148
-1.86005,0.953674
-1.86768,0.9552
-1.87531,0.958252
-1.87988,0.956726
-1.88904,0.9552
-1.89209,0.953674
-1.90125,0.956726
-1.90582,0.956726
-1.91193,0.9552
-1.91956,0.950623
-1.92719,0.9552
-1.93329,0.958252
-1.93787,0.958252
-1.94397,0.956726
-1.9516,0.9552
-1.95618,0.9552
-1.96228,0.958252
-1.96686,0.958252
-1.97144,0.956726
-1.97754,0.958252
-1.98212,0.9552
-1.98517,0.956726
-1.99432,0.959778
-2.00043,0.956726
-2.005,0.956726
-2.00958,0.956726
-2.01416,0.958252
-2.01721,0.958252
-2.02179,0.956726
-2.02637,0.952148
-2.03094,0.956726
-2.03705,0.959778
-2.04163,0.958252
-2.04773,0.956726
-2.05383,0.953674
-2.05688,0.958252
-2.06146,0.958252
-2.06451,0.959778
-2.07062,0.959778
-2.07672,0.956726
-2.07977,0.9552
-2.0813,0.958252
-2.09045,0.956726
-2.09503,0.956726
-2.09961,0.958252
-2.10571,0.958252
-2.11029,0.956726
-2.11487,0.959778
-2.11945,0.958252
-2.12555,0.9552
-2.12708,0.956726
-2.13318,0.959778
-2.13623,0.961304
-2.14386,0.958252
-2.14691,0.958252
-2.15302,0.956726
-2.16217,0.959778
-2.16522,0.959778
-2.17285,0.959778
-2.17743,0.959778
-2.18048,0.959778
-2.18964,0.959778
-2.19116,0.961304
-2.20032,0.958252
-2.20642,0.956726
-2.211,0.958252
-2.2171,0.961304
-2.22321,0.96283
-2.23236,0.958252
-2.23541,0.956726
-2.24152,0.959778
-2.24762,0.959778
-2.25525,0.96283
-2.25677,0.958252
-2.2644,0.958252
-2.27051,0.959778
-2.27966,0.961304
-2.28577,0.961304
-2.29034,0.959778
-2.29645,0.961304
-2.30103,0.961304
-2.31171,0.959778
-2.31628,0.96283
-2.32391,0.961304
-2.33002,0.96283
-2.33765,0.961304
-2.3468,0.964355
-2.35138,0.96283
-2.35748,0.96283
-2.36664,0.96283
-2.37274,0.959778
-2.37885,0.964355
-2.38495,0.965881
-2.388,0.961304
-2.388,0.959778
-2.38953,0.961304
-2.38953,0.964355
-2.388,0.964355
-2.37885,0.964355
-2.36969,0.959778
-2.35443,0.964355
-2.33765,0.967407
-2.32086,0.965881
-2.30103,0.959778
-2.28119,0.96283
-2.25525,0.961304
-2.22931,0.96283
-2.20337,0.965881
-2.17285,0.96283
-2.14386,0.96283
-2.11487,0.96283
-2.07977,0.964355
-2.0462,0.965881
-2.01263,0.96283
-1.97754,0.964355
-1.94397,0.964355
-1.90735,0.967407
-1.87531,0.967407
-1.84174,0.964355
-1.80817,0.961304
-1.77765,0.965881
-1.74408,0.96283
-1.71204,0.965881
-1.68304,0.965881
-1.65405,0.964355
-1.62811,0.965881
-1.6037,0.965881
-1.57776,0.964355
-1.55792,0.967407
-1.53503,0.964355
-1.51062,0.967407
-1.49384,0.967407
-1.474,0.967407
-1.46484,0.964355
-1.44806,0.964355
-1.43585,0.965881
-1.42212,0.965881
-1.40991,0.968933
-1.40381,0.965881
-1.39465,0.964355
-1.38702,0.964355
-1.38092,0.965881
-1.37329,0.967407
-1.37024,0.964355
-1.36871,0.96283
-1.36871,0.96283
-1.36719,0.964355
-1.36871,0.965881
-1.36719,0.964355
-1.36566,0.964355
-1.36719,0.967407
-1.36566,0.967407
-1.36414,0.967407
-1.36719,0.964355
-1.36719,0.964355
-1.36871,0.967407
-1.36719,0.968933
-1.36871,0.965881
-1.37177,0.964355
-1.37024,0.964355
-1.37634,0.964355
-1.38092,0.965881
-1.37787,0.967407
-1.38245,0.964355
-1.38855,0.965881
-1.39313,0.967407
-1.38855,0.965881
-1.39618,0.965881
-1.39923,0.967407
-1.40381,0.965881
-1.40991,0.967407
-1.41296,0.967407
-1.41907,0.970459
-1.42059,0.965881
-1.42822,0.96283
-1.43127,0.964355
-1.43433,0.965881
-1.4389,0.965881
-1.44501,0.96283
-1.44958,0.964355
-1.45569,0.967407
-1.45874,0.964355
-1.45874,0.968933
-1.46484,0.964355
-1.46637,0.964355
-1.4679,0.965881
-1.47247,0.968933
-1.474,0.965881
-1.47705,0.965881
-1.47552,0.964355
-1.47705,0.964355
-1.47858,0.964355
-1.4801,0.968933
-1.4801,0.965881
-1.4801,0.967407
-1.48163,0.967407
-1.48163,0.965881
-1.48315,0.967407
-1.48468,0.967407
-1.48315,0.964355
-1.48773,0.967407
-1.48926,0.968933
-1.48773,0.965881
-1.49231,0.967407
-1.49231,0.965881
-1.49689,0.967407
-1.49536,0.968933
-1.49689,0.965881
-1.49841,0.965881
-1.50146,0.964355
-1.50299,0.965881
-1.50757,0.964355
-1.50909,0.965881
-1.51367,0.964355
-1.52283,0.964355
-1.5274,0.965881
-1.53351,0.965881
-1.53809,0.967407
-1.54266,0.967407
-1.55029,0.959778
-1.55334,0.96283
-1.5625,0.965881
-1.56708,0.965881
-1.57166,0.96283
-1.57776,0.96283
-1.58539,0.96283
-1.59149,0.96283
-1.59607,0.965881
-1.60217,0.965881
-1.61133,0.965881
-1.62048,0.96283
-1.62506,0.964355
-1.63269,0.965881
-1.64032,0.96283
-1.64948,0.96283
-1.65558,0.964355
-1.66626,0.964355
-1.67236,0.964355
-1.68457,0.96283
-1.6922,0.961304
-1.70135,0.961304
-1.70441,0.965881
-1.71661,0.965881
-1.72424,0.96283
-1.72882,0.961304
-1.73798,0.964355
-1.74408,0.964355
-1.75171,0.964355
-1.75934,0.96283
-1.76544,0.964355
-1.77307,0.96283
-1.7807,0.96283
-1.78986,0.964355
-1.79138,0.96283
-1.80359,0.961304
-1.80511,0.96283
-1.81427,0.965881
-1.8219,0.965881
-1.82953,0.961304
-1.83868,0.96283
-1.84631,0.964355
-1.85242,0.965881
-1.85852,0.965881
-1.86768,0.96283
-1.87378,0.964355
-1.87988,0.96283
-1.88599,0.964355
-1.89056,0.961304
-1.89514,0.961304
-1.90277,0.958252
-1.91193,0.961304
-1.91803,0.96283
-1.92261,0.964355
-1.92719,0.961304
-1.93481,0.959778
-1.93787,0.959778
-1.94855,0.96283
-1.9516,0.959778
-1.95923,0.959778
-1.96381,0.959778
-1.97144,0.961304
-1.97601,0.965881
-1.98212,0.96283
-1.98975,0.959778
-1.99585,0.959778
-2.00195,0.961304
-2.00653,0.96283
-2.01111,0.96283
-2.01721,0.961304
-2.02637,0.959778
-2.03247,0.959778
-2.03857,0.964355
-2.04315,0.964355
-2.05231,0.961304
-2.05994,0.958252
-2.06451,0.961304
-2.07214,0.96283
-2.07672,0.959778
-2.08435,0.961304
-2.09351,0.958252
-2.10114,0.958252
-2.10571,0.964355
-2.11334,0.964355
-2.1225,0.96283
-2.12708,0.96283
-2.13013,0.958252
-2.13623,0.961304
-2.14233,0.959778
-2.14844,0.96283
-2.15607,0.959778
-2.1637,0.961304
-2.16827,0.96283
-2.1698,0.96283
-2.17896,0.96283
-2.18658,0.961304
-2.18964,0.961304
-2.19574,0.96283
-2.20337,0.96283
-2.20642,0.958252
-2.21558,0.961304
-2.22015,0.959778
-2.22626,0.961304
-2.23236,0.96283
-2.23541,0.956726
-2.24304,0.958252
-2.25067,0.961304
-2.25525,0.961304
-2.25983,0.96283
-2.27051,0.961304
-2.27356,0.956726
-2.28271,0.959778
-2.28729,0.961304
-2.29034,0.961304
-2.29797,0.956726
-2.30408,0.956726
-2.31018,0.958252
-2.31476,0.961304
-2.31934,0.96283
-2.32544,0.958252
-2.33002,0.958252
-2.33459,0.959778
-2.34222,0.956726
-2.34375,0.959778
-2.34985,0.956726
-2.35443,0.958252
-2.36053,0.956726
-2.36664,0.958252
-2.37427,0.961304
-2.38037,0.956726
-2.3819,0.956726
-2.38647,0.958252
-2.39258,0.959778
-2.39868,0.959778
-2.40479,0.958252
-2.41241,0.956726
-2.41699,0.956726
-2.41852,0.956726
-2.42615,0.961304
-2.43073,0.956726
-2.43835,0.953674
-2.44141,0.956726
-2.44904,0.961304
-2.45361,0.959778
-2.46124,0.958252
-2.46429,0.9552
-2.47192,0.9552
-2.4765,0.958252
-2.48108,0.956726
-2.48718,0.956726
-2.49329,0.958252
-2.49939,0.953674
-2.50244,0.956726
-2.50854,0.956726
-2.51007,0.9552
-2.51465,0.9552
-2.51312,0.952148
-2.51617,0.9552
-2.51312,0.9552
-2.50702,0.9552
-2.50397,0.953674
-2.49329,0.953674
-2.48108,0.9552
-2.46887,0.9552
-2.45361,0.953674
-2.43225,0.9552
-2.41699,0.950623
-2.39258,0.956726
-2.37885,0.956726
-2.35443,0.953674
-2.32849,0.9552
-2.30408,0.953674
-2.28271,0.953674
-2.2583,0.956726
-2.23236,0.949097
-2.20947,0.950623
-2.18353,0.9552
-2.16064,0.952148
-2.13776,0.9552
-2.11334,0.953674
-2.09351,0.953674
-2.06757,0.952148
-2.05078,0.953674
-2.03247,0.953674
-2.01111,0.952148
-1.98975,0.953674
-1.96991,0.949097
-1.95923,0.952148
-1.94244,0.953674
-1.93176,0.953674
-1.91498,0.952148
-1.9043,0.950623
-1.89209,0.950623
-1.88141,0.9552
-1.87683,0.952148
-1.87073,0.950623
-1.86157,0.949097
-1.85699,0.9552
-1.85089,0.956726
-1.84784,0.950623
-1.84326,0.950623
-1.84174,0.950623
-1.83868,0.952148
-1.83716,0.9552
-1.83563,0.953674
-1.83716,0.952148
-1.83563,0.949097
-1.83716,0.950623
-1.83563,0.952148
-1.83563,0.947571
-1.83258,0.950623
-1.83563,0.949097
-1.83716,0.952148
-1.83716,0.9552
-1.83868,0.949097
-1.83716,0.947571
-1.84326,0.947571
-1.84174,0.952148
-1.84326,0.952148
-1.84326,0.947571
-1.84631,0.944519
-1.84631,0.947571
-1.85089,0.949097
-1.85089,0.952148
-1.85394,0.949097
-1.85699,0.944519
-1.86157,0.947571
-1.86462,0.950623
-1.87378,0.950623
-1.87683,0.947571
-1.87988,0.944519
-1.88293,0.947571
-1.88904,0.947571
-1.89056,0.952148
-1.89514,0.944519
-1.89819,0.947571
-1.90125,0.944519
-1.9043,0.949097
-1.90887,0.952148
-1.90582,0.949097
-1.90887,0.942993
-1.91345,0.942993
-1.91193,0.950623
-1.9104,0.949097
-1.91345,0.942993
-1.91498,0.944519
-1.91498,0.944519
-1.91498,0.952148
-1.91345,0.949097
-1.91498,0.944519
-1.91193,0.941467
-1.91193,0.942993
-1.91345,0.944519
-1.90887,0.944519
-1.9104,0.944519
-1.9104,0.942993
-1.91193,0.947571
-1.9104,0.947571
-1.90887,0.947571
-1.9104,0.947571
-1.91193,0.944519
-1.91345,0.944519
-1.90887,0.942993
-1.91193,0.949097
-1.91193,0.942993
-1.91193,0.939941
-1.91193,0.947571
-1.91498,0.947571
-1.91498,0.942993
-1.91956,0.942993
-1.91803,0.942993
-1.91956,0.939941
-1.92566,0.944519
-1.92719,0.944519
-1.93024,0.942993
-1.93176,0.939941
-1.93787,0.941467
-1.94244,0.944519
-1.9455,0.950623
-1.94702,0.947571
-1.95465,0.939941
-1.95465,0.942993
-1.9577,0.947571
-1.96533,0.939941
-1.96686,0.938416
-1.97296,0.941467
-1.97601,0.939941
-1.97906,0.941467
-1.98517,0.942993
-1.9928,0.939941
-1.99738,0.939941
-2.00195,0.941467
-2.00806,0.942993
-2.01263,0.944519
-2.01874,0.939941
-2.02484,0.939941
-2.02942,0.939941
-2.03552,0.941467
-2.03857,0.944519
-2.04163,0.938416
-2.0462,0.939941
-2.05078,0.93689
-2.05994,0.941467
-2.06451,0.941467
-2.07062,0.942993
-2.07672,0.938416
-2.07825,0.939941
-2.08588,0.941467
-2.09045,0.941467
-2.09503,0.938416
-2.10266,0.93689
-2.10571,0.938416
-2.11334,0.942993
-2.11945,0.941467
-2.12402,0.93689
-2.1286,0.938416
-2.13318,0.93689
-2.14081,0.938416
-2.14539,0.942993
-2.14691,0.939941
-2.15454,0.93689
-2.15912,0.939941
-2.16522,0.939941
-2.16675,0.942993
-2.17285,0.939941
-2.17896,0.93689
-2.18353,0.938416
-2.18811,0.941467
-2.19116,0.939941
-2.19421,0.93689
-2.19727,0.938416
-2.20184,0.93689
-2.20642,0.941467
-2.21558,0.941467
-2.21558,0.939941
-2.22015,0.935364
-2.22778,0.935364
-2.23236,0.939941
-2.23236,0.938416
-2.23846,0.938416
-2.24152,0.935364
-2.24915,0.938416
-2.25067,0.938416
-2.25677,0.939941
-2.2583,0.938416
-2.26593,0.93689
-2.26898,0.938416
-2.27356,0.935364
-2.27814,0.941467
-2.28119,0.935364
-2.28424,0.935364
-2.28882,0.935364
-2.29187,0.938416
-2.29492,0.938416
-2.2995,0.938416
-2.30103,0.933838
-2.3056,0.933838
-2.30713,0.93689
-2.31171,0.939941
-2.31323,0.935364
-2.31781,0.935364
-2.32086,0.93689
-2.32239,0.93689
-2.32697,0.935364
-2.33154,0.93689
-2.33612,0.935364
-2.3407,0.93689
-2.34528,0.939941
-2.34985,0.93689
-2.35596,0.93689
-2.35901,0.93689
-2.36359,0.935364
-2.36969,0.939941
-2.37579,0.935364
-2.38037,0.935364
-2.38342,0.935364
-2.38953,0.935364
-2.39563,0.938416
-2.40173,0.93689
-2.40631,0.933838
-2.41241,0.935364
-2.41699,0.932312
-2.42157,0.93689
-2.42767,0.941467
-2.4292,0.935364
-2.43835,0.93689
-2.44141,0.93689
-2.44598,0.93689
-2.45209,0.935364
-2.45209,0.933838
-2.46124,0.933838
-2.46735,0.935364
-2.4704,0.93689
-2.4765,0.938416
-2.4826,0.93689
-2.48718,0.935364
-2.48871,0.933838
-2.49939,0.933838
-2.50092,0.938416
-2.50702,0.935364
-2.5116,0.93689
-2.51617,0.933838
-2.52075,0.93689
-2.52533,0.935364
-2.53296,0.935364
-2.53296,0.935364
-2.53601,0.93689
-2.53601,0.938416
-2.53754,0.93689
-2.53601,0.933838
-2.53754,0.933838
-2.53143,0.933838
-2.52533,0.93689
-2.5177,0.933838
-2.50854,0.92926
-2.49634,0.930786
-2.48108,0.938416
-2.46277,0.932312
-2.45056,0.938416
-2.4292,0.933838
-2.41394,0.932312
-2.3941,0.932312
-2.37579,0.93689
-2.35443,0.935364
-2.33307,0.932312
-2.31323,0.932312
-2.29492,0.932312
-2.27356,0.935364
-2.25525,0.933838
-2.23083,0.932312
-2.21405,0.92926
-2.19879,0.933838
-2.17896,0.935364
-2.16217,0.935364
-2.14386,0.92926
-2.13165,0.932312
-2.11487,0.932312
-2.10266,0.933838
-2.09045,0.932312
-2.07672,0.932312
-2.06909,0.932312
-2.06146,0.930786
-2.04926,0.935364
-2.04468,0.932312
-2.03857,0.930786
-2.03094,0.927734
-2.02179,0.932312
-2.02179,0.932312
-2.01569,0.930786
-2.01416,0.930786
-2.01111,0.92926
-2.00958,0.92926
-2.00653,0.93689
-2.00653,0.933838
-2.005,0.930786
-2.00195,0.92926
-2.005,0.930786
-2.00348,0.935364
-2.00195,0.92926
-2.00043,0.932312
-2.00043,0.930786
-2.00195,0.930786
-1.9989,0.933838
-1.99738,0.92926
-2.00043,0.930786
-2.00043,0.92926
-1.99585,0.933838
-1.99432,0.933838
-1.98975,0.933838
-1.98822,0.935364
-1.98822,0.927734
-1.98822,0.92926
-1.98517,0.932312
-1.98669,0.932312
-1.98822,0.927734
-1.98822,0.927734
-1.9928,0.92926
-1.98975,0.930786
-1.9928,0.932312
-1.99585,0.92926
-1.99738,0.927734
-2.00195,0.92926
-2.005,0.930786
-2.00653,0.930786
-2.00806,0.927734
-2.00958,0.926208
-2.01263,0.932312
-2.01416,0.932312
-2.01721,0.932312
-2.01874,0.927734
-2.02026,0.926208
-2.02789,0.92926
-2.02789,0.935364
-2.02942,0.933838
-2.02942,0.927734
-2.02942,0.926208
-2.02637,0.927734
-2.02637,0.932312
-2.02942,0.930786
-2.02942,0.92926
-2.02942,0.927734
-2.02942,0.927734
-2.02789,0.92926
-2.02484,0.92926
-2.02179,0.927734
-2.02179,0.924683
-2.02179,0.932312
-2.02179,0.930786
-2.02179,0.92926
-2.02179,0.92926
-2.01874,0.924683
-2.02026,0.930786
-2.02484,0.92926
-2.02484,0.92926
-2.02026,0.930786
-2.01874,0.927734
-2.01874,0.92926
-2.02179,0.930786
-2.02179,0.930786
-2.02179,0.92926
-2.02484,0.924683
-2.02637,0.927734
-2.02942,0.930786
-2.02637,0.930786
-2.03094,0.927734
-2.03552,0.92926
-2.03705,0.932312
-2.03705,0.930786
-2.0401,0.932312
-2.04315,0.927734
-2.04468,0.926208
-2.04773,0.926208
-2.04926,0.930786
-2.05231,0.92926
-2.05383,0.926208
-2.05841,0.930786
-2.06146,0.92926
-2.06451,0.92926
-2.06757,0.930786
-2.06604,0.927734
-2.07367,0.926208
-2.07672,0.930786
-2.07977,0.926208
-2.07977,0.92926
-2.08435,0.92926
-2.09045,0.926208
-2.09198,0.92926
-2.09503,0.92926
-2.09961,0.927734
-2.10419,0.927734
-2.10724,0.926208
-2.11029,0.927734
-2.11487,0.927734
-2.11639,0.930786
-2.12097,0.927734
-2.12708,0.927734
-2.13013,0.926208
-2.13013,0.930786
-2.1347,0.927734
-2.13928,0.92926
-2.14081,0.923157
-2.14691,0.927734
-2.15302,0.930786
-2.15149,0.92926
-2.15454,0.926208
-2.16217,0.923157
-2.1637,0.927734
-2.16675,0.932312
-2.17133,0.92926
-2.17285,0.926208
-2.17896,0.924683
-2.18658,0.927734
-2.18811,0.92926
-2.19116,0.927734
-2.19421,0.924683
-2.19727,0.924683
-2.20337,0.92926
-2.20184,0.926208
-2.20642,0.927734
-2.21405,0.927734
-2.20947,0.926208
-2.2171,0.927734
-2.22015,0.927734
-2.22473,0.927734
-2.22778,0.921631
-2.22778,0.926208
-2.22931,0.924683
-2.23389,0.927734
-2.23389,0.927734
-2.23999,0.924683
-2.23999,0.924683
-2.24304,0.926208
-2.24609,0.927734
-2.24915,0.927734
-2.25067,0.923157
-2.25372,0.926208
-2.25372,0.927734
-2.25525,0.927734
-2.26135,0.927734
-2.25983,0.926208
-2.26288,0.924683
-2.26593,0.926208
-2.26898,0.927734
-2.27051,0.927734
-2.27814,0.926208
-2.28119,0.923157
-2.27966,0.926208
-2.28424,0.927734
-2.28424,0.92926
-2.29034,0.924683
-2.29187,0.924683
-2.29492,0.926208
-2.30103,0.92926
-2.30255,0.926208
-2.30255,0.926208
-2.30713,0.923157
-2.31323,0.926208
-2.31781,0.927734
-2.32086,0.926208
-2.32391,0.924683
-2.32697,0.923157
-2.33002,0.924683
-2.33459,0.927734
-2.33765,0.927734
-2.34375,0.924683
-2.34528,0.924683
-2.34833,0.924683
-2.35443,0.926208
-2.35596,0.924683
-2.36053,0.924683
-2.36206,0.920105
-2.36359,0.924683
-2.36969,0.926208
-2.37274,0.926208
-2.37579,0.924683
-2.38037,0.921631
-2.38342,0.924683
-2.38495,0.924683
-2.39105,0.924683
-2.39258,0.923157
-2.3941,0.923157
-2.40479,0.923157
-2.40021,0.926208
-2.40631,0.924683
-2.41089,0.923157
-2.40936,0.923157
-2.41699,0.926208
-2.41699,0.924683
-2.4231,0.927734
-2.42462,0.921631
-2.43225,0.921631
-2.43225,0.923157
-2.43683,0.924683
-2.44293,0.924683
-2.44598,0.918579
-2.45209,0.921631
-2.45361,0.921631
-2.45819,0.924683
-2.46124,0.927734
-2.46887,0.924683
-2.46887,0.923157
-2.47498,0.923157
-2.47803,0.924683
-2.48413,0.924683
-2.49023,0.921631
-2.49023,0.923157
-2.49634,0.920105
-2.50092,0.926208
-2.50854,0.924683
-2.51007,0.923157
-2.5177,0.921631
-2.52075,0.921631
-2.5238,0.924683
-2.52838,0.924683
-2.53296,0.920105
-2.53601,0.924683
-2.54211,0.923157
-2.54211,0.926208
-2.54517,0.924683
-2.54364,0.921631
-2.54517,0.923157
-2.53906,0.926208
-2.53601,0.923157
-2.52533,0.923157
-2.51923,0.920105
-2.50702,0.918579
-2.49329,0.921631
-2.47955,0.926208
-2.46124,0.921631
-2.44446,0.923157
-2.42615,0.921631
-2.40631,0.921631
-2.388,0.924683
-2.36359,0.924683
-2.34222,0.920105
-2.32086,0.920105
-2.29645,0.923157
-2.27509,0.923157
-2.25525,0.926208
-2.23541,0.918579
-2.21558,0.920105
-2.19727,0.924683
-2.17438,0.926208
-2.15912,0.920105
-2.13776,0.921631
-2.12402,0.920105
-2.10724,0.921631
-2.09351,0.923157
-2.07825,0.924683
-2.06757,0.920105
-2.05688,0.921631
-2.04468,0.921631
-2.03552,0.921631
-2.02789,0.924683
-2.01721,0.918579
-2.00958,0.918579
-2.005,0.920105
-1.99738,0.921631
-1.99432,0.921631
-1.98822,0.920105
-1.98364,0.918579
-1.98059,0.920105
-1.97754,0.924683
-1.97601,0.923157
-1.97449,0.918579
-1.97296,0.920105
-1.97144,0.920105
-1.96686,0.921631
-1.96533,0.924683
-1.96228,0.920105
-1.96533,0.914001
-1.96838,0.921631
-1.96686,0.921631
-1.96533,0.921631
-1.96533,0.915527
-1.96838,0.918579
-1.96533,0.918579
-1.96533,0.918579
-1.96381,0.924683
-1.96686,0.915527
-1.96686,0.918579
-1.96533,0.920105
-1.96686,0.921631
-1.96533,0.920105
-1.96686,0.915527
-1.96686,0.920105
-1.96838,0.914001
-1.96686,0.920105
-1.96838,0.920105
-1.96686,0.915527
-1.96991,0.914001
-1.97296,0.915527
-1.97144,0.921631
-1.97144,0.921631
-1.97296,0.918579
-1.97601,0.918579
-1.97601,0.920105
-1.97754,0.920105
-1.97449,0.920105
-1.97906,0.915527
-1.97601,0.914001
-1.97906,0.915527
-1.97906,0.920105
-1.97906,0.920105
-1.98212,0.918579
-1.98212,0.918579
-1.98212,0.912476
-1.97754,0.915527
-1.98059,0.920105
-1.97906,0.914001
-1.97906,0.921631
-1.97906,0.914001
-1.97906,0.920105
-1.97906,0.921631
-1.97449,0.914001
-1.97449,0.914001
-1.97601,0.915527
-1.97449,0.921631
-1.97296,0.915527
-1.96991,0.915527
-1.97144,0.915527
-1.96838,0.915527
-1.96686,0.920105
-1.96838,0.915527
-1.96686,0.915527
-1.96686,0.915527
-1.96838,0.914001
-1.96686,0.921631
-1.96686,0.918579
-1.96686,0.918579
-1.96838,0.912476
-1.96838,0.914001
-1.96838,0.920105
-1.96838,0.918579
-1.97296,0.915527
-1.97144,0.914001
-1.97296,0.91095
-1.97906,0.915527
-1.97601,0.914001
-1.98212,0.912476
-1.98517,0.914001
-1.98669,0.915527
-1.98517,0.915527
-1.98517,0.920105
-1.98822,0.912476
-1.9928,0.914001
-1.99585,0.912476
-1.99585,0.915527
-2.00043,0.915527
-2.00195,0.914001
-2.005,0.914001
-2.00348,0.915527
-2.00806,0.918579
-2.01111,0.914001
-2.01416,0.91095
-2.01874,0.914001
-2.02179,0.91095
-2.02789,0.914001
-2.02789,0.915527
-2.03247,0.914001
-2.03552,0.912476
-2.03857,0.91095
-2.04315,0.914001
-2.04773,0.914001
-2.05231,0.909424
-2.05688,0.91095
-2.05841,0.912476
-2.06146,0.912476
-2.06451,0.915527
-2.06757,0.91095
-2.07214,0.91095
-2.07367,0.912476
-2.07672,0.915527
-2.0813,0.918579
-2.08588,0.912476
-2.08435,0.914001
-2.09351,0.915527
-2.09198,0.914001
-2.09656,0.914001
-2.09961,0.909424
-2.10266,0.909424
-2.10419,0.909424
-2.10876,0.915527
-2.11182,0.918579
-2.11334,0.912476
-2.11487,0.91095
-2.11945,0.909424
-2.12402,0.914001
-2.1225,0.914001
-2.13013,0.912476
-2.13165,0.91095
-2.13318,0.914001
-2.13318,0.914001
-2.1347,0.912476
-2.13623,0.91095
-2.13928,0.91095
-2.13776,0.912476
-2.13928,0.915527
-2.14081,0.912476
-2.14691,0.909424
-2.14539,0.91095
-2.14539,0.915527
-2.14844,0.918579
-2.15302,0.91095
-2.15149,0.909424
-2.15302,0.91095
-2.15607,0.909424
-2.15912,0.912476
-2.16064,0.914001
-2.16217,0.91095
-2.16522,0.91095
-2.16827,0.912476
-2.16827,0.914001
-2.1698,0.91095
-2.17133,0.909424
-2.17896,0.91095
-2.18048,0.91095
-2.18048,0.914001
-2.18506,0.914001
-2.18964,0.909424
-2.19269,0.909424
-2.19116,0.912476
-2.19574,0.912476
-2.19727,0.91095
-2.20032,0.909424
-2.20032,0.909424
-2.2049,0.91095
-2.20947,0.914001
-2.21558,0.912476
-2.21558,0.91095
-2.22015,0.907898
-2.22168,0.91095
-2.22626,0.912476
-2.23083,0.91095
-2.23389,0.91095
-2.23846,0.909424
-2.23999,0.909424
-2.24152,0.91095
-2.24915,0.91095
-2.2522,0.91095
-2.25372,0.906372
-2.2583,0.909424
-2.26135,0.91095
-2.2644,0.91095
-2.26898,0.906372
-2.27203,0.907898
-2.27203,0.909424
-2.27966,0.914001
-2.28424,0.912476
-2.28729,0.907898
-2.28882,0.907898
-2.2934,0.909424
-2.29645,0.909424
-2.30103,0.909424
-2.30408,0.909424
-2.30713,0.907898
-2.31171,0.907898
-2.31323,0.91095
-2.31934,0.909424
-2.31934,0.904846
-2.32391,0.907898
-2.32849,0.909424
-2.33002,0.909424
-2.33765,0.91095
-2.3407,0.906372
-2.35138,0.907898
-2.34985,0.909424
-2.35443,0.91095
-2.35443,0.909424
-2.36206,0.907898
-2.36206,0.904846
-2.36511,0.907898
-2.36664,0.91095
-2.36969,0.909424
-2.36664,0.909424
-2.36816,0.904846
-2.36359,0.906372
-2.35748,0.91095
-2.34833,0.909424
-2.33612,0.906372
-2.33002,0.906372
-2.31171,0.906372
-2.2995,0.91095
-2.28271,0.907898
-2.26593,0.907898
-2.24915,0.904846
-2.22931,0.907898
-2.20795,0.91095
-2.19269,0.906372
-2.1698,0.907898
-2.15302,0.906372
-2.13318,0.906372
-2.11334,0.907898
-2.09503,0.912476
-2.07367,0.90332
-2.05841,0.906372
-2.0401,0.907898
-2.02484,0.912476
-2.00806,0.909424
-1.98975,0.906372
-1.97906,0.904846
-1.96533,0.907898
-1.95007,0.907898
-1.93939,0.906372
-1.93024,0.90332
-1.91803,0.904846
-1.9104,0.906372
-1.90277,0.907898
-1.89209,0.907898
-1.88446,0.906372
-1.87683,0.907898
-1.87225,0.91095
-1.86768,0.907898
-1.85852,0.907898
-1.85394,0.907898
-1.85089,0.90332
-1.84784,0.907898
-1.84479,0.909424
-1.84326,0.909424
-1.84174,0.909424
-1.84174,0.907898
-1.84021,0.907898
-1.83563,0.91095
-1.83258,0.91095
-1.83563,0.904846
-1.83563,0.904846
-1.83258,0.909424
-1.83563,0.91095
-1.83563,0.907898
-1.83563,0.907898
-1.83563,0.907898
-1.83258,0.91095
-1.83716,0.907898
-1.83258,0.91095
-1.83868,0.904846
-1.84021,0.907898
-1.84326,0.907898
-1.84784,0.909424
-1.84784,0.91095
-1.85089,0.906372
-1.85394,0.906372
-1.85547,0.90332
-1.85699,0.909424
-1.8631,0.907898
-1.86768,0.907898
-1.8692,0.906372
-1.87378,0.904846
-1.87836,0.907898
-1.87683,0.907898
-1.87836,0.909424
-1.88446,0.906372
-1.88599,0.907898
-1.88751,0.909424
-1.88751,0.909424
-1.88751,0.907898
-1.89056,0.906372
-1.89056,0.907898
-1.89056,0.91095
-1.89056,0.909424
-1.89362,0.906372
-1.89056,0.907898
-1.89362,0.907898
-1.89209,0.91095
-1.89056,0.91095
-1.89209,0.909424
-1.88904,0.904846
-1.88751,0.907898
-1.88446,0.914001
-1.88141,0.91095
-1.88141,0.906372
-1.87988,0.907898
-1.87531,0.906372
-1.87378,0.907898
-1.87225,0.91095
-1.8692,0.906372
-1.8692,0.904846
-1.8692,0.909424
-1.86462,0.912476
-1.86462,0.91095
-1.86157,0.907898
-1.86462,0.906372
-1.86005,0.91095
-1.86157,0.91095
-1.8631,0.91095
-1.86005,0.912476
-1.8631,0.909424
-1.86005,0.91095
-1.86157,0.915527
-1.86462,0.912476
-1.86462,0.907898
-1.8692,0.907898
-1.8692,0.909424
-1.87225,0.912476
-1.87531,0.912476
-1.87836,0.909424
-1.88141,0.909424
-1.88599,0.914001
-1.88904,0.915527
-1.89514,0.914001
-1.89819,0.912476
-1.90125,0.912476
-1.90582,0.914001
-1.91193,0.912476
-1.91345,0.914001
-1.9165,0.907898
-1.92108,0.912476
-1.92719,0.912476
-1.93024,0.914001
-1.93329,0.915527
-1.93939,0.912476
-1.94397,0.91095
-1.9455,0.912476
-1.95007,0.920105
-1.95618,0.915527
-1.96381,0.914001
-1.96991,0.91095
-1.97144,0.915527
-1.97906,0.918579
-1.98364,0.915527
-1.98669,0.915527
-1.98975,0.914001
-1.9989,0.920105
-2.00043,0.921631
-2.005,0.918579
-2.00958,0.918579
-2.01721,0.915527
-2.01874,0.918579
-2.02179,0.921631
-2.02789,0.918579
-2.03094,0.915527
-2.03705,0.915527
-2.03857,0.918579
-2.04315,0.920105
-2.0462,0.921631
-2.05078,0.920105
-2.05688,0.920105
-2.06146,0.920105
-2.06299,0.921631
-2.06604,0.920105
-2.06909,0.915527
-2.0752,0.920105
-2.07825,0.918579
-2.08282,0.921631
-2.08435,0.918579
-2.09045,0.918579
-2.09503,0.918579
-2.09961,0.920105
-2.09961,0.923157
-2.10419,0.923157
-2.10571,0.921631
-2.11182,0.923157
-2.11639,0.920105
-2.12402,0.921631
-2.1225,0.924683
-2.13165,0.920105
-2.13318,0.920105
-2.13928,0.923157
-2.14081,0.926208
-2.14691,0.923157
-2.14691,0.921631
-2.15149,0.921631
-2.15759,0.921631
-2.15454,0.923157
-2.15759,0.924683
-2.16217,0.923157
-2.16675,0.923157
-2.17133,0.926208
-2.1759,0.926208
-2.17896,0.926208
-2.18506,0.924683
-2.18353,0.923157
-2.18658,0.926208
-2.19116,0.927734
-2.19574,0.926208
-2.19574,0.924683
-2.20184,0.924683
-2.2049,0.926208
-2.20795,0.927734
-2.21558,0.927734
-2.21558,0.927734
-2.22168,0.924683
-2.22473,0.924683
-2.22626,0.92926
-2.23083,0.927734
-2.23694,0.921631
-2.23999,0.921631
-2.24304,0.92926
-2.24762,0.927734
-2.2522,0.927734
-2.2583,0.926208
-2.2583,0.926208
-2.26593,0.927734
-2.26746,0.933838
-2.26898,0.92926
-2.27203,0.924683
-2.28271,0.924683
-2.28271,0.927734
-2.28729,0.927734
-2.2934,0.926208
-2.29797,0.926208
-2.30255,0.927734
-2.30713,0.92926
-2.31323,0.92926
-2.31628,0.92926
-2.32239,0.927734
-2.32391,0.926208
-2.33002,0.930786
-2.33612,0.932312
-2.33612,0.92926
-2.34375,0.92926
-2.34833,0.926208
-2.35291,0.930786
-2.36053,0.933838
-2.36511,0.932312
-2.36664,0.930786
-2.37427,0.932312
-2.37732,0.930786
-2.38342,0.933838
-2.38953,0.932312
-2.39258,0.932312
-2.39563,0.930786
-2.40021,0.935364
-2.40631,0.933838
-2.40784,0.933838
-2.40936,0.932312
-2.40784,0.930786
-2.40784,0.935364
-2.40173,0.935364
-2.39716,0.935364
-2.38647,0.930786
-2.37885,0.92926
-2.36359,0.935364
-2.3468,0.935364
-2.32849,0.935364
-2.30713,0.932312
-2.28577,0.932312
-2.2644,0.935364
-2.23694,0.938416
-2.21558,0.938416
-2.19116,0.933838
-2.16675,0.932312
-2.14386,0.933838
-2.11639,0.93689
-2.09198,0.935364
-2.06909,0.933838
-2.04315,0.935364
-2.01874,0.935364
-1.99585,0.938416
-1.97144,0.93689
-1.95007,0.93689
-1.92719,0.933838
-1.90735,0.93689
-1.88141,0.939941
-1.86157,0.93689
-1.84326,0.935364
-1.8219,0.935364
-1.80969,0.938416
-1.78833,0.938416
-1.77612,0.93689
-1.75934,0.93689
-1.74713,0.932312
-1.73187,0.938416
-1.72272,0.938416
-1.70898,0.939941
-1.70135,0.935364
-1.6922,0.935364
-1.6861,0.93689
-1.67694,0.935364
-1.67236,0.939941
-1.66626,0.935364
-1.65863,0.93689
-1.65405,0.935364
-1.651,0.939941
-1.64337,0.93689
-1.64032,0.93689
-1.63574,0.93689
-1.63269,0.938416
-1.63116,0.938416
-1.62964,0.938416
-1.62506,0.93689
-1.62354,0.935364
-1.62354,0.939941
-1.62354,0.942993
-1.62354,0.941467
-1.62048,0.939941
-1.62201,0.938416
-1.62048,0.939941
-1.61896,0.939941
-1.61743,0.939941
-1.61896,0.938416
-1.61743,0.938416
-1.61896,0.938416
-1.61743,0.941467
-1.61591,0.941467
-1.61896,0.93689
-1.62048,0.93689
-1.62201,0.939941
-1.62201,0.941467
-1.62659,0.938416
-1.62659,0.939941
-1.62811,0.933838
-1.62964,0.939941
-1.63269,0.941467
-1.63574,0.938416
-1.63727,0.938416
-1.64032,0.935364
-1.64185,0.938416
-1.63879,0.942993
-1.64185,0.939941
-1.64337,0.93689
-1.64642,0.938416
-1.64642,0.938416
-1.64948,0.939941
-1.64948,0.939941
-1.65405,0.939941
-1.64948,0.938416
-1.651,0.939941
-1.64948,0.941467
-1.64795,0.939941
-1.64795,0.939941
-1.64642,0.938416
-1.64337,0.938416
-1.64185,0.941467
-1.64337,0.941467
-1.64185,0.939941
-1.64032,0.93689
-1.63727,0.941467
-1.63574,0.939941
-1.63269,0.941467
-1.63269,0.935364
-1.63116,0.93689
-1.62811,0.941467
-1.62964,0.939941
-1.62659,0.938416
-1.62506,0.93689
-1.62659,0.938416
-1.62506,0.939941
-1.62811,0.941467
-1.62354,0.941467
-1.62659,0.939941
-1.62811,0.941467
-1.62506,0.941467
-1.62964,0.939941
-1.62964,0.941467
-1.62964,0.938416
-1.62964,0.938416
-1.63422,0.938416
-1.63422,0.941467
-1.63879,0.939941
-1.64185,0.939941
-1.64185,0.935364
-1.64642,0.939941
-1.64795,0.941467
-1.651,0.939941
-1.66016,0.93689
-1.66168,0.93689
-1.66473,0.939941
-1.66779,0.942993
-1.67847,0.941467
-1.68304,0.938416
-1.6861,0.93689
-1.69067,0.941467
-1.69678,0.939941
-1.70288,0.938416
-1.70898,0.939941
-1.71509,0.935364
-1.71967,0.938416
-1.72577,0.942993
-1.73187,0.939941
-1.73645,0.938416
-1.74103,0.939941
-1.74866,0.942993
-1.75018,0.942993
-1.75934,0.941467
-1.76239,0.939941
-1.76697,0.93689
-1.77612,0.939941
-1.78375,0.942993
-1.78833,0.941467
-1.79138,0.939941
-1.79596,0.93689
-1.80359,0.938416
-1.80817,0.941467
-1.81122,0.938416
-1.8158,0.938416
-1.82343,0.941467
-1.82648,0.93689
-1.83105,0.942993
-1.83868,0.93689
-1.84174,0.938416
-1.84937,0.938416
-1.85242,0.938416
-1.86005,0.939941
-1.8692,0.939941
-1.87073,0.938416
-1.87836,0.93689
-1.88293,0.938416
-1.88751,0.944519
-1.89056,0.939941
-1.89514,0.93689
-1.9043,0.938416
-1.90735,0.93689
-1.91193,0.941467
-1.9165,0.941467
-1.92108,0.93689
-1.92413,0.93689
-1.93176,0.938416
-1.93634,0.941467
-1.93939,0.939941
-1.94397,0.938416
-1.94702,0.933838
-1.95313,0.935364
-1.95618,0.942993
-1.96228,0.938416
-1.96686,0.935364
-1.97144,0.93689
-1.97449,0.938416
-1.97906,0.941467
-1.98212,0.939941
-1.98669,0.938416
-1.9928,0.933838
-1.99738,0.93689
-1.9989,0.939941
-2.00348,0.938416
-2.00958,0.93689
-2.01416,0.933838
-2.01569,0.935364
-2.02026,0.938416
-2.02179,0.939941
-2.02789,0.935364
-2.03247,0.93689
-2.03857,0.933838
-2.0401,0.938416
-2.04315,0.93689
-2.04315,0.93689
-2.04926,0.935364
-2.05383,0.93689
-2.05994,0.939941
-2.06451,0.939941
-2.06909,0.933838
-2.07367,0.935364
-2.0752,0.933838
-2.0813,0.938416
-2.08435,0.938416
-2.09351,0.932312
-2.09503,0.935364
-2.10114,0.935364
-2.10571,0.935364
-2.11029,0.933838
-2.12097,0.935364
-2.12097,0.933838
-2.1286,0.935364
-2.13318,0.93689
-2.13623,0.938416
-2.14233,0.932312
-2.14691,0.932312
-2.15607,0.93689
-2.15607,0.938416
-2.16064,0.93689
-2.16675,0.935364
-2.16827,0.932312
-2.17438,0.935364
-2.18048,0.93689
-2.18048,0.93689
-2.18964,0.933838
-2.19421,0.933838
-2.20337,0.933838
-2.20337,0.935364
-2.20642,0.935364
-2.211,0.935364
-2.22015,0.930786
-2.22626,0.933838
-2.22778,0.939941
-2.23389,0.933838
-2.23846,0.932312
-2.24762,0.933838
-2.25372,0.933838
-2.2583,0.938416
-2.26288,0.935364
-2.26898,0.930786
-2.27356,0.932312
-2.27966,0.932312
-2.28119,0.93689
-2.28577,0.938416
-2.28577,0.930786
-2.28271,0.930786
-2.28424,0.935364
-2.27814,0.935364
-2.27051,0.933838
-2.25983,0.930786
-2.24609,0.927734
-2.22931,0.933838
-2.2049,0.933838
-2.18811,0.930786
-2.16217,0.932312
-2.14386,0.92926
-2.11639,0.930786
-2.09351,0.933838
-2.06146,0.933838
-2.0401,0.930786
-2.01111,0.930786
-1.98364,0.930786
-1.9577,0.933838
-1.93176,0.930786
-1.9043,0.933838
-1.87836,0.930786
-1.85242,0.92926
-1.82648,0.932312
-1.80054,0.933838
-1.77917,0.930786
-1.75323,0.92926
-1.72882,0.932312
-1.70441,0.930786
-1.68457,0.932312
-1.66321,0.92926
-1.64337,0.92926
-1.62811,0.92926
-1.6098,0.932312
-1.59302,0.930786
-1.57776,0.927734
-1.56555,0.927734
-1.55487,0.92926
-1.53656,0.930786
-1.52893,0.932312
-1.51672,0.930786
-1.50604,0.924683
-1.49994,0.932312
-1.48926,0.930786
-1.48468,0.933838
-1.47705,0.92926
-1.474,0.927734
-1.46942,0.92926
-1.46484,0.930786
-1.46179,0.932312
-1.46027,0.927734
-1.46179,0.926208
-1.45721,0.92926
-1.45721,0.927734
-1.45569,0.927734
-1.45264,0.924683
-1.45264,0.927734
-1.45569,0.92926
-1.44958,0.927734
-1.45111,0.927734
-1.45111,0.924683
-1.45111,0.924683
-1.44806,0.926208
-1.45264,0.92926
-1.45111,0.92926
-1.45264,0.927734
-1.45569,0.921631
-1.45721,0.927734
-1.46179,0.927734
-1.46484,0.926208
-1.46637,0.926208
-1.46942,0.926208
-1.474,0.926208
-1.47552,0.927734
-1.47858,0.927734
-1.48163,0.923157
-1.48773,0.924683
-1.48773,0.927734
-1.48926,0.92926
-1.49231,0.927734
-1.49689,0.927734
-1.49994,0.921631
-1.49994,0.923157
-1.49841,0.926208
-1.50146,0.924683
-1.50452,0.921631
-1.50452,0.920105
-1.50909,0.926208
-1.51062,0.92926
-1.50909,0.926208
-1.51215,0.923157
-1.50909,0.923157
-1.50909,0.924683
-1.50909,0.924683
-1.50604,0.924683
-1.50604,0.923157
-1.50452,0.923157
-1.50452,0.923157
-1.50299,0.926208
-1.49994,0.927734
-1.49841,0.923157
-1.49841,0.924683
-1.49536,0.923157
-1.49536,0.926208
-1.49384,0.924683
-1.49231,0.926208
-1.48926,0.921631
-1.48926,0.921631
-1.48468,0.921631
-1.48468,0.923157
-1.48163,0.918579
-1.4801,0.921631
-1.47858,0.923157
-1.47858,0.923157
-1.47705,0.923157
-1.47705,0.921631
-1.47705,0.921631
-1.4801,0.923157
-1.48163,0.923157
-1.4801,0.923157
-1.48468,0.918579
-1.48315,0.920105
-1.48468,0.920105
-1.49078,0.923157
-1.49078,0.926208
-1.49536,0.920105
-1.50146,0.918579
-1.50299,0.923157
-1.50757,0.921631
-1.51215,0.923157
-1.51978,0.920105
-1.52588,0.920105
-1.53198,0.921631
-1.53656,0.924683
-1.54114,0.920105
-1.55029,0.918579
-1.5564,0.914001
-1.56097,0.920105
-1.56708,0.921631
-1.57471,0.923157
-1.58234,0.923157
-1.58997,0.920105
-1.59454,1.02081
-1.60065,0.920105
-1.6098,0.924683
-1.61591,0.918579
-1.62354,0.918579
-1.62964,0.920105
-1.63727,0.921631
-1.64185,0.920105
-1.65253,0.920105
-1.6571,0.915527
-1.66321,0.921631
-1.66931,0.920105
-1.67236,0.921631
-1.68457,0.920105
-1.68915,0.920105
-1.6922,0.918579
-1.70135,0.920105
-1.70898,0.918579
-1.71204,0.915527
-1.71814,0.915527
-1.72424,0.918579
-1.73187,0.921631
-1.73798,0.915527
-1.74561,0.915527
-1.74866,0.912476
-1.75629,0.920105
-1.76392,0.921631
-1.76849,0.918579
-1.77612,0.914001
-1.77917,0.918579
-1.79138,0.918579
-1.79138,0.920105
-1.80054,0.920105
-1.80359,0.914001
-1.80969,0.915527
-1.8158,0.915527
-1.81885,0.915527
-1.82495,0.920105
-1.82953,0.918579
-1.83868,0.914001
-1.84326,0.915527
-1.85089,0.915527
-1.85394,0.921631
-1.85699,0.912476
-1.86768,0.912476
-1.8692,0.920105
-1.87531,0.915527
-1.87683,0.918579
-1.88141,0.918579
-1.88751,0.915527
-1.88904,0.915527
-1.89514,0.918579
-1.89819,0.920105
-1.90582,0.914001
-1.90735,0.912476
-1.90887,0.920105
-1.91498,0.918579
-1.9165,0.918579
-1.91956,0.920105
-1.92413,0.914001
-1.93176,0.915527
-1.93176,0.915527
-1.93634,0.918579
-1.94244,0.915527
-1.94855,0.912476
-1.95313,0.918579
-1.9577,0.920105
-1.96228,0.918579
-1.96838,0.918579
-1.97754,0.915527
-1.98517,0.915527
-1.98822,0.915527
-1.9928,0.915527
-1.9989,0.918579
-2.00653,0.915527
-2.01111,0.918579
-2.01569,0.920105
-2.02179,0.921631
-2.01874,0.915527
-2.02484,0.915527
-2.02484,0.915527
-2.02026,0.914001
-2.01721,0.920105
-2.00958,0.920105
-2.00195,0.915527
-1.9928,0.915527
-1.97754,0.918579
-1.96228,0.915527
-1.9455,0.91095
-1.92566,0.912476
-1.9043,0.915527
-1.88293,0.914001
-1.86005,0.915527
-1.83868,0.912476
-1.81427,0.914001
-1.78833,0.915527
-1.76239,0.915527
-1.73798,0.915527
-1.71051,0.914001
-1.68304,0.914001
-1.66168,0.918579
-1.63269,0.914001
-1.60828,0.920105
-1.58386,0.912476
-1.5564,0.914001
-1.53656,0.918579
-1.50757,0.918579
-1.48315,0.915527
-1.46332,0.91095
-1.44043,0.914001
-1.41754,0.920105
-1.39771,0.914001
-1.37939,0.918579
-1.35803,0.915527
-1.34277,0.912476
-1.32599,0.920105
-1.31226,0.920105
-1.30005,0.920105
-1.28937,0.912476
-1.27716,0.914001
-1.26801,0.918579
-1.25732,0.918579
-1.24969,0.920105
-1.24207,0.915527
-1.23749,0.915527
-1.23444,0.915527
-1.22833,0.914001
-1.22528,0.921631
-1.22223,0.915527
-1.21765,0.918579
-1.21765,0.920105
-1.21613,0.921631
-1.2146,0.921631
-1.21613,0.920105
-1.21613,0.914001
-1.2207,0.914001
-1.21918,0.920105
-1.2207,0.915527
-1.2207,0.915527
-1.22528,0.914001
-1.22833,0.920105
-1.23138,0.918579
-1.23138,0.918579
-1.23596,0.914001
-1.24054,0.918579
-1.24512,0.920105
-1.24664,0.915527
-1.25427,0.920105
-1.26038,0.914001
-1.26648,0.915527
-1.27258,0.920105
-1.27563,0.920105
-1.28021,0.915527
-1.28479,0.915527
-1.29089,0.915527
-1.29395,0.918579
-1.30157,0.920105
-1.30615,0.918579
-1.31073,0.918579
-1.31683,0.918579
-1.32141,0.918579
-1.32599,0.920105
-1.33057,0.921631
-1.33514,0.915527
-1.33514,0.915527
-1.34125,0.918579
-1.34277,0.920105
-1.34735,0.918579
-1.34888,0.920105
-1.35345,0.918579
-1.35193,0.920105
-1.35345,0.920105
-1.35651,0.921631
-1.35345,0.920105
-1.35651,0.915527
-1.35651,0.921631
-1.35651,0.918579
-1.35345,0.920105
-1.35498,0.915527
-1.35498,0.918579
-1.35193,0.923157
-1.3504,0.921631
-1.3504,0.924683
-1.35193,0.921631
-1.35345,0.915527
-1.35498,0.921631
-1.35193,0.920105
-1.35345,0.921631
-1.35345,0.920105
-1.35498,0.920105
-1.35498,0.923157
-1.35498,0.918579
-1.35651,0.918579
-1.36108,0.918579
-1.36414,0.920105
-1.36719,0.923157
-1.36871,0.921631
-1.37177,0.923157
-1.37787,0.920105
-1.38092,0.918579
-1.38397,0.923157
-1.3855,0.920105
-1.39618,0.921631
-1.39923,0.923157
-1.40533,0.920105
-1.41449,0.924683
-1.41907,0.921631
-1.42822,0.924683
-1.43433,0.918579
-1.44196,0.920105
-1.44806,0.924683
-1.45569,0.918579
-1.46179,0.920105
-1.47095,0.920105
-1.47858,0.918579
-1.48773,0.921631
-1.49536,0.921631
-1.50146,0.923157
-1.51062,0.920105
-1.52283,0.918579
-1.53046,0.923157
-1.53503,0.920105
-1.54114,0.921631
-1.55334,0.920105
-1.55945,0.915527
-1.5686,0.921631
-1.57623,0.918579
-1.58539,0.918579
-1.59607,0.920105
-1.60522,0.921631
-1.6098,0.921631
-1.62201,0.918579
-1.62659,0.923157
-1.63422,0.918579
-1.64337,0.915527
-1.65253,0.921631
-1.66016,0.921631
-1.66626,0.921631
-1.67389,0.918579
-1.68304,0.920105
-1.68915,0.921631
-1.69678,0.918579
-1.70135,0.921631
-1.70898,0.920105
-1.71661,0.920105
-1.72272,0.924683
-1.72882,0.918579
-1.73187,0.924683
-1.74103,0.918579
-1.74713,0.921631
-1.75629,0.921631
-1.76239,0.923157
-1.76544,0.923157
-1.7746,0.920105
-1.77765,0.918579
-1.78223,0.921631
-1.78986,0.918579
-1.79749,0.921631
-1.80511,0.918579
-1.80969,0.920105
-1.81427,0.918579
-1.8219,0.920105
-1.828,0.918579
-1.83105,0.914001
-1.83716,0.918579
-1.84326,0.920105
-1.84631,0.914001
-1.85394,0.920105
-1.86005,0.915527
-1.86462,0.920105
-1.87378,0.923157
-1.87836,0.915527
-1.88751,0.918579
-1.89056,0.915527
-1.89819,0.918579
-1.90277,0.920105
-1.90887,0.920105
-1.91498,0.920105
-1.91956,0.915527
-1.92566,0.920105
-1.93176,0.921631
-1.93634,0.915527
-1.9455,0.921631
-1.94702,0.915527
-1.95618,0.915527
-1.96381,0.923157
-1.96686,0.920105
-1.97449,0.921631
-1.97906,0.921631
-1.98669,0.921631
-1.98975,0.923157
-1.9928,0.918579
-2.00043,0.921631
-2.00806,0.918579
-2.01111,0.924683
-2.01721,0.921631
-2.02179,0.923157
-2.03094,0.923157
-2.03552,0.921631
-2.04163,0.915527
-2.04926,0.923157
-2.05841,0.921631
-2.06604,0.924683
-2.07062,0.920105
-2.07825,0.921631
-2.08282,0.924683
-2.09351,0.923157
-2.09961,0.921631
-2.10266,0.920105
-2.11029,0.923157
-2.12097,0.923157
-2.12708,0.924683
-2.13623,0.921631
-2.14081,0.921631
-2.14844,0.920105
-2.15607,0.926208
-2.16675,0.921631
-2.17285,0.923157
-2.17743,0.918579
-2.18353,0.923157
-2.18048,0.923157
-2.18353,0.924683
-2.18048,0.923157
-2.18048,0.921631
-2.1698,0.923157
-2.15912,0.923157
-2.14386,0.920105
-2.1286,0.921631
-2.10724,0.920105
-2.08893,0.921631
-2.06604,0.921631
-2.04163,0.921631
-2.01416,0.923157
-1.98822,0.921631
-1.96381,0.918579
-1.93024,0.923157
-1.9043,0.923157
-1.87225,0.923157
-1.84326,0.920105
-1.81122,0.918579
-1.78223,0.920105
-1.75171,0.921631
-1.71967,0.921631
-1.68915,0.921631
-1.6571,0.918579
-1.62659,0.921631
-1.59607,0.921631
-1.5686,0.921631
-1.53809,0.921631
-1.51367,0.920105
-1.48773,0.921631
-1.46179,0.924683
-1.4389,0.920105
-1.41449,0.920105
-1.39465,0.918579
-1.37482,0.920105
-1.35651,0.921631
-1.34277,0.923157
-1.32294,0.918579
-1.3092,0.918579
-1.29242,0.918579
-1.28326,0.923157
-1.27106,0.924683
-1.26038,0.920105
-1.25275,0.918579
-1.24512,0.921631
-1.24054,0.918579
-1.23596,0.921631
-1.23138,0.918579
-1.22833,0.921631
-1.22375,0.918579
-1.21918,0.923157
-1.22223,0.923157
-1.21765,0.921631
-1.21918,0.921631
-1.21613,0.918579
-1.21613,0.921631
-1.21918,0.920105
-1.2146,0.918579
-1.2207,0.920105
-1.22223,0.920105
-1.22223,0.921631
-1.22223,0.923157
-1.22528,0.920105
-1.22833,0.920105
-1.22986,0.923157
-1.23444,0.921631
-1.23444,0.921631
-1.23749,0.923157
-1.24207,0.921631
-1.24512,0.921631
-1.24664,0.921631
-1.25122,0.920105
-1.25732,0.914001
-1.2619,0.920105
-1.26648,0.914001
-1.26953,0.921631
-1.27411,0.920105
-1.27869,0.918579
-1.28174,0.918579
-1.28479,0.921631
-1.28784,0.921631
-1.29395,0.921631
-1.30005,0.915527
-1.30157,0.920105
-1.30768,0.920105
-1.3092,0.926208
-1.31073,0.918579
-1.31531,0.915527
-1.31836,0.915527
-1.32141,0.920105
-1.32294,0.921631
-1.32294,0.921631
-1.32599,0.921631
-1.33057,0.918579
-1.33057,0.920105
-1.33209,0.923157
-1.33362,0.920105
-1.33362,0.920105
-1.33362,0.920105
-1.33972,0.920105
-1.33667,0.921631
-1.33667,0.923157
-1.33667,0.921631
-1.3382,0.918579
-1.33972,0.918579
-1.34125,0.921631
-1.3443,0.918579
-1.34583,0.918579
-1.34735,0.918579
-1.35193,0.918579
-1.35193,0.920105
-1.35651,0.923157
-1.36261,0.920105
-1.36108,0.918579
-1.36566,0.923157
-1.37177,0.918579
-1.37482,0.921631
-1.37939,0.920105
-1.38245,0.918579
-1.38702,0.918579
-1.39313,0.923157
-1.39465,0.918579
-1.40686,0.920105
-1.40991,0.920105
-1.41296,0.921631
-1.42059,0.920105
-1.42822,0.920105
-1.43433,0.918579
-1.44196,0.920105
-1.44806,0.918579
-1.45721,0.921631
-1.46484,0.920105
-1.46942,0.915527
-1.47705,0.914001
-1.48468,0.920105
-1.49536,0.920105
-1.50146,0.915527
-1.51062,0.915527
-1.51978,0.921631
-1.52588,0.920105
-1.53351,0.920105
-1.54419,0.921631
-1.55334,0.918579
-1.56097,0.915527
-1.57166,0.920105
-1.57928,0.920105
-1.58844,0.920105
-1.5976,0.915527
-1.60675,0.918579
-1.61438,0.915527
-1.62201,0.918579
-1.62811,0.915527
-1.63727,0.918579
-1.64948,0.920105
-1.65558,0.918579
-1.66321,0.920105
-1.66931,0.915527
-1.68152,0.915527
-1.68762,0.918579
-1.69373,0.915527
-1.70288,0.920105
-1.71204,0.915527
-1.71814,0.912476
-1.72729,0.912476
-1.73035,0.918579
-1.73645,0.920105
-1.74713,0.920105
-1.75171,0.915527
-1.75934,0.912476
-1.76392,0.915527
-1.77612,0.920105
-1.77917,0.918579
-1.7807,0.915527
-1.78833,0.915527
-1.79443,0.918579
-1.80054,0.918579
-1.80664,0.915527
-1.8158,0.918579
-1.81885,0.912476
-1.82648,0.914001
-1.83563,0.915527
-1.83868,0.914001
-1.84479,0.912476
-1.85089,0.914001
-1.85547,0.915527
-1.86157,0.915527
-1.8692,0.914001
-1.87531,0.914001
-1.87988,0.914001
-1.88751,0.914001
-1.89056,0.920105
-1.89819,0.918579
-1.9043,0.915527
-1.90735,0.914001
-1.91345,0.914001
-1.92108,0.915527
-1.92413,0.920105
-1.93024,0.918579
-1.93634,0.912476
-1.93939,0.915527
-1.94702,0.912476
-1.95007,0.914001
-1.95618,0.915527
-1.96381,0.91095
-1.96991,0.915527
-1.97449,0.915527
-1.98212,0.915527
-1.9928,0.914001
-1.99432,0.915527
-2.00348,0.915527
-2.00653,0.915527
-2.00958,0.915527
-2.01721,0.915527
-2.02637,0.918579
-2.03247,0.915527
-2.03552,0.914001
-2.04468,0.915527
-2.05078,0.915527
-2.05994,0.915527
-2.06604,0.915527
-2.07062,0.918579
-2.0752,0.914001
-2.08282,0.920105
-2.09045,0.912476
-2.09351,0.915527
-2.10266,0.914001
-2.10876,0.915527
-2.11945,0.912476
-2.12555,0.915527
-2.12708,0.914001
-2.13623,0.915527
-2.13928,0.914001
-2.14386,0.914001
-2.15302,0.914001
-2.15759,0.918579
-2.16522,0.915527
-2.17285,0.915527
-2.18353,0.914001
-2.18811,0.91095
-2.19269,0.915527
-2.19879,0.914001
-2.20184,0.91095
-2.20795,0.91095
-2.21558,0.915527
-2.22168,0.912476
-2.22626,0.912476
-2.23236,0.915527
-2.23846,0.91095
-2.24152,0.91095
-2.25067,0.914001
-2.2522,0.914001
-2.26288,0.914001
-2.26593,0.909424
-2.27814,0.912476
-2.28119,0.912476
-2.28577,0.914001
-2.29187,0.912476
-2.29645,0.91095
-2.30408,0.909424
-2.30408,0.912476
-2.31018,0.912476
-2.31018,0.912476
-2.3056,0.91095
-2.30255,0.91095
-2.29187,0.912476
-2.28577,0.915527
-2.27509,0.912476
-2.25677,0.914001
-2.23999,0.91095
-2.2171,0.912476
-2.19879,0.914001
-2.17285,0.914001
-2.15149,0.91095
-2.12555,0.915527
-2.09503,0.912476
-2.06909,0.912476
-2.03857,0.91095
-2.01263,0.91095
-1.97906,0.912476
-1.94702,0.91095
-1.91956,0.912476
-1.88904,0.909424
-1.85852,0.909424
-1.828,0.909424
-1.79596,0.909424
-1.76544,0.912476
-1.73187,0.912476
-1.70441,0.907898
-1.67389,0.91095
-1.64642,0.91095
-1.61896,0.912476
-1.58997,0.914001
-1.56555,0.909424
-1.54572,0.907898
-1.52283,0.909424
-1.50146,0.912476
-1.48163,0.91095
-1.46484,0.907898
-1.44348,0.907898
-1.4328,0.909424
-1.41754,0.912476
-1.40686,0.91095
-1.39465,0.907898
-1.3855,0.909424
-1.37634,0.91095
-1.37024,0.907898
-1.36261,0.909424
-1.35498,0.909424
-1.34888,0.91095
-1.3443,0.91095
-1.34277,0.912476
-1.34277,0.91095
-1.33972,0.907898
-1.33514,0.906372
