-2.24762,0.80719
-2.25372,0.805664
-2.25677,0.804138
-2.25983,0.799561
-2.26746,0.804138
-2.27051,0.805664
-2.27814,0.805664
-2.28271,0.799561
-2.28729,0.799561
-2.2934,0.804138
-2.29492,0.805664
-2.30255,0.804138
-2.30713,0.801086
-2.31476,0.799561
-2.31476,0.804138
-2.32086,0.804138
-2.32544,0.804138
-2.32849,0.801086
-2.33459,0.799561
-2.33765,0.804138
-2.34222,0.804138
-2.34528,0.804138
-2.34985,0.804138
-2.34985,0.799561
-2.35748,0.799561
-2.35901,0.801086
-2.36053,0.799561
-2.36511,0.798035
-2.37274,0.799561
-2.37427,0.799561
-2.37274,0.801086
-2.37579,0.804138
-2.37732,0.798035
-2.37885,0.798035
-2.37732,0.799561
-2.37274,0.801086
-2.36664,0.798035
-2.36511,0.798035
-2.36053,0.796509
-2.35291,0.798035
-2.34375,0.799561
-2.33154,0.805664
-2.32239,0.796509
-2.31018,0.799561
-2.2995,0.798035
-2.28271,0.801086
-2.26898,0.801086
-2.25372,0.796509
-2.23846,0.798035
-2.22473,0.798035
-2.2049,0.798035
-2.19421,0.804138
-2.1759,0.796509
-2.16064,0.798035
-2.14081,0.796509
-2.12708,0.799561
-2.10876,0.798035
-2.09656,0.794983
-2.07977,0.796509
-2.06604,0.798035
-2.04926,0.798035
-2.0401,0.801086
-2.02637,0.796509
-2.01263,0.794983
-2.00043,0.794983
-1.98669,0.798035
-1.97906,0.799561
-1.96991,0.796509
-1.9577,0.796509
-1.94855,0.798035
-1.93939,0.801086
-1.93329,0.794983
-1.92566,0.794983
-1.91803,0.796509
-1.91193,0.798035
-1.9043,0.798035
-1.89972,0.798035
-1.89209,0.794983
-1.89056,0.796509
-1.88446,0.794983
-1.88293,0.798035
-1.87836,0.794983
-1.87683,0.794983
-1.87225,0.791931
-1.87073,0.796509
-1.8692,0.796509
-1.8631,0.799561
-1.86462,0.796509
-1.86768,0.793457
-1.8631,0.793457
-1.8631,0.796509
-1.86005,0.794983
-1.8631,0.794983
-1.8631,0.794983
-1.85852,0.794983
-1.86005,0.793457
-1.85852,0.794983
-1.85852,0.794983
-1.86005,0.794983
-1.8631,0.796509
-1.86005,0.794983
-1.8631,0.796509
-1.86157,0.796509
-1.86462,0.793457
-1.8692,0.791931
-1.86768,0.794983
-1.86462,0.793457
-1.87225,0.788879
-1.87225,0.791931
-1.87225,0.793457
-1.87225,0.798035
-1.87225,0.796509
-1.87225,0.793457
-1.87836,0.793457
-1.87531,0.793457
-1.87683,0.796509
-1.87836,0.796509
-1.87836,0.794983
-1.88141,0.793457
-1.87836,0.793457
-1.87836,0.794983
-1.87836,0.796509
-1.88141,0.793457
-1.87988,0.793457
-1.88141,0.791931
-1.88141,0.798035
-1.87683,0.798035
-1.87836,0.793457
-1.87378,0.793457
-1.87378,0.794983
-1.87073,0.796509
-1.87073,0.796509
-1.87073,0.794983
-1.87073,0.790405
-1.8692,0.793457
-1.86768,0.791931
-1.8631,0.798035
-1.86768,0.791931
-1.8631,0.793457
-1.86462,0.794983
-1.8631,0.794983
-1.86157,0.798035
-1.86462,0.793457
-1.86768,0.793457
-1.86768,0.791931
-1.8692,0.793457
-1.86768,0.793457
-1.87073,0.794983
-1.87225,0.788879
-1.87073,0.796509
-1.87378,0.793457
-1.87378,0.796509
-1.87531,0.793457
-1.87531,0.791931
-1.87988,0.793457
-1.87988,0.794983
-1.87988,0.796509
-1.88599,0.796509
-1.88751,0.793457
-1.89209,0.791931
-1.89362,0.790405
-1.89362,0.796509
-1.89972,0.794983
-1.90125,0.793457
-1.90125,0.796509
-1.90125,0.794983
-1.90735,0.794983
-1.90887,0.794983
-1.9165,0.790405
-1.91498,0.794983
-1.92261,0.794983
-1.92261,0.796509
-1.92719,0.798035
-1.93176,0.793457
-1.93787,0.793457
-1.93787,0.794983
-1.93939,0.794983
-1.9455,0.791931
-1.94702,0.791931
-1.95313,0.794983
-1.95618,0.796509
-1.96228,0.793457
-1.96381,0.793457
-1.96991,0.791931
-1.97601,0.796509
-1.97906,0.794983
-1.98059,0.796509
-1.98364,0.796509
-1.98212,0.793457
-1.99432,0.794983
-1.99738,0.794983
-1.99738,0.794983
-2.00043,0.793457
-2.005,0.791931
-2.00653,0.793457
-2.01416,0.796509
-2.01569,0.794983
-2.01874,0.796509
-2.02637,0.791931
-2.02789,0.791931
-2.03247,0.794983
-2.03247,0.794983
-2.03705,0.794983
-2.03552,0.793457
-2.04163,0.793457
-2.0462,0.796509
-2.04773,0.794983
-2.05383,0.793457
-2.05994,0.791931
-2.06299,0.796509
-2.06451,0.793457
-2.06909,0.796509
-2.0752,0.793457
-2.07672,0.794983
-2.0813,0.794983
-2.08282,0.798035
-2.08893,0.796509
-2.09198,0.794983
-2.09351,0.794983
-2.09808,0.794983
-2.10114,0.794983
-2.10419,0.799561
-2.10724,0.794983
-2.10876,0.794983
-2.10876,0.796509
-2.11334,0.796509
-2.12097,0.798035
-2.11945,0.793457
-2.12555,0.794983
-2.12097,0.794983
-2.13165,0.794983
-2.13318,0.796509
-2.13776,0.798035
-2.13928,0.793457
-2.14386,0.794983
-2.14691,0.796509
-2.14844,0.799561
-2.15302,0.798035
-2.15607,0.794983
-2.15454,0.793457
-2.15607,0.794983
-2.16217,0.798035
-2.16217,0.798035
-2.16675,0.793457
-2.1698,0.793457
-2.17438,0.798035
-2.1759,0.798035
-2.18048,0.798035
-2.18506,0.796509
-2.18964,0.794983
-2.19116,0.794983
-2.19421,0.798035
-2.19879,0.799561
-2.20337,0.794983
-2.20795,0.794983
-2.20795,0.794983
-2.21558,0.798035
-2.2171,0.799561
-2.22015,0.794983
-2.22321,0.796509
-2.22778,0.798035
-2.23083,0.799561
-2.23541,0.798035
-2.24304,0.796509
-2.24152,0.794983
-2.24762,0.798035
-2.25372,0.796509
-2.2583,0.794983
-2.2583,0.796509
-2.26135,0.791931
-2.26593,0.796509
-2.27051,0.799561
-2.27203,0.798035
-2.27966,0.791931
-2.27966,0.794983
-2.28577,0.798035
-2.28882,0.799561
-2.29034,0.796509
-2.29645,0.796509
-2.29797,0.796509
-2.30255,0.798035
-2.30713,0.798035
-2.31323,0.798035
-2.31781,0.793457
-2.31934,0.796509
-2.32239,0.799561
-2.32391,0.794983
-2.32697,0.796509
-2.32544,0.791931
-2.33002,0.798035
-2.32849,0.796509
-2.32544,0.794983
-2.32697,0.794983
-2.32239,0.794983
-2.31628,0.794983
-2.30713,0.798035
-2.30255,0.801086
-2.29645,0.794983
-2.28729,0.794983
-2.27814,0.794983
-2.26288,0.798035
-2.25372,0.798035
-2.23999,0.796509
-2.22321,0.798035
-2.20337,0.794983
-2.19269,0.799561
-2.17285,0.798035
-2.15912,0.798035
-2.14081,0.793457
-2.12402,0.793457
-2.10876,0.798035
-2.09351,0.798035
-2.07367,0.793457
-2.05841,0.793457
-2.0401,0.793457
-2.02789,0.796509
-2.00958,0.798035
-1.99432,0.794983
-1.97906,0.794983
-1.96533,0.794983
-1.9516,0.794983
-1.93939,0.799561
-1.92719,0.798035
-1.9165,0.793457
-1.90277,0.796509
-1.89362,0.798035
-1.88293,0.796509
-1.87531,0.794983
-1.8692,0.794983
-1.85699,0.794983
-1.85242,0.794983
-1.84326,0.794983
-1.83868,0.794983
-1.82648,0.794983
-1.82495,0.798035
-1.8219,0.794983
-1.8158,0.796509
-1.8158,0.794983
-1.80969,0.790405
-1.80817,0.793457
-1.80359,0.793457
-1.79749,0.798035
-1.79443,0.796509
-1.79291,0.793457
-1.79291,0.794983
-1.78833,0.796509
-1.7868,0.796509
-1.78528,0.794983
-1.78375,0.790405
-1.78375,0.793457
-1.7807,0.798035
-1.78223,0.796509
-1.7807,0.793457
-1.77917,0.796509
-1.77917,0.793457
-1.77612,0.793457
-1.77917,0.796509
-1.77765,0.793457
-1.77765,0.790405
-1.77612,0.793457
-1.77612,0.796509
-1.77765,0.794983
-1.7746,0.791931
-1.77917,0.794983
-1.78223,0.793457
-1.7807,0.791931
-1.77917,0.796509
-1.78223,0.793457
-1.78223,0.793457
-1.77917,0.793457
-1.78223,0.791931
-1.78528,0.793457
-1.7868,0.794983
-1.78528,0.790405
-1.78375,0.793457
-1.78528,0.794983
-1.78528,0.793457
-1.7868,0.793457
-1.7868,0.791931
-1.78986,0.791931
-1.78986,0.793457
-1.78833,0.793457
-1.79291,0.791931
-1.78833,0.790405
-1.78986,0.791931
-1.78986,0.793457
-1.78986,0.798035
-1.79138,0.793457
-1.79138,0.791931
-1.78986,0.791931
-1.79291,0.791931
-1.79291,0.794983
-1.79291,0.793457
-1.79138,0.787354
-1.79443,0.788879
-1.79596,0.793457
-1.79596,0.794983
-1.79901,0.796509
-1.80054,0.790405
-1.80359,0.788879
-1.80511,0.791931
-1.80664,0.796509
-1.80817,0.791931
-1.80817,0.788879
-1.80969,0.790405
-1.81274,0.791931
-1.81274,0.790405
-1.81274,0.796509
-1.8158,0.788879
-1.81885,0.790405
-1.81732,0.791931
-1.82037,0.791931
-1.82037,0.793457
-1.828,0.790405
-1.83258,0.790405
-1.83258,0.788879
-1.83563,0.793457
-1.83716,0.791931
-1.84174,0.790405
-1.84326,0.791931
-1.84784,0.790405
-1.84937,0.796509
-1.85547,0.790405
-1.85547,0.788879
-1.86005,0.790405
-1.86462,0.791931
-1.8692,0.794983
-1.87378,0.794983
-1.87836,0.790405
-1.87836,0.791931
-1.88293,0.791931
-1.88599,0.793457
-1.89056,0.793457
-1.89362,0.790405
-1.90125,0.788879
-1.90277,0.790405
-1.90582,0.794983
-1.9104,0.791931
-1.91345,0.790405
-1.91345,0.791931
-1.91956,0.793457
-1.92413,0.791931
-1.92566,0.790405
-1.93176,0.790405
-1.93787,0.791931
-1.94092,0.791931
-1.94397,0.790405
-1.95007,0.788879
-1.95465,0.788879
-1.9577,0.790405
-1.96228,0.788879
-1.96533,0.790405
-1.96991,0.790405
-1.97754,0.788879
-1.97754,0.791931
-1.98212,0.793457
-1.98517,0.790405
-1.98975,0.791931
-1.99738,0.787354
-2.00195,0.790405
-2.00348,0.793457
-2.00806,0.788879
-2.01111,0.793457
-2.01721,0.788879
-2.01569,0.788879
-2.02484,0.791931
-2.02942,0.791931
-2.03094,0.794983
-2.03552,0.787354
-2.03857,0.788879
-2.04468,0.790405
-2.04926,0.790405
-2.05231,0.790405
-2.05994,0.787354
-2.06604,0.787354
-2.06909,0.790405
-2.0752,0.790405
-2.07672,0.791931
-2.0813,0.788879
-2.09198,0.788879
-2.09503,0.791931
-2.09808,0.793457
-2.10266,0.791931
-2.10876,0.784302
-2.11487,0.791931
-2.11945,0.790405
-2.1225,0.790405
-2.1286,0.791931
-2.1347,0.787354
-2.13776,0.784302
-2.14386,0.790405
-2.14844,0.790405
-2.15302,0.788879
-2.15759,0.785828
-2.16064,0.785828
-2.16522,0.788879
-2.16827,0.791931
-2.17285,0.790405
-2.17896,0.784302
-2.17896,0.787354
-2.18658,0.790405
-2.19269,0.791931
-2.19574,0.790405
-2.20184,0.784302
-2.20337,0.787354
-2.20795,0.788879
-2.211,0.787354
-2.21863,0.787354
-2.22321,0.785828
-2.22778,0.787354
-2.22931,0.790405
-2.23083,0.791931
-2.23694,0.787354
-2.23999,0.785828
-2.24152,0.787354
-2.24304,0.790405
-2.25067,0.788879
-2.24915,0.790405
-2.25372,0.787354
-2.2583,0.784302
-2.26135,0.788879
-2.26135,0.791931
-2.26746,0.788879
-2.27051,0.784302
-2.27051,0.785828
-2.27814,0.788879
-2.28271,0.788879
-2.28577,0.785828
-2.28729,0.785828
-2.29187,0.785828
-2.2934,0.788879
-2.29797,0.787354
-2.30255,0.787354
-2.30408,0.787354
-2.31018,0.784302
-2.31171,0.785828
-2.31323,0.787354
-2.31781,0.787354
-2.32391,0.782776
-2.32391,0.784302
-2.33002,0.788879
-2.33459,0.788879
-2.33459,0.784302
-2.3407,0.785828
-2.34375,0.787354
-2.34375,0.787354
-2.35138,0.787354
-2.35291,0.788879
-2.35443,0.782776
-2.35596,0.785828
-2.35596,0.785828
-2.35901,0.787354
-2.35901,0.787354
-2.35443,0.784302
-2.35596,0.785828
-2.34833,0.787354
-2.34375,0.785828
-2.3407,0.785828
-2.32849,0.782776
-2.31934,0.784302
-2.30713,0.787354
-2.29645,0.787354
-2.28577,0.784302
-2.27356,0.78125
-2.2644,0.782776
-2.24915,0.784302
-2.23541,0.788879
-2.22321,0.785828
-2.20947,0.782776
-2.19727,0.785828
-2.18658,0.787354
-2.17438,0.784302
-2.16217,0.784302
-2.15149,0.782776
-2.13623,0.782776
-2.12708,0.782776
-2.11639,0.785828
-2.10876,0.78125
-2.09808,0.78125
-2.08893,0.784302
-2.07977,0.784302
-2.07062,0.785828
-2.06451,0.78125
-2.05231,0.782776
-2.04926,0.78125
-2.04315,0.787354
-2.03705,0.785828
-2.02942,0.782776
-2.02637,0.782776
-2.02026,0.784302
-2.01569,0.784302
-2.01263,0.787354
-2.00958,0.784302
-2.00653,0.784302
-2.01111,0.782776
-2.005,0.785828
-2.005,0.784302
-2.005,0.78125
-2.00195,0.779724
-2.00043,0.785828
-2.00195,0.785828
-2.00348,0.785828
-2.00195,0.784302
-2.005,0.782776
-2.00195,0.785828
-2.00348,0.785828
-2.00806,0.785828
-2.00653,0.784302
-2.00653,0.779724
-2.00653,0.782776
-2.00806,0.784302
-2.01111,0.782776
-2.01263,0.784302
-2.01569,0.782776
-2.01416,0.78125
-2.01721,0.785828
-2.01874,0.785828
-2.01874,0.78125
-2.02484,0.78125
-2.02789,0.779724
-2.02637,0.78125
-2.02637,0.785828
-2.03094,0.78125
-2.03247,0.78125
-2.034,0.779724
-2.03552,0.784302
-2.03705,0.782776
-2.03705,0.784302
-2.0401,0.782776
-2.04163,0.782776
-2.04468,0.784302
-2.0462,0.787354
-2.0462,0.782776
-2.04773,0.778198
-2.04926,0.779724
-2.05231,0.78125
-2.05231,0.784302
-2.05231,0.78125
-2.05383,0.779724
-2.05383,0.778198
-2.05231,0.78125
-2.05383,0.785828
-2.05688,0.78125
-2.05383,0.779724
-2.05078,0.78125
-2.04926,0.782776
-2.05231,0.785828
-2.05231,0.78125
-2.05231,0.778198
-2.04926,0.779724
-2.0462,0.779724
-2.04773,0.784302
-2.04468,0.782776
-2.0462,0.778198
-2.0462,0.78125
-2.04163,0.78125
-2.0401,0.785828
-2.04163,0.779724
-2.03857,0.778198
-2.03705,0.778198
-2.04163,0.778198
-2.04468,0.784302
-2.04468,0.779724
-2.04468,0.776672
-2.04315,0.779724
-2.04468,0.78125
-2.0462,0.78125
-2.04468,0.778198
-2.04468,0.778198
-2.0462,0.772095
-2.04773,0.78125
-2.04926,0.78125
-2.05078,0.778198
-2.05231,0.776672
-2.05383,0.776672
-2.05841,0.779724
-2.05994,0.779724
-2.06299,0.778198
-2.06604,0.779724
-2.06604,0.776672
-2.07214,0.776672
-2.07367,0.782776
-2.0752,0.779724
-2.07825,0.778198
-2.0813,0.778198
-2.08893,0.78125
-2.08588,0.782776
-2.09045,0.779724
-2.08893,0.776672
-2.09045,0.779724
-2.09351,0.779724
-2.09503,0.782776
-2.10114,0.778198
-2.10419,0.778198
-2.10419,0.775146
-2.11029,0.778198
-2.11334,0.779724
-2.11487,0.779724
-2.11639,0.775146
-2.1225,0.78125
-2.12402,0.779724
-2.12555,0.779724
-2.13013,0.778198
-2.13318,0.776672
-2.13013,0.778198
-2.13623,0.779724
-2.13928,0.778198
-2.13928,0.775146
-2.14386,0.779724
-2.14691,0.778198
-2.14844,0.78125
-2.15454,0.779724
-2.15454,0.776672
-2.15912,0.776672
-2.16217,0.775146
-2.1637,0.778198
-2.16827,0.778198
-2.16827,0.778198
-2.17133,0.770569
-2.1759,0.776672
-2.17896,0.776672
-2.18506,0.779724
-2.18658,0.778198
-2.18811,0.776672
-2.19269,0.775146
-2.19727,0.775146
-2.19879,0.776672
-2.20032,0.778198
-2.20337,0.776672
-2.20337,0.776672
-2.20947,0.775146
-2.21405,0.778198
-2.2171,0.776672
-2.2171,0.775146
-2.22015,0.779724
-2.22015,0.779724
-2.22473,0.772095
-2.22931,0.779724
-2.22626,0.775146
-2.23083,0.775146
-2.22931,0.779724
-2.23541,0.776672
-2.23541,0.776672
-2.23999,0.776672
-2.24152,0.778198
-2.24609,0.776672
-2.25372,0.775146
-2.2522,0.775146
-2.25372,0.778198
-2.2583,0.776672
-2.26135,0.775146
-2.26288,0.775146
-2.26746,0.776672
-2.26593,0.772095
-2.27203,0.776672
-2.27356,0.778198
-2.27509,0.775146
-2.27966,0.775146
-2.28424,0.775146
-2.28577,0.775146
-2.28882,0.772095
-2.29492,0.772095
-2.2995,0.775146
-2.3056,0.772095
-2.3056,0.776672
-2.31018,0.772095
-2.31476,0.776672
-2.31628,0.775146
-2.32086,0.772095
-2.32086,0.772095
-2.32544,0.775146
-2.32849,0.775146
-2.33002,0.776672
-2.33459,0.770569
-2.33612,0.772095
-2.33765,0.772095
-2.34222,0.779724
-2.34375,0.772095
-2.3468,0.770569
-2.35138,0.776672
-2.35596,0.770569
-2.35596,0.778198
-2.35901,0.776672
-2.36206,0.772095
-2.36969,0.772095
-2.36816,0.772095
-2.37579,0.775146
-2.38037,0.775146
-2.38342,0.772095
-2.38495,0.772095
-2.38647,0.776672
-2.39105,0.772095
-2.38953,0.775146
-2.39258,0.770569
-2.39258,0.772095
-2.39105,0.775146
-2.38953,0.772095
-2.38647,0.770569
-2.38495,0.772095
-2.3819,0.770569
-2.37427,0.776672
-2.36359,0.775146
-2.35596,0.770569
-2.34833,0.769043
-2.33765,0.770569
-2.32697,0.775146
-2.31781,0.775146
-2.30713,0.772095
-2.29492,0.770569
-2.27966,0.770569
-2.2644,0.776672
-2.2522,0.775146
-2.24152,0.770569
-2.22778,0.775146
-2.21405,0.772095
-2.19879,0.770569
-2.18658,0.770569
-2.17133,0.769043
-2.16064,0.770569
-2.14844,0.769043
-2.13623,0.770569
-2.11945,0.772095
-2.10876,0.769043
-2.09961,0.767517
-2.09045,0.770569
-2.0813,0.772095
-2.07062,0.772095
-2.06451,0.770569
-2.05078,0.764465
-2.04468,0.770569
-2.03857,0.769043
-2.034,0.772095
-2.02637,0.772095
-2.01416,0.769043
-2.00958,0.770569
-2.00348,0.772095
-1.99585,0.775146
-1.9928,0.769043
-1.98822,0.769043
-1.98364,0.770569
-1.97906,0.772095
-1.97601,0.770569
-1.97296,0.770569
-1.96991,0.769043
-1.96381,0.769043
-1.96381,0.770569
-1.95618,0.775146
-1.95618,0.770569
-1.95465,0.770569
-1.95465,0.769043
-1.95313,0.775146
-1.9516,0.772095
-1.9516,0.769043
-1.9516,0.769043
-1.9516,0.767517
-1.9516,0.769043
-1.95313,0.772095
-1.95313,0.772095
-1.95313,0.769043
-1.95313,0.767517
-1.95618,0.770569
-1.95465,0.770569
-1.95618,0.770569
-1.95923,0.767517
-1.95923,0.767517
-1.96228,0.770569
-1.96381,0.770569
-1.96533,0.772095
-1.96991,0.762939
-1.96686,0.769043
-1.96686,0.772095
-1.97144,0.769043
-1.97296,0.769043
-1.97449,0.769043
-1.97601,0.769043
-1.97754,0.770569
-1.97601,0.770569
-1.97754,0.770569
-1.97754,0.767517
-1.97906,0.770569
-1.97906,0.767517
-1.97601,0.767517
-1.97906,0.775146
-1.98059,0.764465
-1.97754,0.769043
-1.97754,0.772095
-1.97906,0.772095
-1.97449,0.767517
-1.97754,0.767517
-1.98059,0.767517
-1.97906,0.772095
-1.97754,0.770569
-1.97906,0.767517
-1.97906,0.767517
-1.97754,0.769043
-1.97754,0.769043
-1.97754,0.772095
-1.97906,0.767517
-1.97906,0.764465
-1.97601,0.767517
-1.97449,0.769043
-1.97296,0.775146
-1.97144,0.769043
-1.97296,0.765991
-1.97449,0.769043
-1.97296,0.767517
-1.97449,0.769043
-1.97601,0.767517
-1.97754,0.767517
-1.97601,0.767517
-1.97601,0.769043
-1.97906,0.772095
-1.97906,0.770569
-1.98212,0.765991
-1.98517,0.765991
-1.98364,0.765991
-1.98517,0.770569
-1.98669,0.767517
-1.99432,0.764465
-1.98975,0.765991
-1.99585,0.767517
-1.99585,0.772095
-1.99738,0.767517
-1.99585,0.765991
-2.00043,0.767517
-2.00348,0.769043
-2.005,0.769043
-2.005,0.767517
-2.005,0.767517
-2.00958,0.769043
-2.00958,0.765991
-2.01416,0.769043
-2.01721,0.769043
-2.02026,0.764465
-2.01874,0.767517
-2.02637,0.764465
-2.02637,0.772095
-2.02789,0.769043
-2.03247,0.769043
-2.03705,0.767517
-2.0401,0.767517
-2.04163,0.767517
-2.04315,0.765991
-2.04926,0.765991
-2.05231,0.765991
-2.05688,0.769043
-2.06146,0.764465
-2.06451,0.764465
-2.06451,0.764465
-2.07062,0.769043
-2.07214,0.769043
-2.07367,0.770569
-2.07825,0.765991
-2.08282,0.769043
-2.08588,0.761414
-2.09198,0.767517
-2.09656,0.769043
-2.09961,0.767517
-2.10266,0.762939
-2.10419,0.765991
-2.11029,0.767517
-2.11334,0.769043
-2.11945,0.767517
-2.12097,0.764465
-2.12555,0.765991
-2.12402,0.765991
-2.1286,0.765991
-2.1347,0.769043
-2.13928,0.762939
-2.14386,0.765991
-2.14691,0.765991
-2.15149,0.769043
-2.15149,0.764465
-2.15912,0.764465
-2.15912,0.764465
-2.16217,0.769043
-2.1637,0.767517
-2.16675,0.764465
-2.16827,0.764465
-2.1698,0.762939
-2.17133,0.764465
-2.17133,0.767517
-2.17438,0.764465
-2.17896,0.764465
-2.17896,0.765991
-2.18048,0.764465
-2.18353,0.767517
-2.18506,0.769043
-2.18964,0.764465
-2.19421,0.765991
-2.19727,0.765991
-2.19727,0.765991
-2.20032,0.764465
-2.20184,0.765991
-2.2049,0.765991
-2.20795,0.767517
-2.20795,0.767517
-2.211,0.764465
-2.2171,0.765991
-2.22015,0.762939
-2.22015,0.764465
-2.22473,0.765991
-2.22626,0.765991
-2.23236,0.761414
-2.23541,0.765991
-2.23694,0.765991
-2.24152,0.767517
-2.24304,0.765991
-2.24609,0.764465
-2.25067,0.762939
-2.24915,0.767517
-2.25372,0.770569
-2.26135,0.765991
-2.26135,0.764465
-2.26746,0.764465
-2.26593,0.765991
-2.27051,0.765991
-2.27203,0.764465
-2.27966,0.764465
-2.28119,0.762939
-2.28577,0.764465
-2.28882,0.765991
-2.29187,0.765991
-2.29187,0.765991
-2.29797,0.762939
-2.30255,0.764465
-2.30713,0.765991
-2.31018,0.765991
-2.31628,0.764465
-2.31934,0.762939
-2.31934,0.765991
-2.32544,0.769043
-2.32849,0.765991
-2.32697,0.762939
-2.33459,0.762939
-2.33612,0.764465
-2.34222,0.767517
-2.34528,0.762939
-2.35138,0.761414
-2.35443,0.762939
-2.35138,0.764465
-2.36053,0.767517
-2.35901,0.762939
-2.36359,0.759888
-2.36664,0.764465
-2.36511,0.765991
-2.36816,0.767517
-2.36816,0.764465
-2.37579,0.761414
-2.36816,0.762939
-2.37274,0.762939
-2.36816,0.764465
-2.36816,0.762939
-2.36359,0.759888
-2.35901,0.762939
-2.34985,0.762939
-2.34222,0.762939
-2.33002,0.761414
-2.32086,0.761414
-2.31018,0.761414
-2.29797,0.764465
-2.28729,0.765991
-2.27356,0.764465
-2.2583,0.764465
-2.24762,0.762939
-2.22626,0.761414
-2.20947,0.764465
-2.19727,0.761414
-2.17896,0.761414
-2.16217,0.759888
-2.14691,0.762939
-2.1286,0.762939
-2.11334,0.762939
-2.09808,0.759888
-2.0813,0.762939
-2.06299,0.762939
-2.0462,0.764465
-2.02942,0.764465
-2.01263,0.758362
-1.99585,0.758362
-1.98212,0.762939
-1.96838,0.764465
-1.9516,0.761414
-1.93939,0.764465
-1.93024,0.762939
-1.91193,0.762939
-1.90125,0.764465
-1.88446,0.764465
-1.87531,0.759888
-1.86768,0.762939
-1.85547,0.762939
-1.84784,0.761414
-1.83716,0.765991
-1.828,0.759888
-1.82495,0.759888
-1.81427,0.759888
-1.81122,0.762939
-1.80359,0.762939
-1.79749,0.758362
-1.78986,0.758362
-1.78833,0.761414
-1.78528,0.764465
-1.7807,0.764465
-1.77765,0.761414
-1.7746,0.756836
-1.77155,0.761414
-1.76544,0.761414
-1.76392,0.764465
-1.76544,0.759888
-1.76086,0.759888
-1.75934,0.761414
-1.75629,0.762939
-1.75476,0.761414
-1.75476,0.759888
-1.75629,0.758362
-1.75323,0.762939
-1.75323,0.762939
-1.75171,0.761414
-1.75629,0.759888
-1.75018,0.759888
-1.75018,0.759888
-1.75018,0.761414
-1.75323,0.759888
-1.75171,0.762939
-1.75476,0.759888
-1.75323,0.762939
-1.75323,0.761414
-1.75476,0.762939
-1.75171,0.759888
-1.75323,0.756836
-1.75476,0.762939
-1.75629,0.761414
-1.75629,0.759888
-1.75629,0.758362
-1.75781,0.759888
-1.75629,0.761414
-1.75476,0.761414
-1.75476,0.762939
-1.75171,0.758362
-1.75018,0.759888
-1.75018,0.759888
-1.74713,0.758362
-1.75018,0.761414
-1.74561,0.761414
-1.74408,0.761414
-1.73798,0.758362
-1.73798,0.761414
-1.73492,0.759888
-1.7334,0.759888
-1.73187,0.759888
-1.73035,0.761414
-1.72882,0.762939
-1.72424,0.762939
-1.72577,0.759888
-1.72272,0.758362
-1.72272,0.759888
-1.71967,0.759888
-1.71967,0.759888
-1.71814,0.759888
-1.71661,0.759888
-1.71509,0.761414
-1.71509,0.764465
-1.71356,0.759888
-1.71356,0.758362
-1.71509,0.759888
-1.71356,0.759888
-1.71204,0.759888
-1.71661,0.761414
-1.71661,0.759888
-1.71356,0.761414
-1.71356,0.759888
-1.71356,0.762939
-1.71967,0.761414
-1.71814,0.759888
-1.72119,0.756836
-1.72119,0.761414
-1.72119,0.759888
-1.72272,0.761414
-1.72577,0.758362
-1.73187,0.758362
-1.73035,0.756836
-1.7334,0.762939
-1.73798,0.759888
-1.74255,0.75531
-1.74713,0.756836
-1.75018,0.759888
-1.75171,0.761414
-1.75476,0.758362
-1.76086,0.758362
-1.76239,0.756836
-1.76392,0.759888
-1.77155,0.761414
-1.77307,0.761414
-1.77612,0.758362
-1.7807,0.758362
-1.78528,0.759888
-1.7868,0.759888
-1.79443,0.762939
-1.79443,0.756836
-1.80511,0.756836
-1.80511,0.759888
-1.80969,0.762939
-1.81122,0.759888
-1.81885,0.75531
-1.8219,0.758362
-1.82495,0.759888
-1.828,0.759888
-1.83258,0.758362
-1.83105,0.75531
-1.83868,0.756836
-1.84326,0.758362
-1.84631,0.759888
-1.85242,0.759888
-1.85699,0.758362
-1.85852,0.758362
-1.8631,0.759888
-1.8692,0.761414
-1.87378,0.762939
-1.87836,0.753784
-1.88293,0.75531
-1.88751,0.758362
-1.88751,0.759888
-1.89209,0.759888
-1.90125,0.758362
-1.90277,0.75531
-1.90582,0.759888
-1.90887,0.759888
-1.91345,0.758362
-1.9165,0.758362
-1.92108,0.75531
-1.92719,0.756836
-1.93024,0.756836
-1.93481,0.758362
-1.93939,0.753784
-1.94397,0.75531
-1.94855,0.758362
-1.94855,0.759888
-1.95618,0.758362
-1.9577,0.75531
-1.96228,0.756836
-1.96533,0.758362
-1.96686,0.756836
-1.97296,0.758362
-1.97449,0.756836
-1.97906,0.75531
-1.98059,0.758362
-1.98364,0.761414
-1.98975,0.759888
-1.99738,0.75531
-1.9989,0.753784
-2.00043,0.75531
-2.00653,0.758362
-2.01111,0.758362
-2.01416,0.756836
-2.01721,0.75531
-2.02026,0.758362
-2.02484,0.758362
-2.02789,0.759888
-2.03094,0.758362
-2.03705,0.756836
-2.03705,0.75531
-2.03857,0.759888
-2.04773,0.761414
-2.04926,0.756836
-2.05383,0.756836
-2.05841,0.75531
-2.06146,0.759888
-2.06451,0.756836
-2.06604,0.75531
-2.07367,0.756836
-2.07367,0.756836
-2.07825,0.761414
-2.07977,0.758362
-2.08282,0.75531
-2.08588,0.756836
-2.09045,0.758362
-2.09656,0.756836
-2.09808,0.756836
-2.10114,0.75531
-2.10419,0.75531
-2.10724,0.75531
-2.10876,0.758362
-2.11182,0.761414
-2.11487,0.75531
-2.11945,0.75531
-2.12555,0.756836
-2.12708,0.759888
-2.13165,0.75531
-2.13776,0.756836
-2.13928,0.753784
-2.14539,0.753784
-2.14691,0.758362
-2.15149,0.756836
-2.15607,0.756836
-2.15759,0.75531
-2.16064,0.75531
-2.16522,0.759888
-2.16827,0.761414
-2.16675,0.753784
-2.16675,0.752258
-2.16827,0.75531
-2.16675,0.758362
-2.16064,0.758362
-2.15607,0.75531
-2.14844,0.753784
-2.14386,0.756836
-2.13318,0.758362
-2.12555,0.758362
-2.11334,0.753784
-2.10114,0.75531
-2.09045,0.753784
-2.07672,0.756836
-2.06299,0.758362
-2.04468,0.756836
-2.03094,0.752258
-2.01416,0.756836
-1.99585,0.756836
-1.97601,0.756836
-1.95465,0.756836
-1.93939,0.753784
-1.9165,0.756836
-1.89362,0.758362
-1.87531,0.75531
-1.85242,0.756836
-1.83105,0.756836
-1.81122,0.75531
-1.79138,0.759888
-1.77155,0.75531
-1.75323,0.756836
-1.7334,0.753784
-1.71204,0.756836
-1.6922,0.75531
-1.67084,0.756836
-1.65253,0.75531
-1.63574,0.75531
-1.61896,0.75531
-1.60522,0.756836
-1.59149,0.758362
-1.57166,0.75531
-1.56097,0.753784
-1.54724,0.75531
-1.53809,0.756836
-1.52893,0.75531
-1.5152,0.75531
-1.50909,0.752258
-1.49841,0.75531
-1.49078,0.75531
-1.48468,0.75531
-1.47705,0.753784
-1.474,0.753784
-1.46942,0.75531
-1.46332,0.756836
-1.45874,0.756836
-1.45111,0.753784
-1.44958,0.75531
-1.44501,0.753784
-1.44348,0.75531
-1.43738,0.753784
-1.43738,0.753784
-1.43585,0.753784
-1.43738,0.752258
-1.4328,0.75531
-1.43127,0.75531
-1.42975,0.753784
-1.42975,0.75531
-1.43127,0.752258
-1.43127,0.756836
-1.42822,0.756836
-1.43127,0.753784
-1.43433,0.75531
-1.43433,0.753784
-1.43585,0.758362
-1.43585,0.753784
-1.44043,0.750732
-1.43738,0.753784
-1.43738,0.753784
-1.44043,0.75531
-1.44043,0.756836
-1.44196,0.753784
-1.44348,0.758362
-1.44196,0.753784
-1.44348,0.758362
-1.44653,0.758362
-1.44653,0.753784
-1.44806,0.752258
-1.44958,0.752258
-1.44958,0.756836
-1.44958,0.756836
-1.44958,0.749207
-1.44806,0.753784
-1.44806,0.752258
-1.45111,0.756836
-1.45111,0.753784
-1.44348,0.753784
-1.44653,0.756836
-1.44501,0.753784
-1.44348,0.753784
-1.44196,0.75531
-1.4389,0.752258
-1.4389,0.752258
-1.43585,0.75531
-1.43433,0.759888
-1.43433,0.756836
-1.4328,0.753784
-1.42975,0.753784
-1.42822,0.752258
-1.4267,0.756836
-1.4267,0.75531
-1.42822,0.750732
-1.4267,0.753784
-1.42212,0.753784
-1.42517,0.75531
-1.42212,0.758362
-1.42212,0.750732
-1.42059,0.750732
-1.42212,0.753784
-1.42517,0.753784
-1.4267,0.75531
-1.4267,0.753784
-1.4267,0.753784
-1.4267,0.753784
-1.42822,0.756836
-1.43127,0.75531
-1.43127,0.752258
-1.43433,0.753784
-1.43738,0.752258
-1.4389,0.75531
-1.44196,0.753784
-1.44958,0.753784
-1.44806,0.752258
-1.45569,0.753784
-1.46179,0.753784
-1.46484,0.75531
-1.47095,0.752258
-1.47247,0.753784
-1.48315,0.75531
-1.48773,0.75531
-1.49078,0.75531
-1.49689,0.750732
-1.49994,0.75531
-1.50909,0.752258
-1.50909,0.756836
-1.51367,0.75531
-1.5213,0.752258
-1.52435,0.752258
-1.53046,0.752258
-1.53503,0.756836
-1.53656,0.75531
-1.54266,0.750732
-1.55182,0.750732
-1.55487,0.753784
-1.56403,0.75531
-1.56555,0.756836
-1.57318,0.753784
-1.57776,0.750732
-1.58386,0.752258
-1.58539,0.75531
-1.59149,0.752258
-1.59912,0.753784
-1.6037,0.752258
-1.60828,0.752258
-1.61133,0.75531
-1.61743,0.75531
-1.62048,0.750732
-1.62811,0.752258
-1.63269,0.753784
-1.63879,0.753784
-1.64337,0.753784
-1.651,0.752258
-1.65253,0.747681
-1.66168,0.752258
-1.66473,0.753784
-1.66779,0.75531
-1.67694,0.752258
-1.68304,0.752258
-1.68457,0.750732
-1.68762,0.753784
-1.69525,0.752258
-1.69983,0.753784
-1.70135,0.752258
-1.70898,0.753784
-1.71204,0.75531
-1.71967,0.753784
-1.72424,0.750732
-1.72882,0.752258
-1.73035,0.752258
-1.73645,0.75531
-1.73798,0.75531
-1.74408,0.753784
-1.74713,0.750732
-1.75171,0.753784
-1.75323,0.753784
-1.75934,0.752258
-1.76086,0.753784
-1.76849,0.750732
-1.77307,0.752258
-1.7746,0.75531
-1.77765,0.75531
-1.78528,0.752258
-1.78833,0.749207
-1.79443,0.753784
-1.79749,0.75531
-1.80359,0.750732
-1.80817,0.750732
-1.81427,0.750732
-1.81427,0.753784
-1.81885,0.756836
-1.82343,0.756836
-1.82953,0.753784
-1.83105,0.747681
-1.83716,0.752258
-1.83868,0.758362
-1.84631,0.753784
-1.85089,0.750732
-1.85699,0.752258
-1.86157,0.753784
-1.86462,0.75531
-1.87073,0.753784
-1.87225,0.752258
-1.87988,0.752258
-1.88599,0.752258
-1.88904,0.756836
-1.89514,0.756836
-1.90125,0.753784
-1.9043,0.749207
-1.90582,0.75531
-1.91345,0.75531
-1.91956,0.75531
-1.92261,0.753784
-1.92566,0.753784
-1.93634,0.75531
-1.93787,0.75531
-1.94397,0.756836
-1.95313,0.752258
-1.95313,0.752258
-1.96228,0.756836
-1.96686,0.756836
-1.96838,0.753784
-1.97144,0.752258
-1.97144,0.752258
-1.96991,0.75531
-1.96838,0.756836
-1.96533,0.756836
-1.95618,0.75531
-1.9516,0.749207
-1.94397,0.753784
-1.93329,0.758362
-1.91956,0.753784
-1.9104,0.756836
-1.89056,0.752258
-1.87683,0.75531
-1.85699,0.759888
-1.84174,0.756836
-1.8219,0.75531
-1.80054,0.752258
-1.7807,0.756836
-1.75476,0.759888
-1.73492,0.75531
-1.71051,0.75531
-1.68152,0.753784
-1.65863,0.753784
-1.63116,0.758362
-1.60522,0.753784
-1.58234,0.752258
-1.55487,0.752258
-1.52435,0.756836
-1.49841,0.756836
-1.47247,0.756836
-1.44958,0.75531
-1.42517,0.753784
-1.40228,0.758362
-1.37787,0.756836
-1.35651,0.756836
-1.33514,0.753784
-1.31378,0.753784
-1.29547,0.756836
-1.28021,0.759888
-1.26038,0.753784
-1.24817,0.753784
-1.23444,0.75531
-1.21918,0.75531
-1.20544,0.759888
-1.19324,0.75531
-1.18561,0.753784
-1.17493,0.75531
-1.16425,0.758362
-1.15509,0.758362
-1.14899,0.756836
-1.14288,0.75531
-1.13983,0.75531
-1.12762,0.75531
-1.12762,0.759888
-1.12152,0.756836
-1.11847,0.756836
-1.11542,0.759888
-1.11694,0.756836
-1.11389,0.761414
-1.11237,0.756836
-1.11084,0.753784
-1.10931,0.756836
-1.11084,0.75531
-1.11084,0.759888
-1.10931,0.758362
-1.11237,0.756836
-1.11694,0.75531
-1.11847,0.756836
-1.11694,0.75531
-1.12,0.75531
-1.12305,0.75531
-1.1261,0.756836
-1.1261,0.75531
-1.13068,0.759888
-1.13525,0.759888
-1.14136,0.756836
-1.14746,0.756836
-1.15204,0.758362
-1.15509,0.758362
-1.15967,0.75531
-1.16425,0.75531
-1.16882,0.759888
-1.17188,0.759888
-1.17493,0.759888
-1.18408,0.75531
-1.18408,0.758362
-1.18561,0.75531
-1.18561,0.758362
-1.18866,0.759888
-1.19171,0.758362
-1.19324,0.756836
-1.19476,0.75531
-1.19781,0.758362
-1.19934,0.761414
-1.20087,0.759888
-1.20392,0.756836
-1.20697,0.758362
-1.20697,0.758362
-1.20392,0.756836
-1.2085,0.761414
-1.2085,0.758362
-1.20697,0.758362
-1.21155,0.759888
-1.20697,0.758362
-1.2085,0.759888
-1.21002,0.759888
-1.21002,0.756836
-1.21002,0.758362
-1.21002,0.756836
-1.21155,0.762939
-1.2146,0.761414
-1.2146,0.756836
-1.21307,0.759888
-1.2146,0.758362
-1.21765,0.759888
-1.21765,0.759888
-1.2207,0.756836
-1.22223,0.758362
-1.22528,0.761414
-1.23138,0.759888
-1.23596,0.756836
-1.23901,0.756836
-1.24054,0.758362
-1.24817,0.761414
-1.25122,0.762939
-1.25427,0.758362
-1.25732,0.758362
-1.26648,0.758362
-1.27106,0.761414
-1.27869,0.762939
-1.28326,0.758362
-1.28479,0.758362
-1.29395,0.761414
-1.30157,0.761414
-1.3031,0.761414
-1.30768,0.761414
-1.31683,0.761414
-1.31836,0.759888
-1.32446,0.762939
-1.33362,0.761414
-1.34125,0.758362
-1.34888,0.758362
-1.35498,0.758362
-1.36261,0.762939
-1.37024,0.761414
-1.37939,0.761414
-1.38397,0.758362
-1.39313,0.762939
-1.39771,0.761414
-1.41144,0.759888
-1.41602,0.761414
-1.4267,0.759888
-1.4328,0.764465
-1.44043,0.761414
-1.44806,0.761414
-1.45569,0.759888
-1.46179,0.759888
-1.47095,0.759888
-1.47858,0.764465
-1.48926,0.761414
-1.49689,0.761414
-1.50452,0.759888
-1.50909,0.762939
-1.5213,0.764465
-1.5274,0.761414
-1.53503,0.759888
-1.53961,0.761414
-1.54724,0.761414
-1.55334,0.764465
-1.56097,0.764465
-1.57013,0.759888
-1.57471,0.756836
-1.58386,0.762939
-1.59149,0.764465
-1.5976,0.762939
-1.60828,0.759888
-1.61133,0.761414
-1.61743,0.762939
-1.62506,0.759888
-1.62964,0.761414
-1.64032,0.759888
-1.64642,0.759888
-1.65558,0.759888
-1.66016,0.764465
-1.66931,0.764465
-1.67694,0.761414
-1.68457,0.758362
-1.69067,0.761414
-1.69983,0.765991
-1.70441,0.761414
-1.71204,0.764465
-1.71967,0.758362
-1.72577,0.758362
-1.73035,0.761414
-1.73492,0.761414
-1.74561,0.762939
-1.75018,0.758362
-1.75781,0.761414
-1.76086,0.762939
-1.76697,0.761414
-1.77307,0.759888
-1.78223,0.759888
-1.7868,0.762939
-1.79443,0.764465
-1.79596,0.761414
-1.80359,0.759888
-1.81122,0.761414
-1.81732,0.761414
-1.81885,0.762939
-1.82343,0.764465
-1.82953,0.764465
-1.83563,0.759888
-1.84021,0.764465
-1.84631,0.762939
-1.85242,0.764465
-1.85852,0.762939
-1.8631,0.759888
-1.8692,0.762939
-1.87378,0.761414
-1.88141,0.762939
-1.88751,0.764465
-1.88904,0.762939
-1.89819,0.762939
-1.9043,0.764465
-1.90582,0.764465
-1.91345,0.764465
-1.91803,0.762939
-1.92566,0.761414
-1.92719,0.759888
-1.93634,0.764465
-1.94244,0.762939
-1.95007,0.761414
-1.95465,0.764465
-1.95465,0.764465
-1.96533,0.764465
-1.96991,0.762939
-1.97754,0.759888
-1.98059,0.759888
-1.98364,0.764465
-1.99432,0.764465
-1.99738,0.762939
-2.00653,0.759888
-2.00958,0.761414
-2.01569,0.759888
-2.02179,0.761414
-2.02484,0.762939
-2.02942,0.761414
-2.034,0.759888
-2.034,0.759888
-2.034,0.764465
-2.03094,0.762939
-2.02789,0.761414
-2.02026,0.761414
-2.01569,0.765991
-2.00653,0.762939
-1.9989,0.761414
-1.98364,0.759888
-1.97296,0.764465
-1.95618,0.764465
-1.94244,0.762939
-1.92413,0.759888
-1.90125,0.761414
-1.87988,0.761414
-1.85699,0.765991
-1.83105,0.764465
-1.80664,0.762939
-1.7807,0.758362
-1.75476,0.761414
-1.72272,0.761414
-1.69525,0.761414
-1.66779,0.761414
-1.63574,0.759888
-1.60675,0.761414
-1.57928,0.762939
-1.54724,0.761414
-1.52435,0.761414
-1.49536,0.761414
-1.46484,0.761414
-1.4389,0.764465
-1.41449,0.762939
-1.39313,0.762939
-1.37177,0.762939
-1.3504,0.762939
-1.33057,0.764465
-1.31073,0.761414
-1.29395,0.759888
-1.27716,0.759888
-1.26038,0.764465
-1.24817,0.764465
-1.23444,0.761414
-1.22223,0.761414
-1.21002,0.758362
-1.19934,0.762939
-1.19476,0.765991
-1.18561,0.764465
-1.17798,0.761414
-1.17493,0.759888
-1.16577,0.759888
-1.16425,0.761414
-1.15967,0.764465
-1.15509,0.762939
-1.15356,0.762939
-1.15356,0.761414
-1.15662,0.762939
-1.15356,0.762939
-1.15662,0.759888
-1.15662,0.758362
-1.16119,0.761414
-1.16425,0.764465
-1.16425,0.762939
-1.16882,0.759888
-1.1734,0.761414
-1.1734,0.759888
-1.17645,0.764465
-1.18103,0.759888
-1.18561,0.764465
-1.18866,0.758362
-1.19171,0.761414
-1.19781,0.762939
-1.20544,0.762939
-1.21307,0.762939
-1.21765,0.759888
-1.22375,0.759888
-1.23138,0.762939
-1.23596,0.758362
-1.24207,0.761414
-1.24817,0.758362
-1.2558,0.759888
-1.26038,0.761414
-1.26801,0.765991
-1.27258,0.761414
-1.27869,0.759888
-1.28632,0.758362
-1.28784,0.762939
-1.29089,0.762939
-1.29852,0.761414
-1.29852,0.756836
-1.30463,0.756836
-1.30768,0.759888
-1.31073,0.759888
-1.31226,0.761414
-1.31531,0.759888
-1.31683,0.762939
-1.31683,0.762939
-1.31989,0.759888
-1.32294,0.756836
-1.32904,0.761414
-1.32294,0.761414
-1.32446,0.758362
-1.32904,0.759888
-1.32446,0.758362
-1.33057,0.756836
-1.32904,0.761414
-1.32904,0.761414
-1.33057,0.759888
-1.33209,0.758362
-1.33209,0.758362
-1.33514,0.762939
-1.33514,0.762939
-1.3382,0.758362
-1.34125,0.761414
-1.34125,0.756836
-1.33667,0.759888
-1.34735,0.762939
-1.34888,0.762939
-1.3504,0.759888
-1.35498,0.758362
-1.35651,0.758362
-1.36414,0.759888
-1.36871,0.758362
-1.37329,0.759888
-1.37939,0.759888
-1.38245,0.759888
-1.38702,0.761414
-1.39465,0.759888
-1.40228,0.756836
-1.40381,0.75531
-1.41144,0.756836
-1.41754,0.761414
-1.42059,0.758362
-1.42975,0.761414
-1.43585,0.758362
-1.44348,0.761414
-1.44958,0.758362
-1.45721,0.761414
-1.46637,0.758362
-1.474,0.75531
-1.4801,0.759888
-1.48926,0.759888
-1.49536,0.759888
-1.50604,0.756836
-1.51215,0.756836
-1.5213,0.758362
-1.52588,0.759888
-1.53503,0.758362
-1.54419,0.759888
-1.55487,0.758362
-1.5625,0.75531
-1.57013,0.761414
-1.57776,0.761414
-1.58844,0.756836
-1.59302,0.758362
-1.6037,0.758362
-1.61133,0.759888
-1.62354,0.759888
-1.63116,0.761414
-1.63574,0.75531
-1.64185,0.758362
-1.64948,0.758362
-1.6571,0.762939
-1.66626,0.759888
-1.67847,0.758362
-1.68304,0.759888
-1.69067,0.758362
-1.6983,0.759888
-1.70898,0.758362
-1.71661,0.758362
-1.72424,0.756836
-1.72882,0.761414
-1.74255,0.761414
-1.74408,0.756836
-1.75171,0.758362
-1.75934,0.758362
-1.76392,0.758362
-1.77307,0.759888
-1.7807,0.758362
-1.7868,0.753784
-1.79596,0.756836
-1.80511,0.75531
-1.81427,0.756836
-1.81885,0.756836
-1.82495,0.753784
-1.83258,0.75531
-1.84021,0.758362
-1.84631,0.756836
-1.85242,0.756836
-1.85852,0.756836
-1.86462,0.756836
-1.87378,0.756836
-1.87683,0.758362
-1.88141,0.758362
-1.88751,0.75531
-1.89362,0.75531
-1.89514,0.75531
-1.9043,0.75531
-1.91193,0.758362
-1.91345,0.756836
-1.91956,0.753784
-1.92413,0.758362
-1.93329,0.758362
-1.94092,0.758362
-1.9455,0.756836
-1.95007,0.75531
-1.95618,0.756836
-1.96228,0.759888
-1.96686,0.75531
-1.96686,0.75531
-1.97906,0.75531
-1.98059,0.758362
-1.98975,0.758362
-1.99738,0.75531
-1.99585,0.75531
-2.005,0.756836
-2.00806,0.756836
-2.01416,0.758362
-2.01874,0.75531
-2.02484,0.75531
-2.02942,0.753784
-2.02942,0.756836
-2.0401,0.758362
-2.04163,0.75531
-2.0462,0.753784
-2.05688,0.75531
-2.06146,0.756836
-2.06757,0.756836
-2.07214,0.75531
-2.07672,0.75531
-2.08282,0.75531
-2.09045,0.756836
-2.09808,0.753784
-2.10266,0.756836
-2.10571,0.753784
-2.10876,0.75531
-2.11639,0.756836
-2.11945,0.758362
-2.12097,0.756836
-2.12097,0.75531
-2.11639,0.753784
-2.11639,0.75531
-2.11029,0.75531
-2.10724,0.756836
-2.09961,0.753784
-2.09198,0.75531
-2.07977,0.756836
-2.06451,0.756836
-2.05383,0.753784
-2.03705,0.752258
-2.01721,0.752258
-2.00043,0.756836
-1.97754,0.752258
-1.95465,0.753784
-1.93329,0.752258
-1.90887,0.752258
-1.88293,0.756836
-1.86005,0.756836
-1.83716,0.75531
-1.81122,0.752258
-1.77917,0.756836
-1.75476,0.753784
-1.72882,0.75531
-1.70441,0.753784
-1.67847,0.750732
-1.65405,0.75531
-1.63269,0.758362
-1.60828,0.756836
-1.58386,0.756836
-1.56097,0.753784
-1.54266,0.753784
-1.5213,0.759888
-1.50299,0.759888
-1.49078,0.75531
-1.47247,0.75531
-1.46027,0.75531
-1.44501,0.761414
-1.43738,0.759888
-1.4267,0.756836
-1.41907,0.752258
-1.41144,0.75531
-1.40381,0.756836
-1.39465,0.758362
-1.39313,0.758362
-1.39008,0.75531
-1.3855,0.753784
-1.3855,0.756836
-1.37939,0.75531
-1.38397,0.756836
-1.38245,0.752258
-1.38397,0.753784
-1.38702,0.758362
-1.38702,0.756836
-1.39465,0.756836
-1.39465,0.752258
-1.39771,0.753784
-1.40228,0.75531
-1.40839,0.756836
-1.41296,0.75531
-1.41754,0.752258
-1.42517,0.750732
-1.42975,0.753784
-1.43433,0.753784
-1.44348,0.75531
-1.45111,0.750732
-1.45721,0.752258
-1.46484,0.750732
-1.47095,0.753784
-1.47552,0.752258
-1.48468,0.749207
-1.49536,0.747681
-1.49841,0.752258
-1.50604,0.753784
-1.51367,0.749207
-1.5213,0.746155
-1.5274,0.747681
-1.53198,0.752258
-1.53503,0.747681
-1.54266,0.747681
-1.54419,0.738525
-1.55182,0.746155
-1.55487,0.750732
-1.55792,0.747681
-1.5625,0.746155
-1.56555,0.743103
-1.56708,0.743103
-1.57166,0.750732
-1.57471,0.753784
-1.57776,0.75531
-1.57776,0.75531
-1.57928,0.752258
-1.57928,0.752258
-1.58539,0.750732
-1.58691,0.750732
-1.58539,0.749207
-1.58691,0.747681
-1.58691,0.750732
-1.58844,0.749207
-1.59149,0.749207
-1.58997,0.747681
-1.58997,0.749207
-1.59149,0.749207
-1.58997,0.752258
-1.58997,0.750732
-1.59149,0.749207
-1.59302,0.749207
-1.59607,0.749207
-1.59912,0.750732
-1.60065,0.752258
-1.60522,0.747681
-1.6037,0.747681
-1.60675,0.747681
-1.60828,0.749207
-1.61591,0.750732
-1.61896,0.746155
-1.62201,0.747681
-1.62659,0.749207
-1.62964,0.750732
-1.62964,0.750732
-1.63727,0.749207
-1.64185,0.749207
-1.64337,0.749207
-1.6571,0.749207
-1.6571,0.750732
-1.66626,0.746155
-1.66931,0.743103
-1.67694,0.749207
-1.68304,0.749207
-1.68915,0.750732
-1.69525,0.749207
-1.70135,0.749207
-1.71204,0.747681
-1.71509,0.749207
-1.72424,0.743103
-1.73187,0.746155
-1.74255,0.746155
-1.74713,0.747681
-1.75629,0.747681
-1.76086,0.750732
-1.7746,0.746155
-1.77917,0.749207
-1.78833,0.747681
-1.79443,0.747681
-1.80511,0.750732
-1.81122,0.747681
-1.82037,0.746155
-1.82495,0.750732
-1.83258,0.749207
-1.84021,0.749207
-1.84631,0.746155
-1.85547,0.746155
-1.86005,0.750732
-1.8692,0.747681
-1.87836,0.747681
-1.88599,0.743103
-1.89209,0.747681
-1.90277,0.752258
-1.91193,0.747681
-1.92108,0.749207
-1.92719,0.747681
-1.94092,0.747681
-1.94397,0.750732
-1.9516,0.747681
-1.95618,0.749207
-1.96991,0.747681
-1.97754,0.746155
-1.98517,0.752258
-1.98975,0.746155
-1.9989,0.747681
-2.00958,0.746155
-2.01721,0.746155
-2.02179,0.750732
-2.02942,0.747681
-2.03705,0.746155
-2.04315,0.740051
-2.05231,0.749207
-2.05688,0.749207
-2.06604,0.752258
-2.07062,0.749207
-2.07672,0.743103
-2.08282,0.747681
-2.09045,0.749207
-2.09503,0.747681
-2.09808,0.750732
-2.10724,0.747681
-2.11182,0.741577
-2.11487,0.752258
-2.12555,0.743103
-2.13013,0.747681
-2.13928,0.746155
-2.14081,0.746155
-2.14844,0.749207
-2.15454,0.749207
-2.16217,0.747681
-2.16827,0.746155
-2.17438,0.746155
-2.17896,0.746155
-2.18811,0.746155
-2.19269,0.746155
-2.19879,0.747681
-2.20337,0.747681
-2.211,0.749207
-2.22015,0.749207
-2.22473,0.746155
-2.22778,0.743103
-2.23236,0.747681
-2.24152,0.749207
-2.25067,0.747681
-2.25677,0.743103
-2.25983,0.741577
-2.26593,0.743103
-2.27203,0.747681
-2.27509,0.747681
-2.28424,0.743103
-2.28577,0.746155
-2.29034,0.746155
-2.29797,0.747681
-2.30103,0.747681
-2.31018,0.743103
-2.31476,0.740051
-2.31628,0.743103
-2.32086,0.746155
-2.32849,0.747681
-2.33154,0.741577
-2.33765,0.743103
-2.34222,0.743103
-2.34833,0.746155
-2.34833,0.750732
-2.35596,0.747681
-2.35748,0.743103
-2.36053,0.746155
-2.36206,0.746155
-2.36206,0.750732
-2.35901,0.743103
-2.36053,0.740051
-2.35443,0.743103
-2.35291,0.743103
-2.3468,0.741577
-2.33459,0.743103
-2.32697,0.735474
-2.31323,0.746155
-2.29645,0.743103
-2.28271,0.749207
-2.26746,0.741577
-2.25067,0.740051
-2.23389,0.743103
-2.211,0.743103
-2.19116,0.746155
-2.1698,0.741577
-2.14386,0.743103
-2.1225,0.743103
-2.09656,0.743103
-2.07367,0.749207
-2.05078,0.743103
-2.02179,0.738525
-1.99738,0.746155
-1.97449,0.746155
-1.94855,0.747681
-1.92719,0.746155
-1.90277,0.740051
-1.87988,0.743103
-1.85699,0.747681
-1.83868,0.743103
-1.81885,0.746155
-1.79749,0.741577
-1.78223,0.741577
-1.76086,0.746155
-1.74866,0.746155
-1.73492,0.740051
-1.71814,0.741577
-1.70441,0.746155
-1.69525,0.747681
-1.6861,0.746155
-1.67694,0.743103
-1.66931,0.741577
-1.65863,0.741577
-1.651,0.747681
-1.64642,0.743103
-1.64185,0.743103
-1.63727,0.740051
-1.63116,0.741577
-1.62964,0.746155
-1.62811,0.747681
-1.62506,0.741577
-1.62354,0.740051
-1.62048,0.743103
-1.62201,0.746155
-1.62048,0.746155
-1.61896,0.740051
-1.61896,0.740051
-1.61743,0.740051
-1.61896,0.741577
-1.61896,0.747681
-1.62354,0.740051
-1.62048,0.741577
-1.62506,0.741577
-1.62659,0.743103
-1.62811,0.746155
-1.62811,0.746155
-1.63269,0.740051
-1.63422,0.741577
-1.64032,0.743103
-1.64032,0.746155
-1.64337,0.743103
-1.64795,0.740051
-1.651,0.741577
-1.651,0.740051
-1.65863,0.743103
-1.6571,0.741577
-1.66473,0.738525
-1.66321,0.740051
-1.66931,0.741577
-1.67389,0.743103
-1.67999,0.743103
-1.68152,0.738525
-1.68457,0.743103
-1.68762,0.741577
-1.6861,0.743103
-1.6922,0.740051
-1.69525,0.740051
-1.69525,0.741577
-1.69983,0.746155
-1.70135,0.743103
-1.70135,0.743103
-1.70441,0.738525
-1.70441,0.741577
-1.70441,0.746155
-1.70288,0.746155
-1.70593,0.738525
-1.70441,0.747681
-1.70441,0.740051
-1.70288,0.740051
-1.70441,0.746155
-1.70135,0.741577
-1.70288,0.740051
-1.70593,0.741577
-1.70593,0.743103
-1.70441,0.746155
-1.70441,0.743103
-1.70593,0.737
-1.70898,0.740051
-1.71051,0.741577
-1.70898,0.741577
-1.70898,0.741577
-1.71051,0.741577
-1.71661,0.743103
-1.71509,0.741577
-1.71661,0.740051
-1.71661,0.740051
-1.72272,0.740051
-1.72424,0.746155
-1.72424,0.746155
-1.73035,0.740051
-1.73187,0.741577
-1.73645,0.738525
-1.74408,0.741577
-1.74255,0.740051
-1.74713,0.743103
-1.75171,0.746155
-1.75934,0.741577
-1.75934,0.741577
-1.76544,0.740051
-1.77155,0.740051
-1.77612,0.740051
-1.7807,0.737
-1.78223,0.738525
-1.7868,0.740051
-1.79596,0.738525
-1.79749,0.738525
-1.80664,0.738525
-1.81122,0.740051
-1.81427,0.743103
-1.81732,0.738525
-1.82343,0.741577
-1.83105,0.737
-1.83716,0.740051
-1.84479,0.738525
-1.85089,0.738525
-1.85699,0.738525
-1.86157,0.740051
-1.87225,0.737
-1.87836,0.741577
-1.88446,0.743103
-1.89056,0.741577
-1.89972,0.740051
-1.90582,0.738525
-1.91193,0.738525
-1.91803,0.746155
-1.92566,0.738525
-1.93176,0.737
-1.93939,0.740051
-1.94244,0.740051
-1.94702,0.743103
-1.9516,0.741577
-1.9577,0.737
-1.96991,0.738525
-1.96838,0.741577
-1.97601,0.737
-1.98212,0.737
-1.98822,0.738525
-1.9928,0.738525
-1.9989,0.740051
-2.00195,0.743103
-2.00958,0.741577
-2.01111,0.740051
-2.01569,0.741577
-2.02026,0.738525
-2.02484,0.741577
-2.03094,0.738525
-2.034,0.737
-2.03705,0.740051
-2.04163,0.740051
-2.0462,0.738525
-2.05078,0.740051
-2.05383,0.738525
-2.05841,0.738525
-2.06146,0.738525
-2.06909,0.737
-2.0752,0.738525
-2.0752,0.740051
-2.07825,0.737
-2.08435,0.740051
-2.08588,0.740051
-2.08893,0.743103
-2.10114,0.740051
-2.09808,0.740051
-2.09961,0.738525
-2.10571,0.743103
-2.10876,0.738525
-2.11182,0.738525
-2.11639,0.737
-2.12402,0.740051
-2.12708,0.743103
-2.13165,0.741577
-2.1347,0.737
-2.13928,0.735474
-2.13928,0.737
-2.14386,0.743103
-2.14691,0.740051
-2.15454,0.735474
-2.15302,0.737
-2.15912,0.740051
-2.16217,0.738525
-2.16522,0.740051
-2.17133,0.738525
-2.1759,0.737
-2.18048,0.741577
-2.18811,0.740051
-2.19116,0.740051
-2.19574,0.738525
-2.19421,0.737
-2.19879,0.740051
-2.20642,0.740051
-2.211,0.740051
-2.21558,0.738525
-2.22015,0.738525
-2.22473,0.741577
-2.22626,0.741577
-2.23083,0.741577
-2.23694,0.737
-2.23999,0.738525
-2.24609,0.740051
-2.25067,0.741577
-2.25525,0.741577
-2.25983,0.740051
-2.2644,0.735474
-2.27051,0.738525
-2.27356,0.738525
-2.27966,0.740051
-2.28424,0.737
-2.28729,0.738525
-2.29187,0.737
-2.2934,0.740051
-2.29797,0.741577
-2.30408,0.733948
-2.31018,0.738525
-2.31323,0.738525
-2.31781,0.743103
-2.32086,0.741577
-2.32239,0.738525
-2.32849,0.735474
-2.33154,0.741577
-2.33307,0.740051
-2.33612,0.741577
-2.3407,0.737
-2.3407,0.738525
-2.34222,0.743103
-2.33765,0.741577
-2.33765,0.737
-2.33612,0.738525
-2.33154,0.735474
-2.32544,0.738525
-2.31781,0.741577
-2.30713,0.740051
-2.2995,0.738525
-2.28577,0.733948
-2.27203,0.738525
-2.25525,0.737
-2.24152,0.738525
-2.22321,0.738525
-2.20642,0.737
-2.18811,0.737
-2.16217,0.738525
-2.14081,0.737
-2.11487,0.738525
-2.09503,0.738525
-2.06909,0.740051
-2.0401,0.740051
-2.01569,0.738525
-1.9928,0.735474
-1.96686,0.738525
-1.93939,0.738525
-1.9165,0.737
-1.89056,0.740051
-1.8631,0.738525
-1.83716,0.737
-1.81732,0.737
-1.79443,0.743103
-1.7746,0.740051
-1.75476,0.737
-1.73798,0.735474
-1.72119,0.741577
-1.70288,0.740051
-1.68457,0.737
-1.67084,0.733948
-1.65558,0.740051
-1.64642,0.740051
-1.62811,0.740051
-1.61591,0.738525
-1.60675,0.737
-1.5976,0.735474
-1.58997,0.738525
-1.57776,0.740051
-1.57166,0.737
-1.56708,0.735474
-1.5625,0.733948
-1.55792,0.740051
-1.55029,0.740051
-1.55029,0.735474
-1.54266,0.733948
-1.53961,0.735474
-1.53656,0.737
-1.53961,0.738525
-1.53809,0.738525
-1.53503,0.735474
-1.53503,0.735474
-1.53809,0.738525
-1.53351,0.738525
-1.53503,0.735474
-1.53656,0.733948
-1.53809,0.737
-1.53809,0.738525
-1.53961,0.741577
-1.54114,0.735474
-1.54419,0.737
-1.54572,0.733948
-1.55029,0.735474
-1.55182,0.738525
-1.55334,0.738525
-1.55334,0.737
-1.5564,0.735474
-1.55945,0.733948
-1.56403,0.740051
-1.5686,0.735474
-1.5686,0.733948
-1.57166,0.732422
-1.57318,0.735474
-1.57776,0.733948
-1.57623,0.738525
-1.57776,0.733948
-1.57776,0.732422
-1.58234,0.735474
-1.58234,0.735474
-1.57928,0.735474
-1.58691,0.733948
-1.58386,0.737
-1.58691,0.737
-1.58691,0.740051
-1.58539,0.735474
-1.58539,0.733948
-1.58234,0.732422
-1.58386,0.735474
-1.58234,0.740051
-1.58386,0.737
-1.57776,0.733948
-1.57318,0.733948
-1.57318,0.737
-1.57166,0.741577
-1.57166,0.737
-1.5686,0.732422
-1.57013,0.733948
-1.56555,0.737
-1.56708,0.735474
-1.56403,0.735474
-1.5625,0.737
-1.55792,0.732422
-1.55792,0.735474
-1.56097,0.737
-1.55945,0.737
-1.55945,0.733948
-1.55945,0.72937
-1.56097,0.737
-1.5625,0.737
-1.56403,0.735474
-1.56403,0.733948
-1.56708,0.735474
-1.5686,0.735474
-1.57013,0.737
-1.5686,0.735474
-1.57166,0.733948
-1.57166,0.730896
-1.57318,0.732422
-1.58234,0.737
-1.58234,0.733948
-1.58844,0.737
-1.58997,0.733948
-1.59454,0.733948
-1.60065,0.733948
-1.6037,0.735474
-1.60675,0.733948
-1.61133,0.733948
-1.62048,0.737
-1.62506,0.735474
-1.62964,0.733948
-1.63422,0.733948
-1.64185,0.730896
-1.64948,0.733948
-1.651,0.737
-1.6571,0.732422
-1.66321,0.732422
-1.66626,0.733948
-1.67236,0.732422
-1.67694,0.737
-1.67999,0.733948
-1.69067,0.733948
-1.69373,0.735474
-1.69983,0.732422
-1.70441,0.735474
-1.71356,0.735474
-1.71814,0.732422
-1.72424,0.732422
-1.73035,0.735474
-1.73645,0.737
-1.74408,0.737
-1.74713,0.732422
-1.75171,0.732422
-1.76086,0.733948
-1.76239,0.738525
-1.76849,0.740051
-1.77765,0.732422
-1.78223,0.733948
-1.78528,0.733948
-1.79138,0.735474
-1.79443,0.735474
-1.80359,0.735474
-1.80664,0.733948
-1.81122,0.735474
-1.81427,0.733948
-1.81885,0.737
-1.82343,0.732422
-1.828,0.733948
-1.83258,0.732422
-1.84021,0.737
-1.84479,0.737
-1.84631,0.732422
-1.85394,0.730896
-1.85699,0.737
-1.8631,0.735474
-1.86768,0.735474
-1.87225,0.733948
-1.87683,0.730896
-1.87988,0.733948
-1.88446,0.737
-1.89056,0.733948
-1.89056,0.732422
-1.89362,0.732422
-1.90277,0.732422
-1.90582,0.733948
-1.9104,0.737
-1.91498,0.733948
-1.91956,0.730896
-1.92261,0.733948
-1.92566,0.733948
-1.93024,0.733948
-1.93481,0.735474
-1.94397,0.733948
-1.94702,0.732422
-1.95313,0.735474
-1.95618,0.733948
-1.9577,0.732422
-1.96381,0.732422
-1.96838,0.732422
-1.97296,0.735474
-1.97449,0.730896
-1.97754,0.732422
-1.98059,0.730896
-1.98669,0.730896
-1.9928,0.733948
-1.9989,0.737
-2.00195,0.732422
-2.005,0.732422
-2.00958,0.735474
-2.01263,0.732422
-2.01416,0.733948
-2.02026,0.732422
-2.02484,0.732422
-2.02942,0.735474
-2.03247,0.733948
-2.03705,0.735474
-2.03857,0.732422
-2.04315,0.732422
-2.04773,0.732422
-2.05078,0.735474
-2.05688,0.733948
-2.06299,0.732422
-2.06299,0.732422
-2.07062,0.733948
-2.07214,0.733948
-2.0752,0.732422
-2.0813,0.732422
-2.08282,0.730896
-2.08893,0.732422
-2.09351,0.733948
-2.09503,0.733948
-2.09656,0.732422
-2.09808,0.732422
-2.10266,0.732422
-2.10571,0.735474
-2.10876,0.735474
-2.11029,0.732422
-2.11487,0.730896
-2.11334,0.732422
-2.1225,0.733948
-2.12097,0.735474
-2.12402,0.72937
-2.12708,0.730896
-2.1286,0.732422
-2.13013,0.735474
-2.13165,0.732422
-2.13165,0.733948
-2.1347,0.732422
-2.13013,0.732422
-2.12708,0.735474
-2.12708,0.730896
-2.11639,0.733948
-2.10876,0.732422
-2.10419,0.732422
-2.09351,0.737
-2.07977,0.735474
-2.06299,0.733948
-2.04926,0.730896
-2.03247,0.730896
-2.00958,0.733948
-1.99432,0.735474
-1.97296,0.735474
-1.94855,0.730896
-1.92413,0.735474
-1.89972,0.733948
-1.87378,0.732422
-1.84784,0.72937
-1.81885,0.72937
-1.79138,0.72937
-1.76239,0.733948
-1.73187,0.733948
-1.70593,0.72937
-1.67999,0.72937
-1.65253,0.732422
-1.62354,0.732422
-1.59912,0.732422
-1.57623,0.733948
-1.55334,0.727844
-1.53198,0.730896
-1.51062,0.732422
-1.48926,0.732422
-1.47247,0.727844
-1.45111,0.730896
-1.43585,0.732422
-1.41754,0.735474
-1.40228,0.730896
-1.38702,0.730896
-1.37634,0.727844
-1.36261,0.727844
-1.35498,0.72937
-1.34277,0.732422
-1.33209,0.732422
-1.32446,0.72937
-1.31989,0.72937
-1.31378,0.735474
-1.30615,0.735474
-1.30463,0.72937
-1.29852,0.726318
-1.29547,0.733948
-1.29089,0.732422
-1.28784,0.732422
-1.29242,0.732422
-1.28632,0.727844
-1.28632,0.730896
-1.28326,0.732422
-1.28174,0.72937
-1.28784,0.72937
-1.28632,0.72937
-1.28784,0.730896
-1.28937,0.733948
-1.29242,0.732422
-1.29547,0.730896
-1.29547,0.72937
-1.30157,0.727844
-1.30615,0.732422
-1.3092,0.730896
-1.31531,0.730896
-1.31836,0.727844
-1.32141,0.732422
-1.33057,0.733948
-1.32904,0.732422
-1.33362,0.72937
-1.33667,0.72937
-1.34125,0.730896
-1.34583,0.732422
-1.34888,0.733948
-1.35193,0.733948
-1.35651,0.72937
-1.35498,0.732422
-1.36108,0.735474
-1.36414,0.730896
-1.36566,0.732422
-1.36871,0.72937
-1.36566,0.730896
-1.36871,0.732422
-1.36719,0.732422
-1.37024,0.732422
-1.36871,0.72937
-1.36719,0.72937
-1.36719,0.735474
-1.36566,0.730896
-1.36719,0.730896
-1.36719,0.726318
-1.36414,0.72937
-1.36108,0.735474
-1.36566,0.733948
-1.36108,0.730896
-1.36261,0.730896
-1.36108,0.72937
-1.35803,0.733948
-1.35651,0.732422
-1.35803,0.733948
-1.35651,0.727844
-1.35803,0.730896
-1.35803,0.733948
-1.35651,0.730896
-1.36108,0.730896
-1.36261,0.730896
-1.36261,0.732422
-1.36414,0.730896
-1.36566,0.72937
-1.36566,0.732422
-1.37024,0.732422
-1.37024,0.730896
-1.37329,0.732422
-1.37482,0.733948
-1.37939,0.730896
-1.3855,0.72937
-1.3855,0.730896
-1.39008,0.72937
-1.39771,0.730896
-1.40228,0.733948
-1.40533,0.730896
-1.41144,0.727844
-1.41449,0.733948
-1.42059,0.730896
-1.42517,0.72937
-1.4328,0.730896
-1.43738,0.727844
-1.44501,0.732422
-1.44806,0.730896
-1.45874,0.730896
-1.46484,0.727844
-1.4679,0.72937
-1.47247,0.732422
-1.48163,0.732422
-1.48773,0.72937
-1.49689,0.733948
-1.50452,0.726318
-1.51062,0.730896
-1.51978,0.733948
-1.52588,0.730896
-1.53198,0.730896
-1.53656,0.727844
-1.54724,0.732422
-1.55487,0.730896
-1.55792,0.730896
-1.57013,0.72937
-1.57623,0.72937
-1.58539,0.730896
-1.58691,0.72937
-1.5976,0.730896
-1.60065,0.730896
-1.60828,0.72937
-1.61743,0.735474
-1.62506,0.730896
-1.63116,0.72937
-1.63727,0.730896
-1.64337,0.730896
-1.65405,0.732422
-1.6571,0.732422
-1.66473,0.72937
-1.67084,0.72937
-1.67694,0.72937
-1.68152,0.730896
-1.68762,0.732422
-1.69373,0.727844
-1.6983,0.730896
-1.70135,0.730896
-1.71051,0.730896
-1.71356,0.732422
-1.72119,0.732422
-1.72577,0.72937
-1.72882,0.730896
-1.7334,0.735474
-1.73798,0.732422
-1.74561,0.726318
-1.75171,0.730896
-1.75629,0.72937
-1.75934,0.733948
-1.76697,0.730896
-1.77155,0.730896
-1.77612,0.732422
-1.78223,0.733948
-1.78833,0.732422
-1.79138,0.730896
-1.79443,0.72937
-1.79901,0.730896
-1.80817,0.730896
-1.81122,0.732422
-1.8158,0.732422
-1.8219,0.72937
-1.82495,0.732422
-1.83105,0.730896
-1.83563,0.730896
-1.83716,0.732422
-1.84326,0.732422
-1.84937,0.730896
-1.85089,0.730896
-1.85394,0.733948
-1.85547,0.735474
-1.86462,0.730896
-1.86768,0.72937
-1.87073,0.732422
-1.87531,0.735474
-1.87988,0.737
-1.88446,0.72937
-1.88751,0.730896
-1.89056,0.72937
-1.89514,0.733948
-1.90125,0.733948
-1.90582,0.72937
-1.90887,0.732422
-1.91193,0.732422
-1.91803,0.733948
-1.92108,0.733948
-1.92719,0.72937
-1.92719,0.733948
-1.93176,0.733948
-1.93329,0.735474
-1.94092,0.732422
-1.94702,0.730896
-1.94855,0.730896
-1.95465,0.732422
-1.95923,0.737
-1.96533,0.733948
-1.96838,0.730896
-1.97296,0.730896
-1.97449,0.735474
-1.98364,0.732422
-1.9928,0.733948
-1.99432,0.732422
-2.00195,0.72937
-2.00653,0.733948
-2.00806,0.732422
-2.01111,0.733948
-2.01721,0.735474
-2.02026,0.730896
-2.02484,0.733948
-2.02789,0.733948
-2.02942,0.735474
-2.03247,0.732422
-2.03094,0.730896
-2.02942,0.733948
-2.02637,0.737
-2.02942,0.737
-2.02026,0.733948
-2.01416,0.732422
-2.00348,0.733948
-1.99432,0.737
-1.98059,0.737
-1.96686,0.730896
-1.95007,0.735474
-1.93176,0.738525
-1.91345,0.738525
-1.89056,0.738525
-1.8692,0.735474
-1.84326,0.735474
-1.8158,0.733948
-1.79138,0.740051
-1.76239,0.738525
-1.73035,0.737
-1.69983,0.735474
-1.66931,0.740051
-1.63879,0.738525
-1.60675,0.738525
-1.57166,0.737
-1.54266,0.733948
-1.51062,0.737
-1.47705,0.741577
-1.44806,0.738525
-1.41754,0.735474
-1.39008,0.735474
-1.36566,0.738525
-1.33972,0.738525
-1.31226,0.740051
-1.28937,0.740051
-1.26801,0.733948
-1.24817,0.738525
-1.22681,0.740051
-1.21002,0.741577
-1.19629,0.737
-1.18256,0.738525
-1.16577,0.737
-1.15509,0.741577
-1.14441,0.741577
-1.13068,0.738525
-1.12457,0.738525
-1.11389,0.740051
-1.10931,0.740051
-1.10168,0.741577
-1.09711,0.740051
-1.08948,0.733948
-1.0849,0.740051
-1.08337,0.741577
-1.08032,0.740051
-1.0788,0.738525
-1.07269,0.740051
-1.07117,0.741577
-1.07269,0.743103
-1.06812,0.737
-1.06964,0.738525
-1.07117,0.737
-1.07422,0.741577
-1.0788,0.743103
-1.07727,0.741577
-1.07727,0.741577
-1.08185,0.741577
-1.08337,0.741577
-1.08643,0.746155
-1.09253,0.743103
-1.09711,0.743103
-1.09863,0.741577
-1.10474,0.743103
-1.11389,0.750732
-1.11694,0.747681
-1.12305,0.743103
-1.12915,0.741577
-1.13525,0.741577
-1.13983,0.747681
-1.14594,0.747681
-1.15356,0.743103
-1.15662,0.746155
-1.16425,0.743103
-1.1673,0.749207
-1.17493,0.747681
-1.18103,0.747681
-1.18561,0.750732
-1.19324,0.749207
-1.19324,0.752258
-1.19934,0.749207
-1.20697,0.749207
-1.20697,0.750732
-1.21155,0.750732
-1.2146,0.750732
-1.21918,0.747681
-1.21918,0.746155
-1.22223,0.750732
-1.22681,0.749207
-1.22528,0.752258
-1.22681,0.750732
-1.22986,0.747681
-1.23138,0.749207
-1.23596,0.750732
-1.23596,0.752258
-1.23749,0.750732
-1.23901,0.749207
-1.23901,0.747681
-1.23749,0.750732
-1.24054,0.753784
-1.24207,0.750732
-1.24359,0.753784
-1.24512,0.750732
-1.24664,0.75531
-1.24969,0.75531
-1.24817,0.75531
-1.25275,0.753784
-1.25427,0.750732
-1.26038,0.752258
-1.2619,0.756836
-1.26801,0.758362
-1.27411,0.753784
-1.28021,0.753784
-1.28174,0.753784
-1.28326,0.756836
-1.29089,0.756836
-1.29395,0.75531
-1.30463,0.753784
-1.31073,0.758362
-1.31531,0.756836
-1.31989,0.759888
-1.32599,0.756836
-1.33514,0.758362
-1.33972,0.758362
-1.34888,0.759888
-1.35498,0.759888
-1.36261,0.758362
-1.37329,0.758362
-1.37787,0.756836
-1.39008,0.759888
-1.39465,0.759888
-1.40686,0.758362
-1.41296,0.759888
-1.42212,0.759888
-1.42975,0.761414
-1.4389,0.759888
-1.44653,0.758362
-1.46027,0.761414
-1.47095,0.758362
-1.47705,0.764465
-1.48926,0.762939
-1.49994,0.761414
-1.50757,0.762939
-1.5152,0.762939
-1.52435,0.762939
-1.53503,0.762939
-1.54114,0.761414
-1.55182,0.762939
-1.55792,0.765991
-1.56708,0.769043
-1.57623,0.764465
-1.58691,0.762939
-1.59454,0.767517
-1.60217,0.765991
-1.61438,0.764465
-1.61896,0.767517
-1.62964,0.762939
-1.63879,0.764465
-1.64642,0.765991
-1.65558,0.769043
-1.66321,0.765991
-1.66626,0.764465
-1.67694,0.765991
-1.68457,0.765991
-1.69067,0.769043
-1.6983,0.770569
-1.70593,0.769043
-1.71204,0.769043
-1.71967,0.769043
-1.72424,0.775146
-1.73035,0.772095
-1.73798,0.765991
-1.74561,0.767517
-1.75171,0.772095
-1.75934,0.775146
-1.76697,0.775146
-1.77307,0.770569
-1.77917,0.769043
-1.78833,0.770569
-1.78986,0.778198
-1.79901,0.775146
-1.80664,0.775146
-1.8158,0.775146
-1.81885,0.776672
-1.82648,0.779724
-1.83258,0.776672
-1.84021,0.775146
-1.84631,0.770569
-1.85394,0.775146
-1.86005,0.778198
-1.87073,0.775146
-1.87683,0.778198
-1.88141,0.772095
-1.88751,0.778198
-1.89972,0.779724
-1.9043,0.78125
-1.91498,0.775146
-1.91803,0.779724
-1.92413,0.776672
-1.93329,0.778198
-1.93634,0.778198
-1.94397,0.778198
-1.95313,0.778198
-1.9577,0.78125
-1.96381,0.78125
-1.96838,0.78125
-1.97296,0.782776
-1.98059,0.78125
-1.98517,0.778198
-1.9928,0.78125
-1.9989,0.782776
-2.00348,0.784302
-2.00958,0.78125
-2.01874,0.782776
-2.02637,0.784302
-2.03094,0.784302
-2.03247,0.782776
-2.04468,0.78125
-2.04773,0.782776
-2.05383,0.787354
-2.06451,0.787354
-2.06757,0.784302
-2.0752,0.784302
-2.08282,0.784302
-2.08893,0.788879
-2.09656,0.785828
-2.10419,0.787354
-2.10876,0.782776
-2.11334,0.785828
-2.12555,0.788879
-2.13165,0.787354
-2.13623,0.787354
-2.14539,0.785828
-2.14844,0.785828
-2.15759,0.788879
-2.16522,0.788879
-2.17133,0.788879
-2.17743,0.787354
-2.18964,0.784302
-2.19269,0.791931
-2.19879,0.790405
-2.2049,0.788879
-2.20947,0.791931
-2.21863,0.793457
-2.22321,0.791931
-2.22778,0.790405
-2.23541,0.790405
-2.24304,0.788879
-2.24762,0.790405
-2.25677,0.794983
-2.26288,0.794983
-2.26746,0.791931
-2.27509,0.790405
-2.27966,0.790405
-2.28577,0.794983
-2.29187,0.794983
-2.29645,0.791931
-2.29492,0.790405
-2.2995,0.793457
-2.29797,0.798035
-2.30255,0.796509
-2.30255,0.794983
-2.30103,0.793457
-2.29645,0.794983
-2.2934,0.794983
-2.28729,0.798035
-2.27966,0.794983
-2.27051,0.793457
-2.2583,0.796509
-2.24304,0.798035
-2.22931,0.794983
-2.21405,0.796509
-2.19421,0.793457
-2.17438,0.794983
-2.15149,0.798035
-2.13318,0.798035
-2.11334,0.796509
-2.09045,0.794983
-2.06604,0.798035
-2.0401,0.799561
-2.01569,0.798035
-1.99432,0.796509
-1.96991,0.799561
-1.9455,0.798035
-1.92108,0.799561
-1.89972,0.799561
-1.87836,0.798035
-1.85242,0.794983
-1.82953,0.798035
-1.81427,0.801086
-1.79443,0.799561
-1.77917,0.799561
-1.75781,0.796509
-1.73645,0.801086
-1.72729,0.801086
-1.71204,0.799561
-1.69678,0.798035
-1.6861,0.798035
-1.67694,0.798035
-1.66779,0.801086
-1.66016,0.804138
-1.6571,0.801086
-1.64642,0.798035
-1.64337,0.804138
-1.64185,0.804138
-1.63727,0.804138
-1.63116,0.801086
-1.63116,0.801086
-1.62964,0.801086
-1.62659,0.804138
-1.62506,0.805664
-1.62506,0.804138
-1.62659,0.804138
-1.62659,0.804138
-1.63116,0.804138
-1.62811,0.808716
-1.63116,0.805664
-1.63574,0.801086
-1.63574,0.805664
-1.63879,0.808716
-1.64032,0.808716
-1.64795,0.805664
-1.651,0.804138
-1.64948,0.801086
-1.65558,0.80719
-1.66016,0.80719
-1.66473,0.804138
-1.66931,0.801086
-1.67389,0.804138
-1.67999,0.80719
-1.68762,0.80719
-1.69067,0.805664
-1.69525,0.805664
-1.70135,0.80719
-1.70441,0.810242
-1.71051,0.811768
-1.71356,0.80719
-1.72119,0.80719
-1.72424,0.80719
-1.72882,0.810242
-1.73187,0.810242
-1.73798,0.810242
-1.73798,0.805664
-1.74408,0.80719
-1.74866,0.810242
-1.75171,0.805664
-1.75171,0.810242
-1.75629,0.808716
-1.75781,0.80719
-1.76086,0.810242
-1.76239,0.810242
-1.76697,0.811768
-1.76849,0.808716
-1.7746,0.808716
-1.77612,0.808716
-1.77765,0.810242
-1.77765,0.808716
-1.77765,0.80719
-1.77765,0.808716
-1.77917,0.808716
-1.7807,0.814819
-1.7807,0.808716
-1.78528,0.810242
-1.78528,0.808716
-1.78528,0.811768
-1.78986,0.811768
-1.78986,0.811768
-1.79138,0.810242
-1.79291,0.810242
-1.79749,0.810242
-1.79749,0.813293
-1.80511,0.810242
-1.80664,0.811768
-1.81122,0.810242
-1.8158,0.811768
-1.8158,0.813293
-1.8158,0.814819
-1.82037,0.810242
-1.82343,0.808716
-1.82648,0.811768
-1.82953,0.813293
-1.83105,0.813293
-1.83868,0.80719
-1.84174,0.810242
-1.84631,0.813293
-1.85394,0.817871
-1.85547,0.814819
-1.86005,0.813293
-1.8692,0.808716
-1.87378,0.813293
-1.87988,0.811768
-1.88599,0.813293
-1.88904,0.814819
-1.89819,0.813293
-1.90277,0.813293
-1.90735,0.813293
-1.91345,0.813293
-1.91803,0.811768
-1.92261,0.811768
-1.93176,0.817871
-1.93939,0.816345
-1.94397,0.814819
-1.95313,0.813293
-1.95618,0.811768
-1.96381,0.816345
-1.97296,0.814819
-1.98212,0.814819
-1.98669,0.810242
-1.98822,0.814819
-2.00043,0.814819
-2.00806,0.814819
-2.01416,0.814819
-2.02026,0.813293
-2.03094,0.811768
-2.034,0.816345
-2.0401,0.816345
-2.04926,0.814819
-2.05688,0.811768
-2.06299,0.810242
-2.07062,0.816345
-2.07825,0.814819
-2.08282,0.814819
-2.09045,0.811768
-2.09351,0.811768
-2.10114,0.817871
-2.10419,0.817871
-2.11029,0.814819
-2.11639,0.814819
-2.11639,0.816345
-2.12708,0.816345
-2.13165,0.814819
-2.13776,0.813293
-2.14233,0.810242
-2.14539,0.814819
-2.15454,0.817871
-2.15607,0.816345
-2.16522,0.813293
-2.1698,0.814819
-2.17438,0.814819
-2.17896,0.817871
-2.18658,0.817871
-2.19269,0.814819
-2.19727,0.811768
-2.20184,0.814819
-2.20642,0.817871
-2.21405,0.817871
-2.21558,0.813293
-2.22168,0.814819
-2.22473,0.813293
-2.23083,0.816345
-2.23846,0.816345
-2.23999,0.813293
-2.24609,0.811768
-2.25067,0.814819
-2.25067,0.816345
-2.25677,0.816345
-2.2583,0.817871
-2.26288,0.811768
-2.2644,0.813293
-2.27203,0.816345
-2.27203,0.816345
-2.28119,0.814819
-2.28424,0.811768
-2.28729,0.814819
-2.29187,0.817871
-2.29797,0.817871
-2.30255,0.816345
-2.30713,0.810242
-2.31018,0.811768
-2.31628,0.816345
-2.31934,0.817871
-2.32544,0.814819
-2.33154,0.811768
-2.33459,0.814819
-2.3407,0.816345
-2.34528,0.814819
-2.35291,0.813293
-2.35443,0.811768
-2.36359,0.813293
-2.36206,0.816345
-2.36816,0.816345
-2.37274,0.814819
-2.37579,0.811768
-2.38495,0.813293
-2.388,0.817871
-2.39258,0.814819
-2.39563,0.814819
-2.39716,0.811768
-2.40479,0.814819
-2.40631,0.814819
-2.41089,0.817871
-2.40936,0.813293
-2.41089,0.814819
-2.40784,0.811768
-2.40784,0.814819
-2.40173,0.814819
-2.39716,0.814819
-2.388,0.811768
-2.38342,0.811768
-2.37427,0.814819
-2.36359,0.816345
-2.35748,0.816345
-2.3468,0.811768
-2.33154,0.811768
-2.31781,0.813293
-2.30103,0.813293
-2.29034,0.814819
-2.27356,0.811768
-2.25525,0.811768
-2.24609,0.811768
-2.22778,0.811768
-2.20947,0.814819
-2.19421,0.808716
-2.1759,0.813293
-2.16217,0.814819
-2.14539,0.813293
-2.13165,0.814819
-2.11639,0.811768
-2.10266,0.810242
-2.08893,0.810242
-2.07672,0.813293
-2.06299,0.811768
-2.04926,0.810242
-2.03857,0.811768
-2.02789,0.811768
-2.02179,0.813293
-2.01263,0.811768
-2.005,0.810242
-1.9989,0.810242
-1.98822,0.814819
-1.98364,0.810242
-1.98059,0.813293
-1.97906,0.80719
-1.97449,0.810242
-1.97144,0.813293
-1.96991,0.811768
-1.96991,0.813293
-1.96533,0.808716
-1.96533,0.810242
-1.96381,0.810242
-1.96228,0.813293
-1.96533,0.810242
-1.96533,0.80719
-1.96686,0.80719
-1.96533,0.811768
-1.96838,0.805664
-1.96991,0.811768
-1.97296,0.801086
-1.97144,0.810242
-1.97601,0.808716
-1.97754,0.810242
-1.98212,0.808716
-1.98212,0.808716
-1.98822,0.810242
-1.98822,0.810242
-1.99432,0.808716
-2.00043,0.810242
-2.00348,0.805664
-2.00806,0.80719
-2.01263,0.810242
-2.01569,0.810242
-2.02484,0.80719
-2.02942,0.805664
-2.02942,0.805664
-2.03705,0.808716
-2.0401,0.808716
-2.04163,0.80719
-2.04468,0.80719
-2.05078,0.808716
-2.05231,0.810242
-2.05383,0.810242
-2.05841,0.80719
-2.05994,0.80719
-2.05383,0.805664
-2.05841,0.810242
-2.05841,0.808716
-2.05994,0.80719
-2.06146,0.80719
-2.05841,0.805664
-2.05841,0.80719
-2.06146,0.808716
-2.06299,0.80719
-2.05994,0.804138
-2.06146,0.80719
-2.05994,0.810242
-2.05841,0.810242
-2.05841,0.808716
-2.05841,0.805664
-2.05383,0.805664
-2.05231,0.80719
-2.05383,0.808716
-2.05231,0.80719
-2.04926,0.801086
-2.04926,0.808716
-2.04926,0.808716
-2.04926,0.808716
-2.04773,0.804138
-2.04926,0.804138
-2.05078,0.805664
-2.05078,0.808716
-2.05231,0.808716
-2.05383,0.804138
-2.05383,0.801086
-2.05841,0.804138
-2.05994,0.805664
-2.06146,0.808716
-2.06604,0.805664
-2.06909,0.799561
-2.07214,0.805664
-2.0752,0.80719
-2.07825,0.810242
-2.0813,0.805664
-2.08893,0.801086
-2.09045,0.808716
-2.09503,0.80719
-2.10266,0.80719
-2.10419,0.805664
-2.11029,0.804138
-2.11487,0.805664
-2.12097,0.808716
-2.12555,0.80719
-2.1286,0.80719
-2.13318,0.805664
-2.14233,0.804138
-2.14386,0.80719
-2.15149,0.80719
-2.15454,0.805664
-2.16217,0.804138
-2.16522,0.805664
-2.1698,0.808716
-2.17438,0.80719
-2.18658,0.805664
-2.18964,0.80719
-2.19879,0.805664
-2.19879,0.805664
-2.20337,0.808716
-2.211,0.80719
-2.2171,0.805664
-2.22321,0.80719
-2.22778,0.80719
-2.23236,0.810242
-2.23846,0.805664
-2.24762,0.804138
-2.25067,0.805664
-2.25525,0.805664
-2.2583,0.808716
-2.2644,0.80719
-2.26746,0.80719
-2.26898,0.805664
-2.27509,0.80719
-2.27966,0.810242
-2.28577,0.805664
-2.28882,0.801086
-2.29187,0.805664
-2.29492,0.808716
-2.29492,0.813293
-2.30255,0.80719
-2.3056,0.80719
-2.31171,0.805664
-2.31323,0.810242
-2.31934,0.813293
-2.32239,0.808716
-2.32849,0.808716
-2.33002,0.810242
-2.33459,0.810242
-2.3407,0.814819
-2.34375,0.808716
-2.34833,0.808716
-2.35748,0.808716
-2.35596,0.811768
-2.36359,0.813293
-2.36664,0.80719
-2.37427,0.808716
-2.37732,0.811768
-2.38037,0.811768
-2.38647,0.814819
-2.39105,0.813293
-2.39563,0.813293
-2.39868,0.811768
-2.40631,0.814819
-2.40784,0.814819
-2.41089,0.814819
-2.41699,0.814819
-2.42157,0.813293
-2.4231,0.813293
-2.4292,0.814819
-2.43683,0.817871
-2.43835,0.814819
-2.44293,0.814819
-2.44598,0.817871
-2.45056,0.817871
-2.45361,0.819397
-2.45667,0.813293
-2.45819,0.816345
-2.45972,0.817871
-2.46429,0.816345
-2.46887,0.816345
-2.47345,0.816345
-2.4765,0.816345
-2.47955,0.819397
-2.4826,0.819397
-2.48718,0.820923
-2.49176,0.820923
-2.49176,0.817871
-2.49634,0.819397
-2.50092,0.820923
-2.50092,0.822449
-2.50854,0.819397
-2.5116,0.822449
-2.51617,0.8255
-2.52075,0.822449
-2.51923,0.823975
-2.52533,0.822449
-2.52838,0.8255
-2.53296,0.827026
-2.53448,0.827026
-2.53906,0.8255
-2.54211,0.8255
-2.54974,0.8255
-2.55127,0.822449
-2.55127,0.828552
-2.55432,0.8255
-2.55585,0.828552
-2.56195,0.828552
-2.55585,0.830078
-2.5589,0.828552
-2.55432,0.830078
-2.54669,0.827026
-2.54517,0.830078
-2.53906,0.830078
-2.53448,0.836182
-2.52228,0.830078
-2.5116,0.836182
-2.50397,0.83313
-2.48871,0.83313
-2.48108,0.836182
-2.46735,0.837708
-2.45514,0.83313
-2.43835,0.834656
-2.4292,0.836182
-2.41394,0.837708
-2.40021,0.840759
-2.39105,0.836182
-2.37732,0.837708
-2.36206,0.840759
-2.35138,0.840759
-2.33765,0.839233
-2.32544,0.836182
-2.31323,0.840759
-2.30713,0.840759
-2.29492,0.843811
-2.28577,0.840759
-2.27203,0.837708
-2.26746,0.843811
-2.25983,0.843811
-2.24915,0.842285
-2.24609,0.843811
-2.23846,0.840759
-2.23236,0.846863
-2.22626,0.848389
-2.22473,0.846863
-2.22015,0.843811
-2.21405,0.843811
-2.20795,0.846863
-2.2049,0.846863
-2.20184,0.849915
-2.20184,0.846863
-2.19879,0.848389
-2.19727,0.85144
-2.19269,0.85144
-2.19269,0.85144
-2.19421,0.852966
-2.19116,0.848389
-2.19269,0.852966
-2.18964,0.854492
-2.18964,0.854492
-2.18811,0.854492
-2.18658,0.849915
-2.18506,0.854492
-2.18353,0.857544
-2.18048,0.860596
-2.18048,0.856018
-2.18048,0.854492
-2.18048,0.854492
-2.17743,0.857544
-2.17896,0.862122
-2.18506,0.860596
-2.18658,0.860596
-2.18506,0.860596
-2.18658,0.863647
-2.18811,0.863647
-2.18964,0.862122
-2.18811,0.860596
-2.18964,0.865173
-2.19116,0.866699
-2.19269,0.866699
-2.19421,0.863647
-2.19116,0.865173
-2.19421,0.865173
-2.19421,0.866699
-2.19269,0.868225
-2.19421,0.866699
-2.18964,0.866699
-2.19421,0.869751
-2.19421,0.868225
-2.19116,0.869751
-2.19269,0.869751
-2.19269,0.868225
-2.19269,0.868225
-2.19421,0.871277
-2.19116,0.872803
-2.19269,0.871277
-2.19269,0.872803
-2.19116,0.871277
-2.18964,0.874329
-2.18964,0.87738
-2.18811,0.874329
-2.18658,0.872803
-2.18658,0.875854
-2.18506,0.875854
-2.17896,0.87738
-2.18353,0.875854
-2.17896,0.878906
-2.17743,0.87738
-2.1759,0.881958
-2.1759,0.878906
-2.1759,0.87738
-2.17743,0.875854
-2.17896,0.878906
-2.17896,0.880432
-2.18048,0.881958
-2.18048,0.880432
-2.18353,0.880432
-2.18506,0.881958
-2.18048,0.880432
-2.18506,0.88501
-2.18506,0.88501
-2.18811,0.880432
-2.18811,0.883484
-2.18964,0.880432
-2.18811,0.88501
-2.18964,0.88501
-2.19269,0.88501
-2.19421,0.886536
-2.19574,0.886536
-2.19727,0.889587
-2.19879,0.889587
-2.2049,0.883484
-2.20337,0.886536
-2.20795,0.891113
-2.20947,0.889587
-2.21405,0.889587
-2.2171,0.886536
-2.21863,0.886536
-2.22168,0.892639
-2.22473,0.892639
-2.22778,0.891113
-2.23389,0.889587
-2.23541,0.892639
-2.23846,0.894165
-2.24304,0.894165
-2.25067,0.895691
-2.25067,0.891113
-2.2522,0.892639
-2.2583,0.895691
-2.2583,0.895691
-2.26135,0.894165
-2.26746,0.892639
-2.26898,0.894165
-2.27356,0.900269
-2.27814,0.897217
-2.28424,0.895691
-2.28577,0.894165
-2.29034,0.895691
-2.2934,0.900269
-2.2995,0.898743
-2.30103,0.898743
-2.30408,0.897217
-2.31323,0.895691
-2.31628,0.900269
-2.31628,0.900269
-2.32086,0.897217
-2.32544,0.898743
-2.33002,0.895691
-2.33154,0.900269
-2.33612,0.901794
-2.33612,0.900269
-2.34375,0.897217
-2.34528,0.900269
-2.34528,0.900269
-2.34985,0.906372
-2.35291,0.90332
-2.35596,0.900269
-2.36053,0.901794
-2.36206,0.90332
-2.36206,0.906372
-2.36816,0.901794
-2.36969,0.90332
-2.37274,0.901794
-2.37732,0.906372
-2.37732,0.906372
-2.3819,0.906372
-2.38495,0.90332
-2.38647,0.904846
-2.38953,0.907898
-2.39258,0.906372
-2.39716,0.907898
-2.39868,0.904846
-2.40021,0.906372
-2.40173,0.91095
-2.40936,0.909424
-2.40784,0.906372
-2.41089,0.906372
-2.41699,0.906372
-2.41852,0.907898
-2.42157,0.912476
-2.42157,0.904846
-2.4231,0.906372
-2.43073,0.907898
-2.43073,0.909424
-2.43073,0.91095
-2.43835,0.91095
-2.43835,0.91095
-2.43988,0.907898
-2.44446,0.909424
-2.44751,0.91095
-2.44751,0.912476
-2.45056,0.909424
-2.45667,0.909424
-2.45972,0.912476
-2.45819,0.914001
-2.46124,0.91095
-2.46735,0.907898
-2.46735,0.914001
-2.4704,0.909424
-2.47345,0.912476
-2.47345,0.91095
-2.47803,0.91095
-2.47955,0.91095
-2.48413,0.912476
-2.48566,0.918579
-2.48718,0.912476
-2.49329,0.914001
-2.49329,0.912476
-2.49939,0.912476
-2.50397,0.915527
-2.50549,0.912476
-2.50702,0.91095
-2.51312,0.912476
-2.5177,0.915527
-2.51923,0.920105
-2.5238,0.914001
-2.52838,0.91095
-2.53448,0.914001
-2.53754,0.915527
-2.53906,0.918579
-2.54211,0.915527
-2.54364,0.915527
-2.55127,0.915527
-2.54974,0.918579
-2.5528,0.920105
-2.5589,0.920105
-2.56348,0.914001
-2.56653,0.918579
-2.56805,0.915527
-2.57416,0.921631
-2.57568,0.918579
-2.57874,0.920105
-2.58331,0.915527
-2.58484,0.921631
-2.58942,0.921631
-2.58942,0.918579
-2.59552,0.915527
-2.59552,0.918579
-2.60315,0.921631
-2.60162,0.921631
-2.60773,0.921631
-2.60773,0.920105
-2.61536,0.920105
-2.61536,0.918579
-2.61993,0.921631
-2.61993,0.921631
-2.62146,0.915527
-2.62909,0.920105
-2.62909,0.921631
-2.63062,0.921631
-2.63062,0.921631
-2.63519,0.923157
-2.63519,0.915527
-2.63062,0.921631
-2.63062,0.924683
-2.62909,0.918579
-2.62299,0.920105
-2.62146,0.918579
-2.6123,0.921631
-2.60468,0.921631
-2.59705,0.920105
-2.58789,0.915527
-2.57721,0.918579
-2.56653,0.920105
-2.55737,0.923157
-2.54364,0.923157
-2.53296,0.918579
-2.51923,0.920105
-2.50702,0.920105
-2.49176,0.923157
-2.48108,0.920105
-2.46429,0.920105
-2.45361,0.920105
-2.43835,0.920105
-2.42767,0.924683
-2.41699,0.921631
-2.40631,0.920105
-2.39105,0.921631
-2.3819,0.920105
-2.37274,0.924683
-2.35596,0.926208
-2.3468,0.921631
-2.34222,0.921631
-2.32697,0.924683
-2.31934,0.927734
-2.31018,0.927734
-2.30255,0.923157
-2.29187,0.921631
-2.28424,0.921631
-2.27966,0.924683
-2.27509,0.923157
-2.27051,0.918579
-2.26135,0.920105
-2.2583,0.923157
-2.25525,0.926208
-2.25067,0.921631
-2.24609,0.923157
-2.24152,0.920105
-2.23541,0.921631
-2.23541,0.924683
-2.23083,0.924683
-2.22778,0.920105
-2.22626,0.920105
-2.22473,0.921631
-2.22321,0.924683
-2.22015,0.920105
-2.22015,0.914001
-2.21863,0.920105
-2.2171,0.921631
-2.21405,0.926208
-2.2171,0.923157
-2.21405,0.921631
-2.21405,0.921631
-2.21405,0.923157
-2.20947,0.924683
-2.2049,0.923157
-2.20947,0.920105
-2.20795,0.921631
-2.20642,0.923157
-2.2049,0.926208
-2.20337,0.921631
-2.2049,0.923157
-2.20337,0.921631
-2.20184,0.926208
-2.20184,0.924683
-2.20184,0.926208
-2.20184,0.923157
-2.20337,0.923157
-2.20032,0.921631
-2.20032,0.923157
-2.19879,0.923157
-2.19727,0.923157
-2.19879,0.923157
-2.19574,0.923157
-2.19574,0.927734
-2.19269,0.923157
-2.19116,0.923157
-2.19116,0.920105
-2.19116,0.921631
-2.18964,0.924683
-2.19269,0.924683
-2.18811,0.926208
-2.19116,0.921631
-2.18658,0.923157
-2.17896,0.926208
-2.17743,0.926208
-2.18048,0.920105
-2.17896,0.921631
-2.1759,0.921631
-2.17438,0.927734
-2.1759,0.926208
-2.17285,0.918579
-2.1698,0.923157
-2.16675,0.918579
-2.16827,0.924683
-2.16522,0.921631
-2.16217,0.920105
-2.16064,0.923157
-2.16064,0.921631
-2.15912,0.924683
-2.16064,0.920105
-2.15759,0.920105
-2.15607,0.918579
-2.15454,0.921631
-2.15607,0.921631
-2.15302,0.923157
-2.15454,0.923157
-2.15454,0.918579
-2.15607,0.920105
-2.15149,0.924683
-2.15454,0.920105
-2.15302,0.921631
-2.15454,0.920105
-2.15302,0.921631
-2.15302,0.923157
-2.15454,0.923157
-2.15454,0.921631
-2.15759,0.918579
-2.15912,0.918579
-2.15759,0.920105
-2.15912,0.921631
-2.15912,0.921631
-2.16064,0.918579
-2.16217,0.923157
-2.1637,0.923157
-2.1637,0.920105
-2.16827,0.921631
-2.16827,0.918579
-2.1698,0.918579
-2.17285,0.921631
-2.1698,0.920105
-2.1698,0.918579
-2.17438,0.920105
-2.1759,0.918579
-2.1759,0.915527
-2.1759,0.915527
-2.17743,0.918579
-2.17743,0.918579
-2.18048,0.914001
-2.18353,0.923157
-2.18048,0.920105
-2.18353,0.915527
-2.18353,0.915527
-2.18658,0.915527
-2.18658,0.920105
-2.18658,0.914001
-2.18964,0.914001
-2.19116,0.914001
-2.19269,0.918579
-2.19269,0.915527
-2.19269,0.918579
-2.19421,0.915527
-2.19727,0.914001
-2.19421,0.914001
-2.19727,0.915527
-2.20032,0.915527
-2.20032,0.912476
-2.20032,0.912476
-2.20184,0.914001
-2.20337,0.918579
-2.2049,0.914001
-2.20642,0.91095
-2.20642,0.912476
-2.20795,0.912476
-2.20642,0.912476
-2.20947,0.912476
-2.21405,0.91095
-2.21405,0.91095
-2.22015,0.912476
-2.22015,0.914001
-2.22321,0.912476
-2.22321,0.909424
-2.22321,0.909424
-2.22626,0.909424
-2.23083,0.91095
-2.23083,0.909424
-2.23083,0.907898
-2.23389,0.909424
-2.23541,0.907898
-2.23694,0.912476
-2.23999,0.91095
-2.23999,0.906372
-2.23846,0.909424
-2.24304,0.909424
-2.24152,0.912476
-2.24762,0.909424
-2.25067,0.907898
-2.24609,0.907898
-2.24762,0.904846
-2.24915,0.906372
-2.25372,0.907898
-2.24915,0.904846
-2.2522,0.907898
-2.25525,0.907898
-2.25525,0.907898
-2.25677,0.909424
-2.25677,0.906372
-2.2583,0.906372
-2.25983,0.907898
-2.25983,0.907898
-2.26288,0.907898
-2.26288,0.904846
-2.26746,0.90332
-2.26593,0.906372
-2.26746,0.904846
-2.26898,0.907898
-2.27203,0.90332
-2.27051,0.900269
-2.27509,0.906372
-2.27509,0.904846
-2.27966,0.90332
-2.27966,0.90332
-2.28271,0.900269
-2.28577,0.901794
-2.28577,0.904846
-2.28882,0.901794
-2.29187,0.901794
-2.29492,0.900269
-2.2934,0.901794
-2.29492,0.906372
-2.29492,0.900269
-2.2995,0.901794
-2.29797,0.900269
-2.30103,0.901794
-2.30255,0.901794
-2.30255,0.901794
-2.30255,0.901794
-2.30255,0.900269
-2.30255,0.900269
-2.30713,0.90332
-2.30713,0.898743
-2.31171,0.897217
-2.31171,0.895691
-2.31323,0.900269
-2.31781,0.900269
-2.31781,0.897217
-2.32086,0.898743
-2.32391,0.895691
-2.32544,0.897217
-2.32697,0.898743
-2.33002,0.898743
-2.32849,0.895691
-2.33307,0.898743
-2.33307,0.898743
-2.33307,0.897217
-2.33765,0.897217
-2.33154,0.897217
-2.33765,0.895691
-2.3407,0.895691
-2.33612,0.895691
-2.3407,0.894165
-2.33612,0.894165
-2.33765,0.894165
-2.33612,0.895691
-2.33459,0.897217
-2.33002,0.894165
-2.32697,0.897217
-2.32391,0.886536
-2.31934,0.892639
-2.31171,0.897217
-2.30408,0.894165
-2.2934,0.891113
-2.28882,0.889587
-2.27509,0.892639
-2.26288,0.897217
-2.25067,0.894165
-2.24304,0.891113
-2.23083,0.889587
-2.21558,0.894165
-2.20337,0.894165
-2.19421,0.891113
-2.17743,0.889587
-2.16522,0.88501
-2.15149,0.889587
-2.13928,0.889587
-2.12708,0.889587
-2.11487,0.891113
-2.09808,0.883484
-2.08893,0.889587
-2.07672,0.891113
-2.06451,0.889587
-2.05383,0.88501
-2.04315,0.883484
-2.034,0.886536
-2.02637,0.889587
-2.01569,0.883484
-2.01111,0.88501
-2.00195,0.88501
-1.99585,0.883484
-1.98669,0.886536
-1.98364,0.88501
-1.97754,0.883484
-1.97296,0.881958
-1.96686,0.881958
-1.96228,0.889587
-1.95618,0.88501
-1.94855,0.881958
-1.9455,0.883484
-1.94244,0.881958
-1.93329,0.881958
-1.93329,0.883484
-1.92566,0.878906
-1.92261,0.881958
-1.92108,0.880432
-1.91803,0.88501
-1.91498,0.881958
-1.91193,0.883484
-1.91345,0.878906
-1.90735,0.878906
-1.90735,0.881958
-1.90277,0.881958
-1.90125,0.880432
-1.89819,0.881958
-1.90125,0.880432
-1.89972,0.883484
-1.89819,0.878906
-1.89362,0.880432
-1.89362,0.881958
-1.89362,0.880432
-1.88904,0.87738
-1.88904,0.87738
-1.89209,0.874329
-1.89056,0.878906
-1.88904,0.874329
-1.88751,0.878906
-1.88904,0.87738
-1.88904,0.875854
-1.89056,0.875854
-1.88904,0.878906
-1.88751,0.87738
-1.88599,0.875854
-1.88446,0.87738
-1.88446,0.87738
-1.88446,0.875854
-1.88446,0.87738
-1.88293,0.875854
-1.88293,0.874329
-1.88141,0.874329
-1.87836,0.874329
-1.87531,0.874329
-1.87225,0.875854
-1.87073,0.875854
-1.8692,0.874329
-1.86462,0.875854
-1.86157,0.878906
-1.86005,0.874329
-1.85394,0.872803
-1.85394,0.872803
-1.84937,0.874329
-1.84937,0.874329
-1.84479,0.874329
-1.84479,0.872803
-1.84021,0.872803
-1.83868,0.872803
-1.83563,0.872803
-1.83105,0.874329
-1.828,0.869751
-1.82648,0.871277
-1.82343,0.871277
-1.82343,0.869751
-1.8219,0.872803
-1.82037,0.871277
-1.81885,0.869751
-1.81732,0.869751
-1.8158,0.872803
-1.81732,0.871277
-1.81732,0.868225
-1.81732,0.869751
-1.8158,0.872803
-1.81732,0.869751
-1.8158,0.868225
-1.8158,0.868225
-1.8158,0.868225
-1.81427,0.871277
-1.81427,0.868225
-1.81885,0.872803
-1.82037,0.865173
-1.8219,0.866699
-1.8219,0.869751
-1.8219,0.872803
-1.8219,0.866699
-1.828,0.865173
-1.82648,0.866699
-1.828,0.866699
-1.82953,0.868225
-1.83258,0.866699
-1.83868,0.868225
-1.83868,0.862122
-1.84174,0.868225
-1.84479,0.871277
-1.84479,0.868225
-1.84784,0.866699
-1.84784,0.863647
-1.85242,0.866699
-1.85394,0.866699
-1.85547,0.866699
-1.85852,0.865173
-1.86005,0.865173
-1.8631,0.863647
-1.8631,0.865173
-1.86462,0.865173
-1.86768,0.863647
-1.86768,0.860596
-1.86768,0.860596
-1.87073,0.865173
-1.87225,0.865173
-1.87683,0.857544
-1.87531,0.863647
-1.87531,0.862122
-1.87836,0.865173
-1.87988,0.863647
-1.88141,0.860596
-1.88599,0.856018
-1.88446,0.862122
-1.88599,0.862122
-1.88751,0.862122
-1.88904,0.860596
-1.89209,0.857544
-1.89362,0.860596
-1.89362,0.862122
-1.89362,0.860596
-1.89972,0.857544
-1.89819,0.856018
-1.90125,0.862122
-1.89972,0.863647
-1.9043,0.862122
-1.90582,0.857544
-1.90735,0.854492
-1.91345,0.857544
-1.9104,0.857544
-1.9104,0.860596
-1.91803,0.857544
-1.91498,0.856018
-1.91803,0.857544
-1.92108,0.860596
-1.92413,0.857544
-1.92413,0.856018
-1.92719,0.852966
-1.92719,0.856018
-1.93024,0.862122
-1.93481,0.860596
-1.93481,0.856018
-1.93481,0.854492
-1.93787,0.856018
-1.93787,0.857544
-1.94092,0.860596
-1.94397,0.854492
-1.94397,0.854492
-1.94702,0.856018
-1.94702,0.857544
-1.95313,0.856018
-1.95007,0.852966
-1.95618,0.85144
-1.95465,0.856018
-1.96381,0.860596
-1.96228,0.857544
-1.95923,0.856018
-1.96686,0.852966
-1.97144,0.856018
-1.97296,0.857544
-1.97144,0.854492
-1.97449,0.856018
-1.97449,0.85144
-1.98059,0.854492
-1.97906,0.854492
-1.98364,0.85144
-1.98669,0.854492
-1.98517,0.85144
-1.98822,0.854492
-1.98975,0.856018
-1.98975,0.856018
-1.99585,0.852966
-1.99585,0.849915
-2.00043,0.849915
-2.00195,0.852966
-2.00348,0.852966
-2.00806,0.854492
-2.00653,0.852966
-2.01263,0.85144
-2.01416,0.852966
-2.01721,0.852966
-2.01874,0.852966
-2.02484,0.849915
-2.02637,0.852966
-2.02789,0.856018
-2.03094,0.854492
-2.03094,0.852966
-2.03552,0.849915
-2.03857,0.854492
-2.04315,0.852966
-2.04315,0.854492
-2.05078,0.85144
-2.05078,0.85144
-2.05231,0.85144
-2.05994,0.854492
-2.05841,0.852966
-2.06604,0.85144
-2.06757,0.849915
-2.07062,0.852966
-2.07367,0.85144
-2.0752,0.852966
-2.07977,0.85144
-2.08282,0.849915
-2.08588,0.852966
-2.08435,0.854492
-2.08893,0.852966
-2.08893,0.852966
-2.08435,0.849915
-2.08282,0.849915
-2.07825,0.854492
-2.07825,0.852966
-2.07367,0.852966
-2.06604,0.849915
-2.05994,0.852966
-2.04773,0.849915
-2.03857,0.856018
-2.02942,0.849915
-2.01569,0.848389
-2.00348,0.85144
-1.98822,0.85144
-1.97754,0.849915
-1.96381,0.849915
-1.95007,0.848389
-1.93481,0.849915
-1.9165,0.854492
-1.90125,0.852966
-1.88751,0.85144
-1.86768,0.849915
-1.85089,0.85144
-1.83258,0.85144
-1.82037,0.85144
-1.80359,0.85144
-1.78528,0.849915
-1.76849,0.852966
-1.75171,0.85144
-1.73798,0.852966
-1.72424,0.849915
-1.71051,0.848389
-1.69525,0.848389
-1.68457,0.852966
-1.67084,0.85144
-1.65863,0.85144
-1.64948,0.85144
-1.63727,0.849915
-1.62659,0.854492
-1.61438,0.856018
-1.6098,0.849915
-1.60065,0.849915
-1.59302,0.852966
-1.58691,0.849915
-1.58234,0.852966
-1.57471,0.852966
-1.56555,0.848389
-1.55487,0.849915
-1.55182,0.85144
-1.54419,0.85144
-1.54266,0.854492
-1.53656,0.852966
-1.53198,0.854492
-1.52893,0.852966
-1.52435,0.85144
-1.5213,0.849915
-1.51672,0.85144
-1.51367,0.854492
-1.50757,0.854492
-1.50452,0.856018
-1.50146,0.852966
-1.50299,0.85144
-1.49994,0.854492
-1.49536,0.856018
-1.49536,0.852966
-1.49231,0.857544
-1.48926,0.852966
-1.48468,0.852966
-1.48468,0.852966
-1.4801,0.857544
-1.47858,0.854492
-1.47705,0.85144
-1.47858,0.854492
-1.47705,0.852966
-1.474,0.856018
-1.47247,0.854492
-1.47095,0.852966
-1.4679,0.856018
-1.4679,0.857544
-1.46637,0.856018
-1.46484,0.854492
-1.46484,0.856018
-1.46637,0.852966
-1.46179,0.860596
-1.46179,0.854492
-1.46179,0.856018
-1.45874,0.854492
-1.46332,0.852966
-1.46027,0.854492
-1.46179,0.856018
-1.46027,0.856018
-1.45721,0.852966
-1.45569,0.856018
-1.45569,0.854492
-1.45264,0.856018
-1.44958,0.854492
-1.45264,0.856018
-1.44196,0.854492
-1.44653,0.857544
-1.44196,0.860596
-1.44196,0.860596
-1.44501,0.857544
-1.4389,0.856018
-1.4389,0.862122
-1.43738,0.856018
-1.43127,0.860596
-1.43585,0.860596
-1.43433,0.856018
-1.43127,0.860596
-1.42975,0.862122
-1.42975,0.862122
-1.43127,0.852966
-1.4267,0.854492
-1.4267,0.860596
-1.42517,0.857544
-1.42517,0.860596
-1.4267,0.857544
-1.42059,0.857544
-1.42212,0.860596
-1.42212,0.863647
-1.42517,0.857544
-1.42517,0.860596
-1.42517,0.857544
-1.4267,0.862122
-1.42975,0.862122
-1.4267,0.860596
-1.43127,0.862122
-1.42822,0.857544
-1.43433,0.865173
-1.43433,0.862122
-1.43585,0.862122
-1.43738,0.857544
-1.4389,0.857544
-1.44196,0.862122
-1.44348,0.863647
-1.44653,0.863647
-1.44958,0.863647
-1.45111,0.860596
-1.45264,0.862122
-1.46027,0.862122
-1.46332,0.865173
-1.46484,0.862122
-1.46942,0.857544
-1.47095,0.863647
-1.47858,0.866699
-1.48163,0.865173
-1.48926,0.865173
-1.49231,0.863647
-1.49536,0.865173
-1.49536,0.869751
-1.49689,0.865173
-1.50757,0.862122
-1.50757,0.860596
-1.51215,0.865173
-1.51978,0.863647
-1.52283,0.865173
-1.52435,0.865173
-1.5274,0.863647
-1.53046,0.866699
-1.53809,0.868225
-1.54114,0.865173
-1.54266,0.865173
-1.55182,0.862122
-1.55182,0.868225
-1.55182,0.869751
-1.55792,0.868225
-1.56097,0.860596
-1.56555,0.862122
-1.56708,0.863647
-1.57471,0.866699
-1.57623,0.868225
-1.58234,0.863647
-1.58691,0.865173
-1.58997,0.869751
-1.59454,0.868225
-1.59912,0.866699
-1.6037,0.863647
-1.60675,0.866699
-1.60828,0.869751
-1.61591,0.871277
-1.62048,0.871277
-1.62048,0.866699
-1.62659,0.865173
-1.62964,0.868225
-1.63422,0.869751
-1.63574,0.869751
-1.64032,0.868225
-1.64337,0.868225
-1.64795,0.866699
-1.64948,0.871277
-1.65253,0.871277
-1.6571,0.866699
-1.66168,0.868225
-1.66321,0.872803
-1.66473,0.871277
-1.67084,0.869751
-1.67389,0.868225
-1.67847,0.869751
-1.68152,0.871277
-1.6861,0.871277
-1.68915,0.871277
-1.68915,0.866699
-1.6922,0.868225
-1.6983,0.871277
-1.70288,0.874329
-1.70441,0.869751
-1.71051,0.869751
-1.71509,0.871277
-1.71967,0.871277
-1.71967,0.871277
-1.72577,0.871277
-1.73035,0.869751
-1.73645,0.872803
-1.74408,0.872803
-1.74713,0.871277
-1.75171,0.872803
-1.75476,0.866699
-1.75629,0.869751
-1.76239,0.872803
-1.76392,0.871277
-1.76849,0.872803
-1.77155,0.869751
-1.77765,0.872803
-1.7807,0.872803
-1.78375,0.872803
-1.7868,0.874329
-1.79443,0.871277
-1.79749,0.871277
-1.80511,0.872803
-1.80969,0.872803
-1.81274,0.875854
-1.82037,0.871277
-1.82343,0.871277
-1.82953,0.872803
-1.83563,0.874329
-1.84021,0.874329
-1.84021,0.871277
-1.84479,0.872803
-1.85089,0.871277
-1.85242,0.872803
-1.86157,0.871277
-1.86005,0.869751
-1.86768,0.872803
-1.87073,0.872803
-1.87836,0.872803
-1.88141,0.871277
-1.88599,0.872803
-1.89056,0.871277
-1.89362,0.875854
-1.89972,0.874329
-1.90582,0.874329
-1.9104,0.869751
-1.91498,0.871277
-1.91956,0.874329
-1.92566,0.871277
-1.93024,0.872803
-1.93634,0.872803
-1.93939,0.871277
-1.94244,0.875854
-1.94855,0.875854
-1.95313,0.875854
-1.95618,0.874329
-1.96228,0.872803
-1.96381,0.874329
-1.97144,0.874329
-1.97296,0.874329
-1.98212,0.872803
-1.98212,0.872803
-1.98517,0.87738
-1.98669,0.874329
-1.98822,0.871277
-1.98517,0.874329
-1.98517,0.874329
-1.98212,0.874329
-1.97906,0.874329
-1.97296,0.869751
-1.96686,0.874329
-1.9577,0.872803
-1.94702,0.87738
-1.93787,0.87738
-1.92566,0.874329
-1.91498,0.871277
-1.89972,0.874329
-1.88446,0.874329
-1.87073,0.875854
-1.85699,0.875854
-1.84021,0.871277
-1.82037,0.874329
-1.80817,0.874329
-1.78986,0.872803
-1.77307,0.872803
-1.75476,0.872803
-1.73645,0.869751
-1.72272,0.875854
-1.70288,0.872803
-1.68915,0.872803
-1.66931,0.871277
-1.65405,0.872803
-1.64032,0.874329
-1.62506,0.874329
-1.61133,0.872803
-1.59454,0.869751
-1.58234,0.874329
-1.5686,0.874329
-1.55487,0.871277
-1.54114,0.874329
-1.53198,0.872803
-1.52588,0.871277
-1.5152,0.872803
-1.50146,0.875854
-1.49689,0.872803
-1.48926,0.872803
-1.48315,0.872803
-1.47552,0.872803
-1.47095,0.875854
-1.46332,0.874329
-1.45874,0.871277
-1.44958,0.871277
-1.44501,0.875854
-1.4389,0.874329
-1.4389,0.872803
-1.43585,0.871277
-1.43127,0.869751
-1.42517,0.874329
-1.42212,0.875854
-1.41602,0.872803
-1.41602,0.872803
-1.41296,0.872803
-1.40991,0.875854
-1.40533,0.874329
-1.40228,0.871277
-1.39923,0.872803
-1.39923,0.872803
-1.39923,0.874329
-1.39771,0.871277
-1.39313,0.872803
-1.39618,0.871277
-1.39618,0.872803
-1.39008,0.875854
-1.39008,0.872803
-1.39313,0.872803
-1.39465,0.869751
-1.39313,0.871277
-1.39313,0.872803
-1.39618,0.874329
-1.39465,0.872803
-1.39465,0.869751
-1.39465,0.871277
-1.39465,0.872803
-1.39771,0.874329
-1.39618,0.871277
-1.39923,0.869751
-1.39618,0.872803
-1.40076,0.875854
-1.39771,0.875854
-1.39923,0.869751
-1.40076,0.872803
-1.39923,0.871277
-1.39923,0.875854
-1.39771,0.875854
-1.39771,0.874329
-1.39771,0.869751
-1.40076,0.871277
-1.39465,0.875854
-1.39618,0.872803
-1.39618,0.869751
-1.39313,0.871277
-1.38855,0.866699
-1.39008,0.872803
-1.39008,0.872803
-1.38855,0.869751
-1.38702,0.869751
-1.38855,0.866699
-1.38855,0.872803
-1.38702,0.871277
-1.3855,0.869751
-1.3855,0.869751
-1.3855,0.869751
-1.38397,0.871277
-1.37939,0.872803
-1.37939,0.869751
-1.38245,0.869751
-1.38245,0.868225
-1.38245,0.872803
-1.38397,0.869751
-1.38397,0.871277
-1.3855,0.868225
-1.38702,0.869751
-1.3855,0.869751
-1.38855,0.868225
-1.39008,0.868225
-1.39008,0.868225
-1.39771,0.866699
-1.39465,0.866699
-1.39923,0.871277
-1.39923,0.866699
-1.40076,0.865173
-1.40533,0.868225
-1.40991,0.871277
-1.41144,0.866699
-1.41754,0.869751
-1.42212,0.868225
-1.42822,0.868225
-1.4328,0.869751
-1.43585,0.868225
-1.4389,0.866699
-1.44501,0.865173
-1.44653,0.869751
-1.45264,0.866699
-1.45721,0.865173
-1.46179,0.868225
-1.46484,0.865173
-1.47095,0.868225
-1.474,0.869751
-1.47858,0.868225
-1.48163,0.866699
-1.49231,0.865173
-1.49384,0.866699
-1.49994,0.869751
-1.50757,0.868225
-1.51215,0.865173
-1.51978,0.866699
-1.52283,0.862122
-1.53046,0.868225
-1.53351,0.868225
-1.54114,0.865173
-1.54419,0.863647
-1.55182,0.865173
-1.55487,0.866699
-1.5625,0.863647
-1.56708,0.863647
-1.57013,0.866699
-1.57318,0.863647
-1.57928,0.865173
-1.58234,0.865173
-1.58844,0.865173
-1.59454,0.862122
-1.59607,0.862122
-1.59912,0.865173
-1.60522,0.866699
-1.6098,0.863647
-1.61591,0.860596
-1.62354,0.862122
-1.62506,0.862122
-1.62964,0.863647
-1.63727,0.862122
-1.64185,0.862122
-1.64795,0.865173
-1.65253,0.866699
-1.6571,0.866699
-1.66016,0.862122
-1.66626,0.863647
-1.66931,0.863647
-1.67847,0.865173
-1.67999,0.865173
-1.68457,0.862122
-1.6922,0.857544
-1.69525,0.863647
-1.69983,0.862122
-1.70441,0.863647
-1.71051,0.860596
-1.71356,0.860596
-1.72119,0.863647
-1.72577,0.860596
-1.72882,0.863647
-1.73492,0.857544
-1.74103,0.860596
-1.74408,0.863647
-1.75018,0.863647
-1.75323,0.866699
-1.75934,0.862122
-1.76544,0.856018
-1.76849,0.860596
-1.7746,0.862122
-1.77917,0.862122
-1.78223,0.862122
-1.78833,0.860596
-1.79291,0.857544
-1.79596,0.860596
-1.80054,0.863647
-1.80664,0.857544
-1.81274,0.857544
-1.81732,0.857544
-1.82037,0.860596
-1.82343,0.860596
-1.828,0.857544
-1.83563,0.856018
-1.84174,0.857544
-1.84174,0.857544
-1.85089,0.857544
-1.85394,0.857544
-1.86005,0.856018
-1.86462,0.854492
-1.87073,0.856018
-1.87531,0.860596
-1.88293,0.857544
-1.88904,0.854492
-1.89362,0.857544
-1.89819,0.860596
-1.90277,0.862122
-1.90582,0.856018
-1.91193,0.854492
-1.91803,0.854492
-1.91956,0.856018
-1.92719,0.862122
-1.93329,0.857544
-1.93481,0.854492
-1.94092,0.857544
-1.9455,0.854492
-1.94855,0.856018
-1.95465,0.856018
-1.95618,0.857544
-1.96228,0.856018
-1.96381,0.852966
-1.96686,0.854492
-1.96991,0.856018
-1.96686,0.854492
-1.96381,0.854492
-1.96381,0.852966
-1.95923,0.857544
-1.95465,0.856018
-1.95007,0.852966
-1.9455,0.852966
-1.93787,0.852966
-1.92413,0.854492
-1.92108,0.852966
-1.90735,0.854492
-1.89972,0.852966
-1.87988,0.85144
-1.8692,0.854492
-1.85699,0.854492
-1.84021,0.856018
-1.82648,0.856018
-1.81122,0.854492
-1.79291,0.852966
-1.77917,0.854492
-1.76086,0.852966
-1.74561,0.852966
-1.72729,0.857544
-1.71051,0.849915
-1.69525,0.852966
-1.67694,0.852966
-1.66168,0.85144
-1.64795,0.849915
-1.63116,0.854492
-1.61896,0.85144
-1.6037,0.848389
-1.59302,0.849915
-1.57623,0.852966
-1.56708,0.854492
-1.55334,0.852966
-1.54419,0.848389
-1.53351,0.85144
-1.52283,0.849915
-1.51367,0.85144
-1.50604,0.85144
-1.50146,0.848389
-1.49536,0.849915
-1.48468,0.85144
-1.48315,0.852966
-1.47705,0.849915
-1.47552,0.846863
-1.47095,0.848389
-1.46637,0.848389
-1.46484,0.854492
-1.46027,0.85144
-1.46179,0.849915
-1.45874,0.848389
-1.45569,0.849915
-1.44958,0.854492
-1.44806,0.849915
-1.44806,0.848389
-1.44653,0.846863
-1.44806,0.846863
-1.44806,0.849915
-1.44348,0.848389
-1.44348,0.848389
-1.44348,0.845337
-1.44653,0.849915
-1.44501,0.849915
-1.44501,0.848389
-1.44806,0.846863
-1.45111,0.846863
-1.44958,0.845337
-1.45111,0.849915
-1.45264,0.846863
-1.45721,0.843811
-1.46027,0.843811
-1.46179,0.848389
-1.46332,0.849915
-1.47095,0.846863
-1.47095,0.846863
-1.47095,0.846863
-1.47552,0.845337
-1.474,0.85144
-1.4801,0.843811
-1.48163,0.843811
-1.48315,0.843811
-1.48315,0.845337
-1.48773,0.849915
-1.48926,0.848389
-1.49231,0.843811
-1.49384,0.842285
-1.49384,0.849915
-1.49536,0.845337
-1.49841,0.845337
-1.49994,0.843811
-1.50146,0.843811
-1.50604,0.842285
-1.50757,0.846863
-1.50909,0.843811
-1.50909,0.842285
-1.51215,0.843811
-1.51367,0.842285
-1.51215,0.845337
-1.51367,0.846863
-1.51367,0.842285
-1.51367,0.842285
-1.51215,0.843811
-1.51672,0.845337
-1.5152,0.843811
-1.51367,0.843811
-1.5152,0.839233
-1.51672,0.840759
-1.5213,0.843811
-1.5152,0.842285
-1.51978,0.839233
-1.5213,0.842285
-1.51978,0.842285
-1.52588,0.840759
-1.52435,0.843811
-1.52435,0.842285
-1.53198,0.842285
-1.53198,0.840759
-1.53503,0.843811
-1.53809,0.842285
-1.53961,0.839233
-1.54266,0.842285
-1.54419,0.840759
-1.54419,0.840759
-1.55182,0.840759
-1.55792,0.839233
-1.55945,0.840759
-1.5625,0.842285
-1.56555,0.843811
-1.5686,0.839233
-1.57318,0.839233
-1.57471,0.840759
-1.58234,0.840759
-1.58386,0.845337
-1.58997,0.840759
-1.59302,0.837708
-1.60065,0.837708
-1.60522,0.839233
-1.6098,0.842285
-1.61591,0.840759
-1.62201,0.837708
-1.62354,0.839233
-1.63116,0.842285
-1.63422,0.840759
-1.64032,0.837708
-1.64948,0.837708
-1.65405,0.839233
-1.66168,0.840759
-1.66321,0.842285
-1.66931,0.839233
-1.67694,0.836182
-1.68152,0.837708
-1.6861,0.839233
-1.68762,0.842285
-1.69525,0.839233
-1.70288,0.837708
-1.70593,0.834656
-1.71356,0.840759
-1.71814,0.836182
-1.72119,0.839233
-1.72729,0.836182
-1.73035,0.837708
-1.73645,0.836182
-1.74255,0.840759
-1.75018,0.837708
-1.75323,0.837708
-1.75781,0.834656
-1.76239,0.834656
-1.76849,0.837708
-1.77612,0.837708
-1.78375,0.837708
-1.78528,0.83313
-1.79291,0.836182
-1.79596,0.837708
-1.80359,0.836182
-1.80969,0.834656
-1.8158,0.834656
-1.81885,0.83313
-1.82343,0.836182
-1.83258,0.834656
-1.83563,0.83313
-1.84174,0.83313
-1.85089,0.834656
-1.85089,0.837708
-1.85547,0.837708
-1.85852,0.83313
-1.8631,0.834656
-1.8692,0.834656
-1.87073,0.836182
-1.87988,0.837708
-1.88446,0.83313
-1.88904,0.830078
-1.89209,0.83313
-1.89972,0.836182
-1.90582,0.83313
-1.90735,0.83313
-1.9165,0.830078
-1.91803,0.83313
-1.92261,0.836182
-1.92719,0.836182
-1.93329,0.830078
-1.94092,0.83313
-1.94397,0.834656
-1.9455,0.834656
-1.95007,0.836182
-1.95618,0.830078
-1.96228,0.830078
-1.96381,0.836182
-1.96991,0.839233
-1.97144,0.83313
-1.97906,0.828552
-1.98059,0.827026
-1.98669,0.827026
-1.98669,0.834656
-1.99432,0.837708
-1.99738,0.828552
-2.00195,0.828552
-2.00653,0.830078
-2.01111,0.834656
-2.01721,0.83313
-2.02179,0.830078
-2.02484,0.8255
-2.03094,0.83313
-2.034,0.83313
-2.03857,0.828552
-2.04468,0.83313
-2.0462,0.8255
-2.05078,0.828552
-2.05994,0.830078
-2.06146,0.834656
-2.06757,0.83313
-2.06909,0.827026
-2.07367,0.830078
-2.07825,0.830078
-2.08435,0.834656
-2.09045,0.827026
-2.09503,0.823975
-2.09656,0.830078
-2.10571,0.83313
-2.11029,0.83313
-2.11639,0.827026
-2.12097,0.827026
-2.12402,0.830078
-2.12708,0.83313
-2.13623,0.83313
-2.13623,0.83313
-2.14539,0.8255
-2.14691,0.830078
-2.15302,0.830078
-2.15607,0.830078
-2.1637,0.827026
-2.15759,0.830078
-2.1637,0.827026
-2.1637,0.830078
-2.16217,0.828552
-2.15912,0.828552
-2.15759,0.8255
-2.15149,0.8255
-2.14233,0.827026
-2.13623,0.828552
-2.1286,0.830078
-2.11945,0.827026
-2.10419,0.828552
-2.09656,0.827026
-2.0813,0.827026
-2.06909,0.827026
-2.05231,0.827026
-2.04163,0.8255
-2.02484,0.828552
-2.00958,0.827026
-1.9928,0.8255
-1.97296,0.8255
-1.95618,0.827026
-1.94244,0.83313
-1.92261,0.827026
-1.90735,0.8255
-1.89056,0.822449
-1.87531,0.823975
-1.85547,0.828552
-1.84174,0.8255
-1.82495,0.8255
-1.81122,0.823975
-1.79596,0.823975
-1.78375,0.828552
-1.77155,0.8255
-1.75629,0.823975
-1.74713,0.8255
-1.73492,0.827026
-1.72272,0.8255
-1.71509,0.827026
-1.70441,0.8255
-1.6983,0.822449
-1.68915,0.822449
-1.68152,0.827026
-1.67084,0.828552
-1.66779,0.823975
-1.66168,0.823975
-1.65405,0.822449
-1.651,0.827026
-1.64337,0.823975
-1.64185,0.823975
-1.63879,0.8255
-1.63574,0.820923
-1.63422,0.8255
-1.63269,0.8255
-1.62811,0.822449
-1.62811,0.822449
-1.62659,0.823975
-1.62506,0.828552
-1.62659,0.8255
-1.62354,0.820923
-1.62048,0.822449
-1.62659,0.8255
-1.62659,0.823975
-1.62506,0.8255
-1.62659,0.819397
-1.62659,0.820923
-1.62659,0.823975
-1.62964,0.822449
-1.62964,0.8255
-1.63269,0.822449
-1.63574,0.820923
-1.63574,0.822449
-1.63727,0.827026
-1.64032,0.822449
-1.64185,0.822449
-1.64795,0.823975
-1.64795,0.823975
-1.64948,0.8255
-1.65253,0.823975
-1.65405,0.820923
-1.65863,0.822449
-1.66016,0.820923
-1.65863,0.827026
-1.66473,0.8255
-1.66473,0.822449
-1.66473,0.822449
-1.66931,0.817871
-1.67084,0.823975
-1.67084,0.823975
-1.67389,0.820923
-1.67084,0.822449
-1.67389,0.822449
-1.67847,0.823975
-1.67847,0.822449
-1.67694,0.820923
-1.67847,0.822449
-1.67847,0.820923
-1.67694,0.820923
-1.67694,0.822449
-1.67694,0.820923
-1.67389,0.819397
-1.67236,0.822449
-1.67694,0.822449
-1.67084,0.822449
-1.67084,0.819397
-1.66931,0.819397
-1.66321,0.822449
-1.66626,0.822449
-1.66321,0.823975
-1.66626,0.816345
-1.66473,0.819397
-1.66473,0.820923
-1.66321,0.823975
-1.66321,0.820923
-1.66321,0.816345
-1.66473,0.817871
-1.66473,0.822449
-1.66321,0.822449
-1.66473,0.819397
-1.66931,0.817871
-1.66931,0.819397
-1.66931,0.823975
-1.67389,0.820923
-1.67847,0.820923
-1.68152,0.814819
-1.6861,0.816345
-1.68915,0.819397
-1.69067,0.819397
-1.6983,0.819397
-1.6983,0.817871
-1.70441,0.814819
-1.71051,0.819397
-1.71356,0.819397
-1.71661,0.820923
-1.72272,0.817871
-1.72577,0.816345
-1.73035,0.817871
-1.7334,0.820923
-1.74103,0.822449
-1.74561,0.817871
-1.74713,0.817871
-1.75476,0.820923
-1.75781,0.820923
-1.76392,0.822449
-1.76849,0.817871
-1.77307,0.814819
-1.77765,0.819397
-1.7868,0.817871
-1.7868,0.820923
-1.79291,0.817871
-1.79901,0.814819
-1.80054,0.817871
-1.80969,0.819397
-1.81274,0.819397
-1.81885,0.819397
-1.82648,0.816345
-1.83258,0.819397
-1.83563,0.822449
-1.84174,0.819397
-1.84631,0.816345
-1.85242,0.817871
-1.85699,0.820923
-1.86462,0.822449
-1.87073,0.819397
-1.87531,0.816345
-1.87988,0.810242
-1.88599,0.819397
-1.88904,0.819397
-1.89209,0.817871
-1.89972,0.816345
-1.90277,0.814819
-1.90735,0.816345
-1.91498,0.819397
-1.9165,0.814819
-1.92261,0.816345
-1.93176,0.813293
-1.93481,0.816345
-1.93787,0.822449
-1.94397,0.819397
-1.95007,0.817871
-1.95465,0.813293
-1.9577,0.816345
-1.96381,0.817871
-1.96838,0.819397
-1.97601,0.816345
-1.97906,0.814819
-1.98212,0.814819
-1.98822,0.816345
-1.98669,0.817871
-1.99738,0.816345
-1.9989,0.816345
-2.00348,0.816345
-2.005,0.819397
-2.00958,0.816345
-2.01111,0.813293
-2.01569,0.813293
-2.02026,0.816345
-2.01874,0.817871
-2.02637,0.816345
-2.034,0.814819
-2.03857,0.814819
-2.04163,0.817871
-2.04926,0.811768
-2.04926,0.816345
-2.05688,0.816345
-2.06451,0.816345
-2.06451,0.814819
-2.07062,0.817871
-2.07214,0.816345
-2.07367,0.816345
-2.07825,0.819397
-2.08435,0.816345
-2.09045,0.816345
-2.09045,0.816345
-2.09656,0.814819
-2.10114,0.814819
-2.10266,0.813293
-2.10724,0.817871
-2.10876,0.814819
-2.11487,0.814819
-2.12097,0.814819
-2.12402,0.814819
-2.12555,0.816345
-2.1347,0.814819
-2.13623,0.811768
-2.14081,0.814819
-2.14691,0.813293
-2.14691,0.814819
-2.15759,0.816345
-2.16064,0.810242
-2.16522,0.813293
-2.16827,0.814819
-2.17133,0.814819
-2.1759,0.816345
-2.18353,0.817871
-2.18353,0.816345
-2.19116,0.813293
-2.19574,0.811768
-2.20032,0.813293
-2.20184,0.814819
-2.20642,0.811768
-2.211,0.811768
-2.211,0.816345
-2.2171,0.814819
-2.22015,0.810242
-2.22473,0.811768
-2.22778,0.814819
-2.23389,0.813293
-2.23541,0.814819
-2.23694,0.813293
-2.24609,0.810242
-2.24609,0.811768
-2.2522,0.813293
-2.25372,0.813293
-2.25525,0.813293
-2.25525,0.811768
-2.25525,0.813293
-2.25525,0.814819
-2.25372,0.813293
-2.24762,0.811768
-2.24304,0.810242
-2.23846,0.816345
-2.22778,0.814819
-2.21863,0.811768
-2.211,0.808716
-2.19879,0.808716
-2.18811,0.817871
-2.17133,0.817871
-2.15912,0.811768
-2.14386,0.810242
-2.1286,0.811768
-2.11029,0.813293
-2.09503,0.813293
-2.07367,0.814819
-2.05841,0.811768
-2.03552,0.810242
-2.01569,0.808716
-1.99432,0.811768
-1.97601,0.811768
-1.95313,0.810242
-1.93481,0.808716
-1.91498,0.810242
-1.89362,0.811768
-1.87683,0.813293
-1.86005,0.813293
-1.84021,0.811768
-1.82343,0.810242
-1.80969,0.813293
-1.78986,0.813293
-1.7746,0.811768
-1.75934,0.811768
-1.74561,0.811768
-1.73492,0.808716
-1.72272,0.811768
-1.71814,0.811768
-1.70593,0.808716
-1.69525,0.810242
-1.68915,0.811768
-1.68152,0.808716
-1.67999,0.808716
-1.67389,0.80719
-1.66779,0.811768
-1.66473,0.811768
-1.66321,0.810242
-1.66016,0.810242
-1.65558,0.808716
-1.65405,0.810242
-1.65253,0.811768
-1.651,0.808716
-1.651,0.810242
-1.64642,0.811768
-1.64642,0.808716
-1.64795,0.814819
-1.64642,0.810242
-1.64795,0.805664
-1.64642,0.80719
-1.651,0.810242
-1.64948,0.811768
-1.65405,0.811768
-1.65863,0.80719
-1.65558,0.808716
-1.65863,0.808716
-1.65863,0.811768
-1.66168,0.808716
-1.66626,0.808716
-1.66626,0.80719
-1.66626,0.808716
-1.66931,0.808716
-1.67389,0.810242
-1.67389,0.811768
-1.67847,0.80719
-1.68152,0.808716
-1.68152,0.811768
-1.68152,0.810242
-1.6861,0.811768
-1.68457,0.808716
-1.68762,0.810242
-1.69067,0.808716
-1.68915,0.80719
-1.69373,0.808716
-1.69373,0.805664
-1.69067,0.808716
-1.69525,0.810242
-1.69678,0.808716
-1.69525,0.80719
-1.69678,0.805664
-1.69525,0.80719
-1.69678,0.811768
-1.69678,0.80719
-1.69678,0.808716
-1.6983,0.80719
-1.69373,0.80719
-1.6922,0.808716
-1.6922,0.808716
-1.6922,0.80719
-1.6922,0.805664
-1.68915,0.808716
-1.68915,0.810242
-1.68915,0.805664
-1.68915,0.810242
-1.69067,0.805664
-1.68915,0.80719
-1.68762,0.810242
-1.68762,0.808716
-1.69067,0.808716
-1.69067,0.80719
-1.69067,0.80719
-1.6922,0.811768
-1.6922,0.810242
-1.69373,0.805664
-1.69373,0.804138
-1.69373,0.80719
-1.69678,0.810242
-1.69983,0.80719
-1.6983,0.805664
-1.70135,0.805664
-1.70593,0.805664
-1.70593,0.805664
-1.70593,0.808716
-1.71204,0.80719
-1.71814,0.804138
-1.71967,0.805664
-1.72119,0.808716
-1.72577,0.80719
-1.73035,0.80719
-1.72882,0.805664
-1.73645,0.80719
-1.74103,0.804138
-1.74408,0.805664
-1.74866,0.805664
-1.75323,0.805664
-1.75629,0.805664
-1.76392,0.80719
-1.76697,0.805664
-1.77307,0.805664
-1.77765,0.804138
-1.78223,0.801086
-1.7868,0.80719
-1.78986,0.810242
-1.79749,0.805664
-1.80054,0.804138
-1.80511,0.805664
-1.80817,0.808716
-1.8158,0.808716
-1.81885,0.805664
-1.8219,0.805664
-1.82648,0.805664
-1.83258,0.808716
-1.83563,0.808716
-1.84326,0.804138
-1.84784,0.805664
-1.85089,0.80719
-1.85547,0.805664
-1.86005,0.808716
-1.8692,0.805664
-1.87531,0.801086
-1.87683,0.80719
-1.88141,0.80719
-1.88751,0.80719
-1.88751,0.805664
-1.89819,0.799561
-1.90125,0.80719
-1.90735,0.80719
-1.91345,0.808716
-1.9165,0.805664
-1.92261,0.804138
-1.92261,0.80719
-1.93024,0.80719
-1.93787,0.805664
-1.93939,0.804138
-1.94702,0.801086
-1.95007,0.805664
-1.95465,0.80719
-1.9577,0.80719
-1.96381,0.80719
-1.96686,0.804138
-1.97449,0.804138
-1.97449,0.805664
-1.98059,0.80719
-1.98517,0.805664
-1.9928,0.801086
-1.99585,0.804138
-1.9989,0.805664
-2.005,0.805664
-2.005,0.805664
-2.00958,0.798035
-2.01721,0.801086
-2.01874,0.80719
-2.02484,0.805664
-2.02789,0.805664
-2.034,0.799561
-2.03705,0.799561
-2.03857,0.804138
-2.04315,0.804138
-2.04773,0.804138
-2.04926,0.798035
-2.05383,0.80719
-2.05994,0.80719
-2.06451,0.804138
-2.06604,0.804138
-2.07214,0.801086
-2.0752,0.804138
-2.07977,0.804138
-2.08282,0.804138
-2.09045,0.799561
-2.09045,0.798035
-2.09503,0.799561
-2.09808,0.801086
-2.09961,0.805664
-2.10571,0.804138
-2.10876,0.801086
-2.11029,0.799561
-2.11334,0.804138
-2.12097,0.804138
-2.12402,0.799561
-2.12708,0.798035
-2.13165,0.801086
-2.1347,0.805664
-2.13928,0.80719
-2.14081,0.805664
-2.14539,0.801086
-2.15302,0.804138
-2.15302,0.804138
-2.15454,0.801086
-2.15912,0.805664
-2.15454,0.801086
-2.15607,0.801086
-2.15302,0.804138
-2.14691,0.80719
-2.14233,0.799561
-2.1347,0.799561
-2.1286,0.804138
-2.1225,0.805664
-2.11182,0.805664
-2.09808,0.801086
-2.08588,0.804138
-2.06909,0.801086
-2.05231,0.804138
-2.03552,0.805664
-2.01874,0.801086
-1.9989,0.798035
-1.97601,0.798035
-1.95465,0.801086
-1.93329,0.80719
-1.9104,0.799561
-1.88599,0.799561
-1.86157,0.796509
-1.83716,0.805664
-1.81122,0.804138
-1.7868,0.799561
-1.76086,0.799561
-1.73645,0.804138
-1.71509,0.805664
-1.6922,0.805664
-1.67084,0.804138
-1.64948,0.801086
-1.62811,0.799561
-1.60675,0.804138
-1.58997,0.801086
-1.57166,0.804138
-1.55487,0.798035
-1.53503,0.799561
-1.52283,0.805664
-1.51062,0.801086
-1.49841,0.801086
-1.48315,0.804138
-1.47705,0.796509
-1.46332,0.805664
-1.45721,0.80719
-1.45569,0.799561
-1.44653,0.799561
-1.4389,0.796509
-1.43433,0.804138
-1.4328,0.801086
-1.4267,0.799561
-1.42212,0.801086
-1.42212,0.796509
-1.41754,0.798035
-1.41754,0.801086
-1.41449,0.801086
-1.41296,0.799561
-1.41449,0.805664
-1.40991,0.798035
-1.41144,0.801086
-1.41449,0.799561
-1.41144,0.798035
-1.41296,0.799561
-1.41449,0.804138
-1.41296,0.801086
-1.41754,0.799561
-1.41754,0.799561
-1.42212,0.798035
-1.42212,0.804138
-1.42517,0.801086
-1.42822,0.804138
-1.4328,0.798035
-1.4328,0.798035
-1.4389,0.801086
-1.44043,0.804138
-1.44196,0.801086
-1.44653,0.796509
-1.44958,0.798035
-1.45111,0.801086
-1.45569,0.804138
-1.46027,0.801086
-1.46027,0.799561
-1.46637,0.798035
-1.46637,0.798035
-1.4679,0.799561
-1.46942,0.799561
-1.47095,0.799561
-1.47247,0.798035
-1.47095,0.799561
-1.47247,0.799561
-1.47552,0.799561
-1.47095,0.794983
-1.47095,0.794983
-1.47095,0.798035
-1.46942,0.801086
-1.46942,0.798035
-1.46332,0.799561
-1.46484,0.796509
-1.46332,0.796509
-1.46484,0.798035
-1.46484,0.799561
-1.46027,0.794983
-1.46332,0.798035
-1.45721,0.796509
-1.46027,0.798035
-1.46027,0.798035
-1.45721,0.796509
-1.46179,0.798035
-1.46027,0.799561
-1.45721,0.801086
-1.45874,0.799561
-1.45874,0.799561
-1.45874,0.798035
-1.45874,0.798035
-1.46179,0.799561
-1.46027,0.798035
-1.46484,0.796509
-1.45874,0.796509
-1.46332,0.798035
-1.46942,0.798035
-1.4679,0.799561
-1.4679,0.793457
-1.47095,0.796509
-1.47247,0.799561
-1.47705,0.798035
-1.47858,0.799561
-1.48468,0.796509
-1.48315,0.798035
-1.49078,0.799561
-1.49384,0.798035
-1.49689,0.799561
-1.50452,0.796509
-1.50909,0.796509
-1.51062,0.798035
-1.51367,0.798035
-1.52283,0.801086
-1.5274,0.796509
-1.53351,0.798035
-1.54114,0.798035
-1.54419,0.801086
-1.55029,0.799561
-1.55945,0.796509
-1.5625,0.794983
-1.57013,0.798035
-1.57623,0.798035
-1.58386,0.794983
-1.58691,0.794983
-1.59454,0.793457
-1.60065,0.799561
-1.60675,0.799561
-1.61133,0.798035
-1.61591,0.796509
-1.62201,0.794983
-1.62659,0.798035
-1.62811,0.798035
-1.63422,0.796509
-1.63727,0.794983
-1.64642,0.796509
-1.651,0.796509
-1.6571,0.798035
-1.66321,0.794983
-1.67236,0.793457
-1.67847,0.794983
-1.68457,0.796509
-1.68915,0.796509
-1.69525,0.796509
-1.69983,0.794983
-1.70441,0.796509
-1.71356,0.796509
-1.71814,0.799561
-1.72424,0.794983
-1.72729,0.793457
-1.73035,0.796509
-1.73645,0.799561
-1.74103,0.799561
-1.74561,0.793457
-1.74713,0.796509
-1.75323,0.796509
-1.75934,0.801086
-1.76086,0.799561
-1.76239,0.794983
-1.76697,0.793457
-1.7746,0.793457
-1.77765,0.794983
-1.78375,0.796509
-1.78375,0.794983
-1.78833,0.794983
-1.79291,0.794983
-1.79749,0.798035
-1.79749,0.798035
-1.80511,0.794983
-1.80969,0.794983
-1.81122,0.796509
-1.81732,0.796509
-1.82343,0.798035
-1.83105,0.794983
-1.83563,0.794983
-1.83563,0.794983
-1.84479,0.799561
-1.85089,0.799561
-1.85242,0.794983
-1.85547,0.796509
-1.86157,0.793457
-1.86462,0.798035
-1.87073,0.798035
-1.87378,0.798035
-1.87836,0.793457
-1.87988,0.794983
-1.88599,0.796509
-1.89056,0.796509
-1.89819,0.794983
-1.90582,0.794983
-1.90887,0.794983
-1.91345,0.798035
-1.91803,0.798035
-1.92719,0.796509
-1.93024,0.794983
-1.93787,0.794983
-1.94397,0.799561
-1.95007,0.798035
-1.95465,0.796509
-1.96228,0.794983
-1.96533,0.791931
-1.97296,0.794983
-1.97296,0.801086
-1.98212,0.794983
-1.98364,0.794983
-1.98975,0.796509
-1.99738,0.796509
-1.99738,0.798035
-2.00348,0.796509
-2.01111,0.793457
-2.01569,0.793457
-2.01874,0.796509
-2.02789,0.798035
-2.03247,0.794983
-2.0401,0.791931
-2.04315,0.794983
-2.04926,0.796509
-2.05231,0.796509
-2.06146,0.794983
-2.06299,0.791931
-2.06909,0.794983
-2.0752,0.796509
-2.0752,0.798035
-2.07825,0.793457
-2.08435,0.794983
-2.08282,0.794983
-2.08282,0.793457
-2.07825,0.798035
-2.07825,0.796509
-2.07367,0.791931
-2.06757,0.794983
-2.05841,0.796509
-2.04773,0.794983
-2.03552,0.796509
-2.02789,0.798035
-2.01111,0.793457
-1.99738,0.798035
-1.97754,0.801086
-1.95923,0.794983
-1.94244,0.793457
-1.91803,0.793457
-1.89362,0.793457
-1.87531,0.799561
-1.85089,0.794983
-1.82648,0.793457
-1.79901,0.793457
-1.7746,0.793457
-1.74713,0.793457
-1.71814,0.794983
-1.69067,0.794983
-1.66473,0.790405
-1.64032,0.796509
-1.6098,0.796509
-1.58844,0.794983
-1.5625,0.790405
-1.53961,0.794983
-1.51672,0.794983
-1.49841,0.793457
-1.474,0.791931
-1.46027,0.793457
-1.44043,0.791931
-1.41907,0.791931
-1.40228,0.791931
-1.3855,0.791931
-1.37177,0.787354
-1.36108,0.790405
-1.34735,0.794983
-1.33972,0.790405
-1.33057,0.793457
-1.31989,0.793457
-1.31226,0.791931
-1.3031,0.791931
-1.30157,0.791931
-1.29395,0.793457
-1.28937,0.791931
-1.28479,0.793457
-1.28326,0.796509
-1.27716,0.793457
-1.28021,0.793457
-1.27716,0.790405
-1.27563,0.793457
-1.27563,0.793457
-1.27411,0.793457
-1.27411,0.791931
-1.27563,0.790405
-1.27411,0.793457
-1.27869,0.793457
-1.28021,0.793457
-1.28174,0.791931
-1.28021,0.787354
-1.28174,0.791931
-1.28784,0.793457
-1.28784,0.793457
-1.29242,0.793457
-1.29547,0.790405
-1.3031,0.791931
-1.3031,0.790405
-1.31378,0.791931
-1.31226,0.791931
-1.31836,0.788879
-1.32141,0.790405
-1.32904,0.793457
-1.33057,0.791931
-1.33514,0.791931
-1.33972,0.791931
-1.34125,0.793457
-1.3443,0.791931
-1.34888,0.793457
-1.35193,0.790405
-1.35498,0.790405
-1.35498,0.788879
-1.36108,0.793457
-1.36414,0.793457
-1.36566,0.791931
-1.36719,0.791931
-1.37024,0.790405
-1.37024,0.790405
-1.37024,0.794983
-1.37177,0.790405
-1.37329,0.788879
-1.37482,0.791931
-1.37482,0.791931
-1.37634,0.791931
-1.37939,0.788879
-1.37787,0.790405
-1.38092,0.790405
-1.37787,0.790405
-1.37939,0.793457
-1.37787,0.791931
-1.37939,0.788879
-1.37787,0.790405
-1.37939,0.793457
-1.38092,0.791931
-1.38397,0.790405
-1.38092,0.788879
-1.3855,0.790405
-1.38702,0.790405
-1.38702,0.791931
-1.38702,0.790405
-1.39313,0.787354
-1.39465,0.790405
-1.39923,0.791931
-1.40228,0.793457
-1.40686,0.790405
-1.40991,0.787354
-1.41144,0.790405
-1.41602,0.788879
-1.42059,0.790405
-1.42517,0.791931
-1.43127,0.785828
-1.42975,0.791931
-1.4389,0.790405
-1.44196,0.790405
-1.44806,0.788879
-1.45721,0.794983
-1.46484,0.790405
-1.4679,0.793457
-1.47247,0.793457
-1.4801,0.788879
-1.48773,0.785828
-1.49536,0.787354
-1.50146,0.791931
-1.50909,0.791931
-1.5152,0.790405
-1.52588,0.790405
-1.53809,0.788879
-1.54266,0.791931
-1.55487,0.790405
-1.56097,0.791931
-1.5686,0.788879
-1.57318,0.787354
-1.58234,0.790405
-1.58997,0.791931
-1.5976,0.791931
-1.60522,0.788879
-1.61438,0.788879
-1.62354,0.790405
-1.63116,0.791931
-1.63727,0.791931
-1.64642,0.790405
-1.65405,0.787354
-1.6571,0.788879
-1.66321,0.791931
-1.67236,0.790405
-1.67847,0.787354
-1.6861,0.791931
-1.69067,0.787354
-1.6983,0.793457
-1.70593,0.787354
-1.71356,0.788879
-1.71967,0.787354
-1.72577,0.791931
-1.73035,0.793457
-1.73492,0.791931
-1.74408,0.785828
-1.74866,0.788879
-1.75476,0.787354
-1.75934,0.791931
-1.76392,0.790405
-1.76849,0.788879
-1.77612,0.788879
-1.78375,0.787354
-1.78528,0.791931
-1.79443,0.787354
-1.79596,0.787354
-1.79901,0.787354
-1.80359,0.787354
-1.81274,0.791931
-1.81427,0.788879
-1.81885,0.787354
-1.82495,0.787354
-1.828,0.790405
-1.83563,0.793457
-1.84174,0.791931
-1.84326,0.784302
-1.84784,0.787354
-1.85089,0.788879
-1.85547,0.791931
-1.86005,0.787354
-1.86462,0.788879
-1.8692,0.788879
-1.87531,0.785828
-1.88293,0.788879
-1.88446,0.788879
-1.88751,0.785828
-1.89362,0.790405
-1.90125,0.785828
-1.9043,0.790405
-1.91193,0.790405
-1.91956,0.787354
-1.92108,0.787354
-1.93024,0.790405
-1.93024,0.793457
-1.93787,0.787354
-1.94092,0.790405
-1.94855,0.785828
-1.95007,0.788879
-1.95923,0.790405
-1.96533,0.790405
-1.96991,0.787354
-1.97449,0.787354
-1.98059,0.787354
-1.98822,0.791931
-1.9928,0.790405
-2.00043,0.787354
-2.005,0.788879
-2.00653,0.790405
-2.01569,0.790405
-2.02026,0.790405
-2.02484,0.785828
-2.02942,0.787354
-2.03247,0.790405
-2.03552,0.791931
-2.04163,0.790405
-2.04315,0.787354
-2.05231,0.787354
-2.05994,0.791931
-2.05994,0.791931
-2.06604,0.790405
-2.07214,0.787354
-2.0752,0.787354
-2.07977,0.790405
-2.08435,0.791931
-2.08893,0.790405
-2.09045,0.790405
-2.09808,0.785828
-2.09351,0.788879
-2.09503,0.791931
-2.09351,0.791931
-2.09503,0.788879
-2.09198,0.788879
-2.08435,0.790405
-2.07672,0.791931
-2.06909,0.788879
-2.05994,0.787354
-2.04773,0.790405
-2.03552,0.790405
-2.02026,0.791931
-2.00806,0.790405
-1.9928,0.788879
-1.97449,0.790405
-1.95313,0.788879
-1.93481,0.793457
-1.91193,0.788879
-1.89209,0.787354
-1.8692,0.788879
-1.84174,0.790405
-1.82037,0.793457
-1.79443,0.791931
-1.7746,0.788879
-1.74866,0.788879
-1.72272,0.788879
-1.70135,0.790405
-1.68304,0.787354
-1.66016,0.790405
-1.64185,0.787354
-1.62506,0.791931
-1.60522,0.790405
-1.58844,0.791931
-1.57318,0.788879
-1.55945,0.788879
-1.54572,0.791931
-1.53351,0.791931
-1.52283,0.791931
-1.51062,0.790405
-1.50146,0.788879
-1.49384,0.788879
-1.48773,0.793457
-1.48163,0.790405
-1.47552,0.790405
-1.47247,0.788879
-1.47095,0.791931
-1.46942,0.790405
-1.46942,0.790405
-1.46942,0.790405
-1.46637,0.790405
-1.4679,0.790405
-1.4679,0.794983
-1.47095,0.791931
-1.4679,0.785828
-1.46942,0.793457
-1.46942,0.794983
-1.474,0.793457
-1.47858,0.794983
-1.47858,0.788879
-1.48315,0.791931
-1.48773,0.794983
-1.49078,0.793457
-1.49689,0.788879
-1.49994,0.791931
-1.50452,0.791931
-1.50604,0.791931
-1.51062,0.793457
-1.51978,0.794983
-1.52588,0.790405
-1.53503,0.790405
-1.53961,0.791931
-1.54266,0.796509
-1.55334,0.794983
-1.5564,0.793457
-1.56097,0.788879
-1.5686,0.793457
-1.57013,0.794983
-1.57928,0.794983
-1.58691,0.791931
-1.59302,0.791931
-1.59607,0.796509
-1.6037,0.796509
-1.60675,0.796509
-1.6098,0.793457
-1.61133,0.794983
-1.61743,0.794983
-1.62048,0.798035
-1.62354,0.791931
-1.62964,0.790405
-1.62964,0.794983
-1.63269,0.796509
-1.63116,0.796509
-1.63727,0.798035
-1.63727,0.793457
-1.63879,0.796509
-1.63574,0.798035
-1.63879,0.799561
-1.63879,0.798035
-1.64185,0.794983
-1.64032,0.794983
-1.63879,0.794983
-1.64337,0.798035
-1.64032,0.799561
-1.64642,0.793457
-1.64795,0.796509
-1.64948,0.796509
-1.651,0.804138
-1.65405,0.801086
-1.65253,0.798035
-1.6571,0.796509
-1.66016,0.799561
-1.66016,0.801086
-1.66321,0.804138
-1.66779,0.796509
-1.67084,0.799561
-1.67694,0.796509
-1.67847,0.801086
-1.68457,0.799561
-1.68762,0.798035
-1.69373,0.796509
-1.69373,0.799561
-1.70135,0.801086
-1.70593,0.801086
-1.71509,0.801086
-1.71967,0.796509
-1.72729,0.799561
-1.73035,0.804138
-1.73798,0.799561
-1.74255,0.798035
-1.75018,0.798035
-1.75934,0.799561
-1.76392,0.80719
-1.77307,0.805664
-1.77917,0.799561
-1.78375,0.801086
-1.78833,0.801086
-1.79596,0.804138
-1.80054,0.804138
-1.80817,0.799561
-1.81274,0.801086
-1.81732,0.80719
-1.82343,0.80719
-1.82953,0.804138
-1.84021,0.801086
-1.84784,0.801086
-1.85089,0.804138
-1.86005,0.804138
-1.86462,0.805664
-1.87531,0.805664
-1.87988,0.801086
-1.88751,0.805664
-1.89362,0.808716
-1.90125,0.80719
-1.90887,0.805664
-1.91498,0.804138
-1.91956,0.80719
-1.92719,0.80719
-1.93481,0.80719
-1.93787,0.808716
-1.94702,0.805664
-1.95465,0.805664
-1.95923,0.808716
-1.96533,0.808716
-1.97601,0.808716
-1.97906,0.805664
-1.98822,0.805664
-1.9989,0.810242
-2.005,0.810242
-2.01111,0.810242
-2.01721,0.808716
-2.02637,0.808716
-2.03094,0.80719
-2.03857,0.810242
-2.04163,0.811768
-2.0462,0.805664
-2.05383,0.811768
-2.05841,0.813293
-2.06299,0.80719
-2.07214,0.810242
-2.0752,0.808716
-2.07977,0.808716
-2.09045,0.810242
-2.09198,0.813293
-2.09503,0.808716
-2.09808,0.808716
-2.10266,0.810242
-2.10876,0.813293
-2.11487,0.811768
-2.11945,0.811768
-2.12555,0.808716
-2.13165,0.808716
-2.1347,0.813293
-2.14081,0.813293
-2.14386,0.810242
-2.14539,0.810242
-2.14844,0.813293
-2.16064,0.814819
-2.1637,0.813293
-2.16827,0.810242
-2.17133,0.810242
-2.1759,0.80719
-2.18506,0.813293
-2.18658,0.810242
-2.19574,0.811768
-2.19879,0.811768
-2.20642,0.810242
-2.20795,0.816345
-2.21558,0.811768
-2.22015,0.810242
-2.22626,0.811768
-2.23236,0.811768
-2.23389,0.814819
-2.23846,0.811768
-2.24152,0.814819
-2.24915,0.811768
-2.25372,0.811768
-2.25677,0.814819
-2.26288,0.817871
-2.26593,0.813293
-2.27051,0.814819
-2.27814,0.813293
-2.28271,0.816345
-2.28882,0.814819
-2.29492,0.813293
-2.29797,0.811768
-2.29797,0.816345
-2.30713,0.817871
-2.31018,0.814819
-2.31323,0.814819
-2.31934,0.814819
-2.32086,0.813293
-2.32391,0.816345
-2.33154,0.816345
-2.33765,0.813293
-2.34375,0.814819
-2.34833,0.816345
-2.35291,0.817871
-2.35901,0.816345
-2.36053,0.816345
-2.36664,0.816345
-2.36816,0.817871
-2.37274,0.819397
-2.37579,0.814819
-2.37579,0.816345
-2.36969,0.814819
-2.36816,0.816345
-2.36359,0.819397
-2.36053,0.816345
-2.35138,0.816345
-2.34375,0.816345
-2.33002,0.816345
-2.31934,0.819397
-2.30713,0.819397
-2.29187,0.816345
-2.27509,0.814819
-2.25677,0.817871
-2.23999,0.817871
-2.22473,0.816345
-2.2049,0.816345
-2.18506,0.814819
-2.16217,0.816345
-2.14386,0.816345
-2.12402,0.817871
-2.10114,0.816345
-2.08435,0.816345
-2.05994,0.816345
-2.03705,0.820923
-2.02026,0.819397
-1.9989,0.816345
-1.98212,0.819397
-1.96381,0.814819
-1.94397,0.820923
-1.93176,0.816345
-1.91345,0.819397
-1.9043,0.813293
-1.88904,0.816345
-1.87073,0.820923
-1.8631,0.817871
-1.85394,0.814819
-1.84631,0.813293
-1.83105,0.819397
-1.82648,0.817871
-1.81885,0.819397
-1.81122,0.816345
-1.80054,0.814819
-1.80054,0.816345
-1.79443,0.816345
-1.78986,0.819397
-1.78833,0.816345
-1.78833,0.814819
-1.78375,0.819397
-1.78528,0.822449
-1.78528,0.819397
-1.78223,0.814819
-1.78223,0.817871
-1.7807,0.819397
-1.7807,0.817871
-1.78375,0.819397
-1.7868,0.813293
-1.78833,0.816345
-1.78528,0.817871
-1.78833,0.816345
-1.78986,0.817871
-1.79291,0.816345
-1.79596,0.814819
-1.79596,0.819397
-1.79901,0.819397
-1.80054,0.817871
-1.80359,0.816345
-1.80359,0.814819
-1.80817,0.814819
-1.81122,0.817871
-1.8158,0.817871
-1.8219,0.816345
-1.8219,0.813293
-1.82648,0.817871
-1.82648,0.819397
-1.83258,0.819397
-1.83258,0.817871
-1.83563,0.817871
-1.83868,0.816345
-1.84021,0.817871
-1.84631,0.817871
-1.84784,0.816345
-1.84784,0.814819
-1.84937,0.816345
-1.85547,0.820923
-1.86005,0.819397
-1.86157,0.816345
-1.86157,0.813293
-1.86462,0.816345
-1.86462,0.817871
-1.86768,0.817871
-1.8692,0.816345
-1.87073,0.814819
-1.87225,0.817871
-1.87073,0.819397
-1.87378,0.817871
-1.87531,0.813293
-1.87378,0.813293
-1.87531,0.814819
-1.87378,0.819397
-1.87378,0.816345
-1.87531,0.816345
-1.87531,0.814819
-1.87225,0.813293
-1.87531,0.814819
-1.87531,0.819397
-1.87531,0.816345
-1.87531,0.813293
-1.87378,0.816345
-1.87378,0.820923
-1.87225,0.820923
-1.87531,0.819397
-1.87531,0.814819
-1.87683,0.816345
-1.87378,0.819397
-1.87836,0.820923
-1.87988,0.816345
-1.88446,0.816345
-1.88599,0.816345
-1.88599,0.816345
-1.88904,0.816345
-1.89362,0.813293
-1.89972,0.816345
-1.90125,0.817871
-1.90582,0.820923
-1.91193,0.816345
-1.9165,0.817871
-1.91956,0.816345
-1.92413,0.816345
-1.93024,0.814819
-1.93481,0.814819
-1.94092,0.816345
-1.94244,0.816345
-1.95007,0.816345
-1.95313,0.816345
-1.96228,0.816345
-1.96686,0.816345
-1.96838,0.816345
-1.97754,0.817871
-1.98059,0.817871
-1.98822,0.814819
-1.99738,0.813293
-1.9989,0.816345
-2.00806,0.814819
-2.01263,0.816345
-2.02026,0.816345
-2.02789,0.814819
-2.03552,0.814819
-2.03857,0.816345
-2.04773,0.816345
-2.05231,0.814819
-2.05841,0.816345
-2.06604,0.814819
-2.07214,0.816345
-2.0752,0.816345
-2.08282,0.816345
-2.08588,0.814819
-2.09503,0.814819
-2.09808,0.817871
-2.10266,0.816345
-2.10571,0.816345
-2.11182,0.813293
-2.12097,0.814819
-2.12555,0.814819
-2.13013,0.816345
-2.13776,0.814819
-2.14233,0.811768
-2.14539,0.811768
-2.14844,0.814819
-2.15454,0.817871
-2.15912,0.817871
-2.16522,0.814819
-2.16675,0.810242
-2.1698,0.814819
-2.17438,0.817871
-2.17896,0.816345
-2.18048,0.814819
-2.18506,0.813293
-2.19116,0.814819
-2.19421,0.817871
-2.19879,0.817871
-2.20184,0.810242
-2.20947,0.810242
-2.21405,0.814819
-2.2171,0.816345
-2.22015,0.814819
-2.22473,0.814819
-2.22626,0.810242
-2.23389,0.813293
-2.23846,0.814819
-2.23999,0.811768
-2.24609,0.813293
-2.2522,0.810242
-2.25372,0.813293
-2.26135,0.814819
-2.2644,0.816345
-2.27051,0.810242
-2.27356,0.811768
-2.27509,0.816345
-2.28119,0.817871
-2.28271,0.811768
-2.28729,0.811768
-2.29187,0.810242
-2.2934,0.813293
-2.29797,0.816345
-2.30103,0.811768
-2.3056,0.810242
-2.31171,0.813293
-2.31628,0.811768
-2.31781,0.814819
-2.32086,0.813293
-2.32544,0.811768
-2.32849,0.811768
-2.32849,0.810242
-2.33459,0.814819
-2.3407,0.811768
-2.34222,0.811768
-2.34528,0.810242
-2.34985,0.810242
-2.35291,0.816345
-2.35596,0.811768
-2.36206,0.811768
-2.36511,0.811768
-2.36511,0.813293
-2.37274,0.813293
-2.37579,0.811768
-2.38037,0.811768
-2.38495,0.810242
-2.38647,0.813293
-2.39105,0.811768
-2.39716,0.810242
-2.40479,0.811768
-2.40631,0.810242
-2.40936,0.808716
-2.41241,0.811768
-2.41699,0.808716
-2.4231,0.811768
-2.42615,0.808716
-2.43225,0.810242
-2.43683,0.811768
-2.43683,0.813293
-2.44141,0.810242
-2.44598,0.808716
-2.44904,0.80719
-2.45514,0.813293
