-2.47192,0.889587
-2.4704,0.892639
-2.46277,0.894165
-2.46277,0.894165
-2.45667,0.894165
-2.44751,0.892639
-2.44141,0.897217
-2.42767,0.892639
-2.41699,0.895691
-2.40631,0.894165
-2.39105,0.892639
-2.37579,0.891113
-2.35596,0.892639
-2.3407,0.897217
-2.32086,0.894165
-2.29797,0.894165
-2.28119,0.889587
-2.2583,0.892639
-2.23389,0.895691
-2.20947,0.895691
-2.18964,0.891113
-2.16217,0.891113
-2.13928,0.894165
-2.11639,0.897217
-2.09198,0.894165
-2.06757,0.891113
-2.0462,0.892639
-2.02026,0.892639
-2.00043,0.895691
-1.97906,0.892639
-1.96228,0.892639
-1.93939,0.891113
-1.92108,0.891113
-1.90582,0.897217
-1.88904,0.895691
-1.87225,0.892639
-1.85547,0.889587
-1.84631,0.892639
-1.83105,0.897217
-1.82343,0.891113
-1.81122,0.891113
-1.80054,0.889587
-1.79596,0.891113
-1.78223,0.897217
-1.77917,0.892639
-1.77307,0.891113
-1.76544,0.892639
-1.76086,0.892639
-1.76086,0.895691
-1.76086,0.894165
-1.75476,0.891113
-1.75476,0.891113
-1.75323,0.892639
-1.75476,0.894165
-1.75323,0.891113
-1.75476,0.892639
-1.75629,0.891113
-1.75476,0.891113
-1.75629,0.895691
-1.76086,0.892639
-1.76086,0.892639
-1.76544,0.889587
-1.76849,0.891113
-1.77307,0.894165
-1.77612,0.891113
-1.78223,0.892639
-1.78528,0.886536
-1.78833,0.891113
-1.79749,0.894165
-1.79901,0.894165
-1.80664,0.894165
-1.81122,0.889587
-1.81427,0.892639
-1.81732,0.897217
-1.82343,0.891113
-1.82495,0.892639
-1.82953,0.891113
-1.83105,0.894165
-1.83258,0.894165
-1.83716,0.894165
-1.84174,0.892639
-1.84326,0.889587
-1.84784,0.894165
-1.84937,0.895691
-1.85089,0.892639
-1.85547,0.889587
-1.85394,0.891113
-1.85547,0.894165
-1.85547,0.892639
-1.85699,0.895691
-1.85852,0.891113
-1.85852,0.892639
-1.86005,0.891113
-1.85852,0.895691
-1.85852,0.891113
-1.85699,0.894165
-1.86005,0.892639
-1.85699,0.895691
-1.85699,0.895691
-1.85547,0.895691
-1.85852,0.889587
-1.85394,0.891113
-1.85699,0.892639
-1.85547,0.892639
-1.85852,0.891113
-1.85852,0.894165
-1.85852,0.891113
-1.86005,0.891113
-1.86005,0.894165
-1.8631,0.894165
-1.86768,0.892639
-1.86462,0.891113
-1.87073,0.894165
-1.87073,0.895691
-1.87225,0.892639
-1.87531,0.892639
-1.87988,0.894165
-1.88293,0.891113
-1.88599,0.894165
-1.88751,0.894165
-1.89056,0.892639
-1.89362,0.891113
-1.89362,0.894165
-1.90125,0.895691
-1.9043,0.889587
-1.91193,0.892639
-1.91345,0.891113
-1.91956,0.894165
-1.92108,0.892639
-1.93176,0.892639
-1.93329,0.892639
-1.94092,0.892639
-1.94397,0.891113
-1.95007,0.891113
-1.95313,0.892639
-1.95923,0.894165
-1.96838,0.894165
-1.97296,0.894165
-1.97906,0.895691
-1.98364,0.895691
-1.98975,0.892639
-1.9989,0.891113
-2.00195,0.894165
-2.00958,0.892639
-2.01416,0.892639
-2.02026,0.894165
-2.02637,0.894165
-2.03552,0.894165
-2.03857,0.897217
-2.04163,0.891113
-2.05078,0.894165
-2.05841,0.894165
-2.06299,0.895691
-2.06604,0.898743
-2.06909,0.895691
-2.07977,0.891113
-2.07977,0.892639
-2.08893,0.894165
-2.09198,0.898743
-2.09656,0.895691
-2.09961,0.895691
-2.10419,0.892639
-2.10876,0.895691
-2.11334,0.895691
-2.11945,0.898743
-2.12708,0.895691
-2.1286,0.894165
-2.1347,0.898743
-2.14081,0.898743
-2.14233,0.895691
-2.15149,0.894165
-2.15302,0.897217
-2.15759,0.897217
-2.16064,0.898743
-2.16522,0.897217
-2.16827,0.897217
-2.17285,0.897217
-2.17743,0.894165
-2.18048,0.900269
-2.18811,0.897217
-2.19116,0.897217
-2.19269,0.897217
-2.19879,0.898743
-2.20032,0.898743
-2.2049,0.897217
-2.20947,0.898743
-2.21405,0.895691
-2.21405,0.898743
-2.22015,0.900269
-2.22168,0.900269
-2.22931,0.895691
-2.22931,0.900269
-2.23541,0.895691
-2.23846,0.901794
-2.24762,0.898743
-2.24915,0.900269
-2.25372,0.900269
-2.2583,0.900269
-2.2644,0.90332
-2.26746,0.901794
-2.27203,0.898743
-2.27356,0.900269
-2.28119,0.897217
-2.28424,0.901794
-2.28882,0.900269
-2.29034,0.900269
-2.2934,0.900269
-2.29797,0.900269
-2.30255,0.901794
-2.31171,0.901794
-2.31018,0.900269
-2.31781,0.900269
-2.31934,0.901794
-2.32544,0.901794
-2.33154,0.901794
-2.33765,0.90332
-2.3407,0.901794
-2.3468,0.900269
-2.35291,0.904846
-2.35596,0.90332
-2.35596,0.901794
-2.36206,0.901794
-2.36664,0.901794
-2.36816,0.90332
-2.37579,0.901794
-2.37732,0.898743
-2.38342,0.901794
-2.38037,0.906372
-2.38495,0.901794
-2.38495,0.904846
-2.38647,0.901794
-2.38647,0.90332
-2.38037,0.90332
-2.37885,0.907898
-2.36969,0.906372
-2.36206,0.904846
-2.35596,0.90332
-2.3468,0.904846
-2.33307,0.907898
-2.32697,0.90332
-2.31476,0.901794
-2.2995,0.904846
-2.28424,0.906372
-2.26593,0.907898
-2.24762,0.906372
-2.22931,0.904846
-2.211,0.90332
-2.19269,0.904846
-2.17285,0.906372
-2.15302,0.906372
-2.13165,0.907898
-2.10876,0.904846
-2.09503,0.906372
-2.07062,0.907898
-2.04926,0.906372
-2.03094,0.906372
-2.01111,0.906372
-1.99432,0.904846
-1.97449,0.907898
-1.95618,0.909424
-1.93939,0.906372
-1.92261,0.906372
-1.90735,0.906372
-1.89362,0.912476
-1.88293,0.912476
-1.8692,0.906372
-1.85394,0.906372
-1.84631,0.907898
-1.83258,0.912476
-1.82648,0.91095
-1.81732,0.907898
-1.80817,0.91095
-1.80511,0.906372
-1.79749,0.912476
-1.79138,0.909424
-1.78833,0.907898
-1.7807,0.909424
-1.7807,0.906372
-1.77612,0.91095
-1.77307,0.909424
-1.76849,0.909424
-1.76697,0.906372
-1.76392,0.906372
-1.76239,0.91095
-1.76392,0.909424
-1.76239,0.907898
-1.76239,0.907898
-1.76086,0.912476
-1.76239,0.909424
-1.76544,0.909424
-1.76697,0.907898
-1.76697,0.909424
-1.76697,0.912476
-1.76849,0.912476
-1.77155,0.909424
-1.77612,0.912476
-1.7807,0.91095
-1.78223,0.91095
-1.7868,0.912476
-1.78986,0.909424
-1.79596,0.912476
-1.79596,0.909424
-1.79901,0.91095
-1.80054,0.91095
-1.80664,0.907898
-1.81122,0.907898
-1.81274,0.909424
-1.8158,0.912476
-1.8219,0.915527
-1.8219,0.91095
-1.82343,0.907898
-1.82648,0.91095
-1.82648,0.91095
-1.82953,0.915527
-1.83105,0.909424
-1.828,0.909424
-1.83563,0.909424
-1.83868,0.91095
-1.83716,0.912476
-1.83258,0.912476
-1.83716,0.909424
-1.83563,0.915527
-1.83563,0.91095
-1.83868,0.91095
-1.83563,0.914001
-1.83716,0.914001
-1.83563,0.91095
-1.83105,0.912476
-1.83258,0.912476
-1.82953,0.912476
-1.82648,0.912476
-1.828,0.912476
-1.82953,0.912476
-1.82648,0.914001
-1.83105,0.914001
-1.82953,0.91095
-1.83105,0.914001
-1.83105,0.912476
-1.83105,0.915527
-1.828,0.914001
-1.83716,0.909424
-1.83258,0.914001
-1.83563,0.912476
-1.83716,0.914001
-1.84174,0.914001
-1.84479,0.91095
-1.84479,0.914001
-1.84937,0.914001
-1.85089,0.914001
-1.85394,0.91095
-1.85852,0.912476
-1.85699,0.909424
-1.86005,0.912476
-1.8631,0.920105
-1.87073,0.912476
-1.87225,0.912476
-1.87378,0.912476
-1.87988,0.915527
-1.88446,0.914001
-1.88751,0.914001
-1.88904,0.912476
-1.89209,0.912476
-1.89362,0.915527
-1.90125,0.915527
-1.9043,0.91095
-1.90887,0.91095
-1.91498,0.912476
-1.91956,0.918579
-1.91956,0.918579
-1.92566,0.915527
-1.93481,0.914001
-1.93634,0.912476
-1.94397,0.91095
-1.9455,0.915527
-1.95007,0.91095
-1.95618,0.912476
-1.96381,0.91095
-1.96991,0.912476
-1.97296,0.915527
-1.97754,0.914001
-1.98212,0.915527
-1.98669,0.915527
-1.9928,0.915527
-1.99738,0.918579
-2.00348,0.915527
-2.00653,0.91095
-2.00806,0.914001
-2.01416,0.920105
-2.01721,0.915527
-2.02484,0.912476
-2.02789,0.914001
-2.02942,0.909424
-2.03552,0.915527
-2.03705,0.914001
-2.03705,0.918579
-2.0462,0.91095
-2.04773,0.91095
-2.05231,0.914001
-2.05383,0.918579
-2.06146,0.914001
-2.06451,0.914001
-2.06757,0.918579
-2.06909,0.915527
-2.07367,0.915527
-2.07977,0.914001
-2.08435,0.91095
-2.08893,0.91095
-2.09198,0.918579
-2.09351,0.918579
-2.09808,0.915527
-2.10266,0.914001
-2.10266,0.920105
-2.10724,0.914001
-2.11182,0.915527
-2.11334,0.915527
-2.12097,0.912476
-2.1225,0.914001
-2.12555,0.914001
-2.1286,0.915527
-2.1347,0.918579
-2.13776,0.914001
-2.13928,0.918579
-2.14386,0.915527
-2.14539,0.915527
-2.14844,0.918579
-2.15454,0.914001
-2.15759,0.914001
-2.16217,0.915527
-2.1637,0.914001
-2.16675,0.914001
-2.17133,0.914001
-2.17438,0.912476
-2.17896,0.915527
-2.17896,0.914001
-2.18353,0.914001
-2.18811,0.912476
-2.19421,0.912476
-2.19727,0.912476
-2.20184,0.918579
-2.2049,0.915527
-2.211,0.914001
-2.21558,0.920105
-2.21863,0.915527
-2.22015,0.914001
-2.22473,0.918579
-2.22778,0.912476
-2.23083,0.915527
-2.23694,0.912476
-2.23694,0.918579
-2.24304,0.914001
-2.24609,0.914001
-2.25067,0.918579
-2.25372,0.918579
-2.25677,0.920105
-2.25983,0.912476
-2.26135,0.915527
-2.26288,0.912476
-2.26746,0.918579
-2.27356,0.918579
-2.27509,0.918579
-2.27814,0.914001
-2.28271,0.914001
-2.28729,0.914001
-2.29187,0.914001
-2.29492,0.915527
-2.29645,0.915527
-2.30103,0.914001
-2.3056,0.915527
-2.31018,0.914001
-2.31628,0.920105
-2.32086,0.914001
-2.32544,0.914001
-2.33002,0.915527
-2.33459,0.918579
-2.33612,0.915527
-2.3468,0.915527
-2.34528,0.912476
-2.35443,0.914001
-2.35596,0.918579
-2.35901,0.920105
-2.36053,0.918579
-2.36511,0.912476
-2.36359,0.915527
-2.36511,0.918579
-2.36359,0.914001
-2.35901,0.918579
-2.35443,0.915527
-2.34985,0.912476
-2.34375,0.914001
-2.33459,0.918579
-2.32391,0.914001
-2.31781,0.914001
-2.30408,0.914001
-2.2934,0.918579
-2.28271,0.914001
-2.27051,0.912476
-2.25372,0.918579
-2.23694,0.915527
-2.22321,0.920105
-2.20642,0.914001
-2.18964,0.915527
-2.17438,0.918579
-2.15454,0.914001
-2.13776,0.918579
-2.12097,0.920105
-2.10266,0.914001
-2.08893,0.915527
-2.06757,0.914001
-2.05078,0.918579
-2.03247,0.915527
-2.01569,0.914001
-1.9989,0.915527
-1.98364,0.918579
-1.97144,0.920105
-1.95313,0.914001
-1.94244,0.912476
-1.93176,0.915527
-1.91498,0.914001
-1.90582,0.915527
-1.89362,0.915527
-1.88293,0.915527
-1.87531,0.914001
-1.8692,0.915527
-1.86005,0.921631
-1.85394,0.920105
-1.84631,0.912476
-1.84021,0.918579
-1.83258,0.912476
-1.82648,0.918579
-1.8219,0.915527
-1.8219,0.918579
-1.81732,0.918579
-1.80969,0.915527
-1.81122,0.918579
-1.80664,0.915527
-1.80664,0.915527
-1.80359,0.912476
-1.80359,0.918579
-1.80359,0.920105
-1.80054,0.918579
-1.80359,0.915527
-1.79901,0.915527
-1.79901,0.915527
-1.80359,0.918579
-1.80054,0.920105
-1.80359,0.918579
-1.80359,0.920105
-1.80817,0.920105
-1.81274,0.918579
-1.81122,0.915527
-1.81427,0.918579
-1.81427,0.918579
-1.82037,0.915527
-1.82037,0.923157
-1.82343,0.918579
-1.82648,0.915527
-1.83105,0.920105
-1.83258,0.920105
-1.83258,0.920105
-1.83716,0.918579
-1.83258,0.918579
-1.83716,0.914001
-1.84021,0.915527
-1.84174,0.920105
-1.84021,0.921631
-1.84326,0.915527
-1.84174,0.915527
-1.84174,0.918579
-1.84326,0.923157
-1.84326,0.918579
-1.84326,0.914001
-1.84479,0.914001
-1.84174,0.914001
-1.84326,0.920105
-1.84174,0.915527
-1.84479,0.912476
-1.84631,0.915527
-1.84631,0.918579
-1.84479,0.914001
-1.84479,0.920105
-1.84479,0.915527
-1.84174,0.914001
-1.84326,0.921631
-1.84326,0.918579
-1.84174,0.918579
-1.84174,0.915527
-1.84174,0.914001
-1.84174,0.915527
-1.84174,0.918579
-1.84174,0.912476
-1.84021,0.915527
-1.83868,0.915527
-1.84021,0.914001
-1.84021,0.918579
-1.84021,0.921631
-1.84021,0.915527
-1.84021,0.912476
-1.83716,0.918579
-1.84021,0.918579
-1.84021,0.915527
-1.84021,0.918579
-1.84021,0.912476
-1.84326,0.907898
-1.84174,0.918579
-1.84479,0.915527
-1.84479,0.918579
-1.84631,0.918579
-1.84326,0.914001
-1.84631,0.915527
-1.84937,0.912476
-1.84784,0.914001
-1.85242,0.915527
-1.85242,0.918579
-1.85394,0.912476
-1.85852,0.915527
-1.85394,0.914001
-1.8631,0.91095
-1.86462,0.915527
-1.86768,0.918579
-1.87073,0.915527
-1.87378,0.914001
-1.87683,0.91095
-1.87988,0.915527
-1.88293,0.918579
-1.88751,0.915527
-1.88904,0.914001
-1.89209,0.912476
-1.89362,0.914001
-1.89972,0.915527
-1.90125,0.912476
-1.90887,0.912476
-1.90887,0.914001
-1.91345,0.915527
-1.91498,0.912476
-1.91956,0.91095
-1.92413,0.909424
-1.92566,0.912476
-1.93329,0.912476
-1.93634,0.914001
-1.94092,0.909424
-1.9455,0.915527
-1.94855,0.912476
-1.95465,0.91095
-1.95465,0.912476
-1.9577,0.912476
-1.96381,0.912476
-1.96686,0.91095
-1.97449,0.909424
-1.97296,0.914001
-1.97601,0.912476
-1.97754,0.912476
-1.98517,0.912476
-1.98517,0.912476
-1.98822,0.915527
-1.98975,0.912476
-1.9928,0.91095
-1.99585,0.909424
-1.9989,0.91095
-2.00348,0.912476
-2.00348,0.912476
-2.00806,0.91095
-2.00806,0.91095
-2.01111,0.909424
-2.01569,0.912476
-2.01416,0.912476
-2.01569,0.91095
-2.02026,0.906372
-2.02179,0.912476
-2.02789,0.912476
-2.03094,0.912476
-2.03094,0.909424
-2.034,0.91095
-2.03857,0.914001
-2.03857,0.91095
-2.04468,0.91095
-2.04468,0.909424
-2.04773,0.909424
-2.05078,0.91095
-2.05688,0.912476
-2.05688,0.909424
-2.06299,0.907898
-2.06604,0.909424
-2.06757,0.909424
-2.07214,0.909424
-2.07672,0.907898
-2.07825,0.91095
-2.08282,0.906372
-2.08588,0.904846
-2.08893,0.907898
-2.09503,0.907898
-2.09656,0.906372
-2.09961,0.907898
-2.10419,0.909424
-2.10876,0.912476
-2.11029,0.91095
-2.11487,0.906372
-2.1225,0.906372
-2.12555,0.907898
-2.1286,0.907898
-2.13165,0.909424
-2.1347,0.907898
-2.13928,0.906372
-2.14539,0.906372
-2.14844,0.907898
-2.14844,0.909424
-2.15759,0.907898
-2.15607,0.907898
-2.1637,0.906372
-2.16675,0.906372
-2.1698,0.906372
-2.17285,0.904846
-2.17743,0.906372
-2.18353,0.907898
-2.18964,0.907898
-2.19116,0.91095
-2.19727,0.904846
-2.19879,0.907898
-2.20337,0.90332
-2.20642,0.906372
-2.20947,0.91095
-2.2171,0.901794
-2.21558,0.90332
-2.21863,0.904846
-2.22321,0.904846
-2.22321,0.906372
-2.22321,0.904846
-2.22168,0.904846
-2.21863,0.907898
-2.21405,0.906372
-2.211,0.904846
-2.20184,0.900269
-2.19727,0.904846
-2.18811,0.901794
-2.17743,0.907898
-2.16522,0.907898
-2.15607,0.901794
-2.14081,0.90332
-2.1286,0.90332
-2.11487,0.90332
-2.10114,0.901794
-2.08282,0.901794
-2.06757,0.900269
-2.05383,0.90332
-2.03552,0.906372
-2.02179,0.904846
-2.00195,0.897217
-1.98822,0.901794
-1.96991,0.90332
-1.95313,0.901794
-1.93176,0.90332
-1.91803,0.901794
-1.90125,0.90332
-1.88751,0.901794
-1.87378,0.901794
-1.85852,0.90332
-1.84631,0.897217
-1.83258,0.898743
-1.8219,0.898743
-1.80969,0.904846
-1.79596,0.901794
-1.78528,0.897217
-1.77765,0.897217
-1.76849,0.901794
-1.75934,0.901794
-1.75018,0.901794
-1.74561,0.897217
-1.73492,0.897217
-1.73187,0.898743
-1.72729,0.900269
-1.72272,0.898743
-1.71661,0.897217
-1.71509,0.897217
-1.71356,0.900269
-1.70593,0.906372
-1.70898,0.898743
-1.70135,0.895691
-1.69983,0.897217
-1.69983,0.897217
-1.69678,0.90332
-1.69983,0.897217
-1.69525,0.898743
-1.69983,0.895691
-1.69983,0.898743
-1.6983,0.898743
-1.70135,0.897217
-1.70288,0.895691
-1.70135,0.895691
-1.70593,0.895691
-1.70441,0.897217
-1.70441,0.897217
-1.71051,0.892639
-1.71356,0.894165
-1.71051,0.898743
-1.71356,0.894165
-1.71509,0.895691
-1.71661,0.894165
-1.72119,0.892639
-1.72119,0.897217
-1.72424,0.894165
-1.72577,0.895691
-1.72577,0.891113
-1.72577,0.897217
-1.73035,0.891113
-1.73187,0.895691
-1.73035,0.895691
-1.7334,0.894165
-1.73645,0.894165
-1.73798,0.892639
-1.74103,0.891113
-1.73645,0.892639
-1.73798,0.895691
-1.74255,0.892639
-1.73645,0.895691
-1.73798,0.889587
-1.73798,0.892639
-1.73645,0.886536
-1.73798,0.891113
-1.73798,0.892639
-1.73645,0.894165
-1.73645,0.892639
-1.73492,0.891113
-1.73492,0.886536
-1.73492,0.892639
-1.73187,0.891113
-1.73187,0.891113
-1.73187,0.886536
-1.7334,0.88501
-1.7334,0.889587
-1.73035,0.892639
-1.72577,0.892639
-1.72882,0.886536
-1.73035,0.891113
-1.72729,0.891113
-1.72729,0.892639
-1.72882,0.889587
-1.72882,0.88501
-1.73187,0.889587
-1.72882,0.886536
-1.73035,0.886536
-1.7334,0.889587
-1.73035,0.886536
-1.7334,0.889587
-1.7334,0.891113
-1.73798,0.889587
-1.73798,0.892639
-1.74408,0.886536
-1.74713,0.88501
-1.74561,0.886536
-1.75018,0.892639
-1.75476,0.88501
-1.75323,0.883484
-1.75781,0.883484
-1.76392,0.886536
-1.76697,0.889587
-1.76849,0.88501
-1.77612,0.88501
-1.77917,0.883484
-1.78223,0.886536
-1.78528,0.883484
-1.78986,0.88501
-1.79596,0.881958
-1.80359,0.883484
-1.80817,0.88501
-1.81122,0.88501
-1.81427,0.881958
-1.82037,0.881958
-1.8219,0.881958
-1.82495,0.886536
-1.82953,0.883484
-1.83258,0.88501
-1.83868,0.880432
-1.83868,0.878906
-1.84326,0.883484
-1.84631,0.881958
-1.85089,0.883484
-1.85547,0.878906
-1.86005,0.878906
-1.86157,0.883484
-1.87073,0.881958
-1.87073,0.880432
-1.87683,0.878906
-1.87836,0.880432
-1.87988,0.881958
-1.88599,0.880432
-1.88751,0.881958
-1.88751,0.878906
-1.89362,0.878906
-1.89819,0.880432
-1.89819,0.883484
-1.90735,0.881958
-1.90582,0.880432
-1.91193,0.878906
-1.91345,0.881958
-1.9165,0.880432
-1.92413,0.87738
-1.92719,0.875854
-1.93176,0.880432
-1.93787,0.880432
-1.94397,0.880432
-1.9455,0.880432
-1.95007,0.875854
-1.9516,0.874329
-1.95465,0.87738
-1.96228,0.875854
-1.96533,0.878906
-1.96686,0.878906
-1.97144,0.87738
-1.97449,0.878906
-1.97906,0.880432
-1.98517,0.87738
-1.98669,0.874329
-1.98669,0.875854
-1.99738,0.878906
-1.9989,0.878906
-2.00195,0.87738
-2.00195,0.874329
-2.00806,0.87738
-2.00348,0.87738
-2.01111,0.87738
-2.01263,0.87738
-2.01569,0.872803
-2.01874,0.872803
-2.02484,0.87738
-2.02637,0.878906
-2.02942,0.87738
-2.03552,0.872803
-2.03857,0.874329
-2.0401,0.875854
-2.04468,0.87738
-2.04773,0.875854
-2.05383,0.871277
-2.05688,0.871277
-2.05994,0.875854
-2.06299,0.875854
-2.06299,0.874329
-2.06757,0.871277
-2.07214,0.871277
-2.0752,0.874329
-2.07977,0.87738
-2.08435,0.871277
-2.08588,0.869751
-2.08893,0.872803
-2.09503,0.875854
-2.09961,0.874329
-2.09961,0.869751
-2.10724,0.868225
-2.11182,0.869751
-2.11334,0.869751
-2.12097,0.874329
-2.1225,0.871277
-2.12555,0.869751
-2.13013,0.868225
-2.13318,0.871277
-2.13623,0.872803
-2.14081,0.872803
-2.14844,0.869751
-2.15149,0.866699
-2.15454,0.871277
-2.16064,0.869751
-2.1637,0.872803
-2.1698,0.869751
-2.17743,0.868225
-2.18048,0.869751
-2.18048,0.871277
-2.18964,0.871277
-2.19269,0.866699
-2.19879,0.866699
-2.20184,0.871277
-2.20642,0.869751
-2.21405,0.869751
-2.2171,0.872803
-2.22168,0.871277
-2.22626,0.869751
-2.23083,0.869751
-2.23236,0.865173
-2.23389,0.868225
-2.23541,0.865173
-2.23541,0.872803
-2.23541,0.869751
-2.23389,0.868225
-2.23236,0.865173
-2.22626,0.865173
-2.22015,0.868225
-2.21558,0.866699
-2.20184,0.866699
-2.19421,0.865173
-2.18506,0.865173
-2.17133,0.866699
-2.16064,0.869751
-2.14539,0.866699
-2.13318,0.863647
-2.11639,0.866699
-2.09961,0.863647
-2.0813,0.869751
-2.06299,0.863647
-2.04773,0.862122
-2.02942,0.863647
-2.01263,0.865173
-1.99432,0.863647
-1.97296,0.865173
-1.95007,0.862122
-1.93024,0.857544
-1.91193,0.863647
-1.88904,0.865173
-1.87225,0.865173
-1.85547,0.862122
-1.83716,0.860596
-1.82037,0.866699
-1.80664,0.863647
-1.7868,0.860596
-1.77155,0.857544
-1.75629,0.860596
-1.74255,0.863647
-1.72882,0.862122
-1.71509,0.862122
-1.70135,0.862122
-1.68915,0.862122
-1.68304,0.862122
-1.67084,0.862122
-1.65863,0.862122
-1.65253,0.856018
-1.64337,0.854492
-1.63269,0.857544
-1.62659,0.862122
-1.62048,0.860596
-1.61591,0.860596
-1.6098,0.857544
-1.60065,0.863647
-1.59912,0.860596
-1.59302,0.857544
-1.58997,0.857544
-1.58844,0.862122
-1.58539,0.862122
-1.58234,0.857544
-1.57928,0.860596
-1.57623,0.856018
-1.57471,0.857544
-1.57318,0.856018
-1.57318,0.860596
-1.57166,0.860596
-1.57166,0.857544
-1.57318,0.852966
-1.57318,0.856018
-1.57318,0.860596
-1.57166,0.860596
-1.57013,0.857544
-1.57318,0.860596
-1.57166,0.856018
-1.57623,0.857544
-1.57471,0.857544
-1.57623,0.854492
-1.57623,0.854492
-1.57776,0.857544
-1.57776,0.857544
-1.58234,0.856018
-1.58691,0.854492
-1.58386,0.848389
-1.58539,0.856018
-1.58844,0.856018
-1.58844,0.854492
-1.58997,0.854492
-1.58997,0.852966
-1.59149,0.856018
-1.59302,0.856018
-1.59607,0.85144
-1.59302,0.852966
-1.59607,0.854492
-1.5976,0.856018
-1.5976,0.856018
-1.59912,0.856018
-1.59454,0.848389
-1.5976,0.854492
-1.59607,0.849915
-1.59302,0.849915
-1.59149,0.856018
-1.59302,0.852966
-1.59454,0.852966
-1.59302,0.85144
-1.59149,0.854492
-1.59302,0.856018
-1.59302,0.85144
-1.59302,0.85144
-1.59149,0.85144
-1.59149,0.849915
-1.59149,0.854492
-1.59149,0.854492
-1.59302,0.848389
-1.59302,0.85144
-1.59607,0.852966
-1.59302,0.852966
-1.59607,0.849915
-1.59912,0.85144
-1.59912,0.85144
-1.60217,0.852966
-1.6037,0.848389
-1.60828,0.848389
-1.60675,0.846863
-1.61133,0.849915
-1.61591,0.85144
-1.61591,0.849915
-1.61896,0.848389
-1.62201,0.849915
-1.62659,0.852966
-1.62811,0.848389
-1.63116,0.848389
-1.63574,0.848389
-1.63879,0.848389
-1.64185,0.849915
-1.64642,0.849915
-1.651,0.849915
-1.65558,0.848389
-1.6571,0.846863
-1.66168,0.85144
-1.66473,0.846863
-1.67236,0.849915
-1.67847,0.846863
-1.68304,0.846863
-1.69067,0.846863
-1.6922,0.85144
-1.6983,0.846863
-1.70593,0.848389
-1.71051,0.843811
-1.71814,0.849915
-1.72272,0.849915
-1.73187,0.848389
-1.73492,0.845337
-1.74255,0.842285
-1.74713,0.846863
-1.75171,0.846863
-1.75629,0.849915
-1.76086,0.845337
-1.76544,0.845337
-1.77307,0.849915
-1.77765,0.846863
-1.7807,0.846863
-1.78375,0.843811
-1.79138,0.842285
-1.79749,0.845337
-1.80359,0.846863
-1.80817,0.843811
-1.81274,0.846863
-1.81885,0.843811
-1.82343,0.843811
-1.82648,0.848389
-1.82953,0.845337
-1.83868,0.845337
-1.83868,0.843811
-1.84631,0.845337
-1.85089,0.845337
-1.85547,0.845337
-1.85852,0.843811
-1.8631,0.842285
-1.86768,0.843811
-1.87225,0.842285
-1.87988,0.842285
-1.88141,0.843811
-1.88904,0.842285
-1.88904,0.845337
-1.89209,0.843811
-1.89514,0.843811
-1.90277,0.843811
-1.90277,0.842285
-1.9043,0.843811
-1.91345,0.843811
-1.91193,0.845337
-1.91803,0.845337
-1.92261,0.842285
-1.93024,0.842285
-1.93024,0.843811
-1.93634,0.840759
-1.93481,0.840759
-1.94092,0.839233
-1.9455,0.842285
-1.94855,0.840759
-1.95313,0.842285
-1.95618,0.840759
-1.96228,0.842285
-1.96686,0.840759
-1.96838,0.842285
-1.97601,0.842285
-1.97601,0.840759
-1.98212,0.839233
-1.98517,0.842285
-1.98822,0.843811
-1.99738,0.845337
-2.00043,0.839233
-2.00806,0.842285
-2.00958,0.843811
-2.01416,0.843811
-2.02179,0.840759
-2.02789,0.839233
-2.03094,0.834656
-2.03705,0.843811
-2.04163,0.840759
-2.0462,0.839233
-2.04926,0.839233
-2.05231,0.836182
-2.05994,0.840759
-2.06146,0.843811
-2.06604,0.840759
-2.06909,0.837708
-2.07214,0.839233
-2.07825,0.837708
-2.07977,0.839233
-2.08893,0.840759
-2.09198,0.839233
-2.09656,0.836182
-2.09808,0.840759
-2.10571,0.839233
-2.11029,0.840759
-2.11182,0.840759
-2.11639,0.837708
-2.1225,0.840759
-2.12555,0.839233
-2.13165,0.836182
-2.13318,0.836182
-2.13623,0.836182
-2.13928,0.837708
-2.14386,0.836182
-2.14844,0.836182
-2.15302,0.836182
-2.15912,0.834656
-2.15607,0.839233
-2.16217,0.840759
-2.16827,0.837708
-2.17285,0.837708
-2.1759,0.834656
-2.18353,0.839233
-2.18811,0.837708
-2.18964,0.836182
-2.19421,0.830078
-2.20184,0.836182
-2.2049,0.837708
-2.211,0.836182
-2.21405,0.836182
-2.21558,0.834656
-2.22473,0.83313
-2.22473,0.836182
-2.22321,0.837708
-2.22626,0.834656
-2.22778,0.834656
-2.22778,0.830078
-2.22626,0.836182
-2.22168,0.836182
-2.21863,0.836182
-2.211,0.834656
-2.20642,0.83313
-2.19574,0.837708
-2.18811,0.836182
-2.18048,0.837708
-2.16675,0.83313
-2.15454,0.83313
-2.14233,0.834656
-2.1286,0.834656
-2.11182,0.83313
-2.09808,0.834656
-2.07977,0.830078
-2.05994,0.830078
-2.04315,0.834656
-2.02789,0.83313
-2.01263,0.83313
-1.98975,0.830078
-1.96991,0.834656
-1.95007,0.834656
-1.93481,0.828552
-1.91193,0.827026
-1.89362,0.828552
-1.87378,0.830078
-1.85852,0.830078
-1.84021,0.83313
-1.82648,0.830078
-1.81122,0.830078
-1.79138,0.830078
-1.77917,0.834656
-1.76544,0.830078
-1.75323,0.83313
-1.74561,0.830078
-1.73187,0.834656
-1.71814,0.834656
-1.71356,0.830078
-1.70441,0.828552
-1.69525,0.8255
-1.68762,0.830078
-1.68152,0.83313
-1.67236,0.827026
-1.67084,0.827026
-1.66321,0.8255
-1.66016,0.83313
-1.65253,0.830078
-1.65253,0.827026
-1.64948,0.827026
-1.64032,0.823975
-1.64032,0.830078
-1.63879,0.83313
-1.64032,0.83313
-1.63574,0.827026
-1.63574,0.828552
-1.63422,0.828552
-1.63269,0.830078
-1.63422,0.827026
-1.63422,0.8255
-1.63269,0.827026
-1.63116,0.828552
-1.63574,0.83313
-1.63879,0.828552
-1.64032,0.8255
-1.64337,0.8255
-1.64642,0.8255
-1.651,0.828552
-1.65405,0.830078
-1.65558,0.827026
-1.65863,0.8255
-1.65863,0.828552
-1.66168,0.830078
-1.66321,0.8255
-1.66626,0.8255
-1.66779,0.827026
-1.67236,0.827026
-1.67694,0.8255
-1.67389,0.827026
-1.67999,0.8255
-1.68152,0.828552
-1.6861,0.830078
-1.68457,0.830078
-1.68457,0.827026
-1.68915,0.8255
-1.68762,0.823975
-1.68762,0.8255
-1.68915,0.830078
-1.68762,0.828552
-1.69067,0.823975
-1.68915,0.820923
-1.68915,0.830078
-1.6922,0.827026
-1.68915,0.827026
-1.68915,0.827026
-1.68915,0.8255
-1.68915,0.827026
-1.68915,0.828552
-1.68762,0.823975
-1.6861,0.8255
-1.6861,0.823975
-1.6861,0.8255
-1.68762,0.828552
-1.68915,0.823975
-1.68762,0.823975
-1.68762,0.8255
-1.6861,0.828552
-1.68915,0.827026
-1.68762,0.823975
-1.6922,0.823975
-1.69373,0.822449
-1.69067,0.8255
-1.69373,0.827026
-1.69678,0.822449
-1.69983,0.823975
-1.70288,0.822449
-1.69983,0.8255
-1.70441,0.8255
-1.70288,0.827026
-1.70898,0.822449
-1.71356,0.8255
-1.71509,0.8255
-1.71814,0.827026
-1.72424,0.828552
-1.73035,0.822449
-1.73187,0.822449
-1.73492,0.823975
-1.74103,0.823975
-1.74561,0.823975
-1.75018,0.822449
-1.75323,0.822449
-1.75476,0.820923
-1.75934,0.8255
-1.76849,0.8255
-1.7746,0.822449
-1.77765,0.817871
-1.7807,0.823975
-1.7868,0.822449
-1.7868,0.8255
-1.79749,0.819397
-1.80511,0.820923
-1.80664,0.820923
-1.81274,0.823975
-1.81732,0.822449
-1.82343,0.820923
-1.83105,0.819397
-1.83716,0.819397
-1.84326,0.823975
-1.84937,0.822449
-1.85242,0.817871
-1.86005,0.819397
-1.86157,0.819397
-1.86768,0.822449
-1.87073,0.819397
-1.87683,0.820923
-1.87836,0.819397
-1.88141,0.819397
-1.88751,0.822449
-1.89514,0.823975
-1.89514,0.819397
-1.90125,0.817871
-1.90582,0.820923
-1.90887,0.823975
-1.91193,0.819397
-1.91345,0.817871
-1.91956,0.820923
-1.92413,0.819397
-1.93024,0.820923
-1.93481,0.819397
-1.93939,0.816345
-1.94397,0.819397
-1.94702,0.819397
-1.95007,0.823975
-1.95618,0.819397
-1.96381,0.820923
-1.96533,0.819397
-1.96991,0.820923
-1.97754,0.820923
-1.97906,0.817871
-1.98517,0.817871
-1.98975,0.819397
-1.99585,0.819397
-1.9989,0.819397
-2.00653,0.819397
-2.01111,0.819397
-2.01263,0.816345
-2.01721,0.819397
-2.02179,0.820923
-2.02484,0.817871
-2.02942,0.817871
-2.03857,0.817871
-2.03857,0.819397
-2.04315,0.820923
-2.0462,0.819397
-2.04773,0.817871
-2.05688,0.819397
-2.05383,0.819397
-2.05841,0.820923
-2.06451,0.822449
-2.06757,0.819397
-2.07062,0.814819
-2.07367,0.816345
-2.07672,0.817871
-2.08282,0.816345
-2.09198,0.817871
-2.09351,0.814819
-2.09808,0.819397
-2.09961,0.819397
-2.10266,0.816345
-2.11029,0.819397
-2.11182,0.816345
-2.11334,0.819397
-2.11945,0.817871
-2.12402,0.816345
-2.12708,0.819397
-2.13013,0.817871
-2.1347,0.816345
-2.13776,0.820923
-2.14233,0.816345
-2.14691,0.816345
-2.15607,0.814819
-2.16064,0.814819
-2.16217,0.817871
-2.16675,0.817871
-2.17133,0.816345
-2.17743,0.813293
-2.18048,0.816345
-2.18506,0.817871
-2.19116,0.814819
-2.19421,0.814819
-2.19727,0.817871
-2.20337,0.814819
-2.20795,0.817871
-2.211,0.816345
-2.21863,0.811768
-2.22473,0.811768
-2.22778,0.813293
-2.23236,0.814819
-2.23541,0.816345
-2.24152,0.810242
-2.24609,0.813293
-2.25067,0.816345
-2.25525,0.816345
-2.25983,0.814819
-2.26288,0.814819
-2.27051,0.813293
-2.27509,0.814819
-2.27356,0.817871
-2.27814,0.817871
-2.27509,0.814819
-2.27356,0.811768
-2.27356,0.814819
-2.27051,0.814819
-2.26746,0.816345
-2.26288,0.813293
-2.25983,0.814819
-2.2522,0.816345
-2.23999,0.814819
-2.23083,0.813293
-2.21558,0.816345
-2.20337,0.811768
-2.18964,0.813293
-2.17896,0.814819
-2.15912,0.816345
-2.14233,0.814819
-2.12555,0.811768
-2.10724,0.813293
-2.08435,0.816345
-2.06299,0.814819
-2.0401,0.813293
-2.01721,0.811768
-1.99585,0.811768
-1.96991,0.816345
-1.9455,0.816345
-1.92108,0.813293
-1.89819,0.811768
-1.87378,0.814819
-1.84937,0.817871
-1.82648,0.811768
-1.80054,0.813293
-1.78223,0.813293
-1.75781,0.814819
-1.74255,0.819397
-1.71967,0.816345
-1.70135,0.816345
-1.6861,0.811768
-1.66779,0.813293
-1.65253,0.816345
-1.63422,0.814819
-1.62048,0.814819
-1.60675,0.813293
-1.5976,0.814819
-1.58844,0.813293
-1.57471,0.811768
-1.56403,0.813293
-1.5564,0.813293
-1.55029,0.811768
-1.54114,0.813293
-1.53351,0.814819
-1.5274,0.810242
-1.52283,0.813293
-1.51672,0.811768
-1.51062,0.813293
-1.50909,0.811768
-1.50604,0.810242
-1.50452,0.811768
-1.49841,0.810242
-1.49689,0.811768
-1.49384,0.813293
-1.49384,0.808716
-1.49231,0.810242
-1.48926,0.811768
-1.48926,0.810242
-1.48926,0.810242
-1.48773,0.813293
-1.49078,0.811768
-1.48773,0.813293
-1.49078,0.814819
-1.49078,0.813293
-1.49384,0.813293
-1.49536,0.810242
-1.49536,0.810242
-1.49841,0.811768
-1.50146,0.80719
-1.50146,0.808716
-1.50299,0.810242
-1.50604,0.810242
-1.50757,0.814819
-1.51062,0.810242
-1.50909,0.811768
-1.51215,0.810242
-1.51215,0.814819
-1.51672,0.813293
-1.5213,0.811768
-1.52283,0.808716
-1.52283,0.808716
-1.52435,0.810242
-1.5274,0.811768
-1.52435,0.810242
-1.5274,0.810242
-1.5274,0.810242
-1.52588,0.811768
-1.52893,0.813293
-1.52588,0.813293
-1.5274,0.808716
-1.5274,0.814819
-1.5274,0.814819
-1.52893,0.814819
-1.53046,0.80719
-1.52893,0.811768
-1.5274,0.805664
-1.52893,0.810242
-1.5274,0.810242
-1.52893,0.813293
-1.53046,0.805664
-1.53046,0.808716
-1.53046,0.810242
-1.53046,0.811768
-1.53198,0.808716
-1.53351,0.808716
-1.53656,0.810242
-1.53503,0.811768
-1.53656,0.810242
-1.53656,0.813293
-1.53809,0.811768
-1.54266,0.810242
-1.54266,0.808716
-1.54266,0.813293
-1.55029,0.813293
-1.55182,0.814819
-1.55334,0.808716
-1.55792,0.811768
-1.55945,0.810242
-1.56555,0.811768
-1.5686,0.808716
-1.57318,0.805664
-1.57623,0.808716
-1.57928,0.811768
-1.58386,0.808716
-1.58539,0.808716
-1.59149,0.80719
-1.59607,0.811768
-1.59912,0.811768
-1.60522,0.811768
-1.60828,0.811768
-1.61591,0.80719
-1.61591,0.810242
-1.62354,0.810242
-1.62506,0.810242
-1.63269,0.810242
-1.63574,0.808716
-1.64337,0.805664
-1.64948,0.810242
-1.65253,0.80719
-1.66016,0.808716
-1.66321,0.80719
-1.67236,0.808716
-1.67694,0.811768
-1.68457,0.808716
-1.6861,0.808716
-1.69525,0.80719
-1.70135,0.811768
-1.70898,0.813293
-1.71051,0.808716
-1.71967,0.80719
-1.72577,0.805664
-1.72729,0.811768
-1.73492,0.811768
-1.73798,0.810242
-1.74713,0.810242
-1.75323,0.808716
-1.75781,0.811768
-1.76239,0.810242
-1.76544,0.808716
-1.77155,0.810242
-1.77612,0.805664
-1.78223,0.80719
-1.78833,0.808716
-1.79291,0.810242
-1.80054,0.808716
-1.80054,0.80719
-1.80817,0.80719
-1.81122,0.813293
-1.81274,0.808716
-1.81885,0.808716
-1.82343,0.80719
-1.828,0.808716
-1.83258,0.808716
-1.84021,0.805664
-1.84479,0.80719
-1.84937,0.80719
-1.85394,0.805664
-1.86005,0.810242
-1.8631,0.808716
-1.8692,0.804138
-1.87836,0.80719
-1.88141,0.808716
-1.88599,0.811768
-1.89056,0.80719
-1.89362,0.80719
-1.90125,0.80719
-1.9043,0.810242
-1.91193,0.811768
-1.91803,0.808716
-1.92413,0.808716
-1.93024,0.805664
-1.93787,0.810242
-1.94397,0.810242
-1.95007,0.810242
-1.9577,0.808716
-1.96381,0.805664
-1.96991,0.810242
-1.97601,0.810242
-1.97906,0.810242
-1.98517,0.80719
-1.9928,0.805664
-1.9989,0.810242
-2.00348,0.813293
-2.00653,0.805664
-2.01416,0.805664
-2.02026,0.804138
-2.02637,0.808716
-2.03247,0.808716
-2.03552,0.80719
-2.03705,0.80719
-2.04468,0.80719
-2.04926,0.808716
-2.05383,0.808716
-2.06146,0.805664
-2.06604,0.810242
-2.07062,0.804138
-2.07672,0.808716
-2.08588,0.810242
-2.09198,0.811768
-2.09656,0.805664
-2.10114,0.808716
-2.10724,0.80719
-2.11029,0.80719
-2.11945,0.814819
-2.12555,0.808716
-2.13013,0.804138
-2.13623,0.805664
-2.14386,0.80719
-2.14691,0.811768
-2.15302,0.808716
-2.15912,0.801086
-2.16217,0.810242
-2.1698,0.80719
-2.17133,0.80719
-2.17743,0.808716
-2.18811,0.810242
-2.19116,0.808716
-2.19727,0.810242
-2.20184,0.80719
-2.20795,0.80719
-2.21405,0.805664
-2.211,0.805664
-2.22015,0.80719
-2.22626,0.808716
-2.23236,0.810242
-2.23389,0.805664
-2.23541,0.808716
-2.23846,0.808716
-2.23694,0.808716
-2.23999,0.808716
-2.23694,0.805664
-2.23389,0.80719
-2.22626,0.810242
-2.21863,0.808716
-2.21558,0.80719
-2.2049,0.80719
-2.19269,0.808716
-2.18048,0.805664
-2.16522,0.810242
-2.14844,0.80719
-2.13318,0.808716
-2.11487,0.810242
-2.09503,0.808716
-2.0752,0.80719
-2.05078,0.80719
-2.02942,0.80719
-2.00653,0.810242
-1.98059,0.805664
-1.95465,0.80719
-1.92719,0.804138
-1.90125,0.805664
-1.87378,0.80719
-1.84784,0.80719
-1.82343,0.805664
-1.79291,0.805664
-1.76849,0.804138
-1.74408,0.805664
-1.71814,0.80719
-1.69525,0.808716
-1.67694,0.808716
-1.65405,0.801086
-1.63269,0.808716
-1.61438,0.80719
-1.59454,0.810242
-1.57776,0.80719
-1.56097,0.80719
-1.55182,0.808716
-1.53351,0.810242
-1.52435,0.80719
-1.51062,0.805664
-1.50146,0.80719
-1.48926,0.80719
-1.48163,0.810242
-1.47247,0.808716
-1.4679,0.805664
-1.46027,0.804138
-1.45569,0.808716
-1.44653,0.808716
-1.44196,0.805664
-1.43738,0.805664
-1.43433,0.805664
-1.4328,0.810242
-1.42822,0.80719
-1.42975,0.805664
-1.42822,0.80719
-1.42822,0.805664
-1.4267,0.808716
-1.42059,0.805664
-1.4267,0.80719
-1.42822,0.80719
-1.42975,0.801086
-1.43127,0.808716
-1.4328,0.80719
-1.43433,0.810242
-1.44043,0.805664
-1.44348,0.804138
-1.44501,0.804138
-1.45111,0.810242
-1.45569,0.805664
-1.46179,0.805664
-1.46484,0.80719
-1.47095,0.80719
-1.474,0.811768
-1.4801,0.808716
-1.48468,0.80719
-1.48773,0.80719
-1.49384,0.808716
-1.49536,0.811768
-1.50146,0.811768
-1.50452,0.80719
-1.50909,0.808716
-1.50909,0.810242
-1.51978,0.810242
-1.5213,0.810242
-1.52435,0.80719
-1.5274,0.80719
-1.52893,0.808716
-1.53351,0.810242
-1.53198,0.811768
-1.53503,0.80719
-1.53809,0.810242
-1.53809,0.80719
-1.54114,0.811768
-1.54419,0.805664
-1.54572,0.80719
-1.54572,0.80719
-1.54724,0.80719
-1.55334,0.808716
-1.55334,0.811768
-1.55182,0.811768
-1.5564,0.810242
-1.5564,0.810242
-1.55487,0.810242
-1.5564,0.808716
-1.5564,0.808716
-1.55792,0.80719
-1.5564,0.810242
-1.56097,0.811768
-1.55792,0.810242
-1.56097,0.810242
-1.56097,0.80719
-1.5625,0.810242
-1.56555,0.813293
-1.56708,0.813293
-1.57318,0.810242
-1.57776,0.810242
-1.57623,0.808716
-1.58234,0.813293
-1.58691,0.810242
-1.58997,0.810242
-1.59454,0.810242
-1.59607,0.810242
-1.60065,0.811768
-1.6098,0.811768
-1.61896,0.811768
-1.61896,0.808716
-1.62354,0.811768
-1.62964,0.814819
-1.63574,0.811768
-1.64032,0.811768
-1.64642,0.810242
-1.64948,0.813293
-1.65558,0.810242
-1.66168,0.811768
-1.66626,0.813293
-1.67084,0.810242
-1.67847,0.810242
-1.68304,0.813293
-1.69067,0.811768
-1.69983,0.810242
-1.70593,0.811768
-1.71051,0.813293
-1.71967,0.814819
-1.72577,0.813293
-1.73187,0.811768
-1.73645,0.813293
-1.74255,0.808716
-1.75018,0.811768
-1.75629,0.814819
-1.76239,0.811768
-1.76544,0.813293
-1.7746,0.811768
-1.77917,0.814819
-1.7868,0.816345
-1.79138,0.814819
-1.79138,0.813293
-1.80054,0.813293
-1.80664,0.814819
-1.80969,0.814819
-1.8158,0.814819
-1.82037,0.811768
-1.82495,0.816345
-1.83105,0.819397
-1.83563,0.816345
-1.84174,0.817871
-1.84784,0.811768
-1.85242,0.813293
-1.85852,0.816345
-1.8631,0.816345
-1.8692,0.814819
-1.87225,0.811768
-1.87836,0.814819
-1.88446,0.817871
-1.89362,0.816345
-1.89819,0.816345
-1.90277,0.811768
-1.90887,0.816345
-1.91498,0.817871
-1.91956,0.819397
-1.92413,0.814819
-1.93329,0.814819
-1.93787,0.814819
-1.94092,0.817871
-1.9455,0.819397
-1.95007,0.819397
-1.95465,0.814819
-1.95923,0.816345
-1.96686,0.817871
-1.97296,0.819397
-1.97601,0.816345
-1.98212,0.814819
-1.98364,0.817871
-1.98822,0.820923
-1.99585,0.819397
-2.00195,0.817871
-2.00348,0.814819
-2.00806,0.817871
-2.01569,0.914001
-2.01874,0.817871
-2.02942,0.819397
-2.03247,0.814819
-2.03857,0.817871
-2.04315,0.819397
-2.04926,0.820923
-2.05841,0.819397
-2.06146,0.817871
-2.07062,0.814819
-2.07062,0.817871
-2.07672,0.817871
-2.0813,0.817871
-2.08893,0.817871
-2.09198,0.820923
-2.09961,0.820923
-2.10114,0.823975
-2.11182,0.817871
-2.10876,0.819397
-2.11029,0.819397
-2.11487,0.822449
-2.11029,0.817871
-2.11029,0.819397
-2.10876,0.819397
-2.10571,0.819397
-2.09808,0.822449
-2.09351,0.822449
-2.08282,0.819397
-2.07062,0.817871
-2.05994,0.819397
-2.0462,0.822449
-2.03552,0.822449
-2.01874,0.820923
-1.9989,0.819397
-1.98059,0.817871
-1.96228,0.819397
-1.93787,0.822449
-1.92108,0.820923
-1.89514,0.816345
-1.87683,0.820923
-1.85242,0.820923
-1.82648,0.820923
-1.80664,0.823975
-1.7807,0.822449
-1.75934,0.822449
-1.74103,0.819397
-1.71509,0.822449
-1.69373,0.820923
-1.67084,0.819397
-1.651,0.819397
-1.63116,0.822449
-1.61438,0.822449
-1.59607,0.817871
-1.57776,0.822449
-1.56555,0.819397
-1.55182,0.820923
-1.53961,0.820923
-1.52893,0.820923
-1.5213,0.817871
-1.51062,0.822449
-1.49994,0.820923
-1.49231,0.822449
-1.48926,0.820923
-1.48163,0.822449
-1.4801,0.820923
-1.474,0.822449
-1.47095,0.820923
-1.46942,0.819397
-1.46484,0.819397
-1.46332,0.820923
-1.46332,0.822449
-1.46027,0.822449
-1.46332,0.822449
-1.46332,0.817871
-1.46484,0.823975
-1.46637,0.823975
-1.4679,0.823975
-1.46942,0.822449
-1.474,0.819397
-1.47552,0.820923
-1.47858,0.8255
-1.48163,0.8255
-1.49078,0.822449
-1.49841,0.817871
-1.49841,0.820923
-1.50604,0.8255
-1.51062,0.8255
-1.51367,0.823975
-1.52283,0.820923
-1.5274,0.819397
-1.53198,0.822449
-1.53656,0.8255
-1.54266,0.822449
-1.54572,0.819397
-1.55334,0.822449
-1.55792,0.820923
-1.56097,0.823975
-1.5625,0.822449
-1.57013,0.820923
-1.57471,0.820923
-1.57776,0.820923
-1.58234,0.823975
-1.58386,0.822449
-1.58844,0.820923
-1.58997,0.822449
-1.59302,0.823975
-1.59454,0.827026
-1.59454,0.822449
-1.59607,0.820923
-1.5976,0.820923
-1.60217,0.823975
-1.59912,0.823975
-1.6037,0.827026
-1.60675,0.820923
-1.6098,0.820923
-1.60675,0.8255
-1.61133,0.8255
-1.60828,0.822449
-1.61438,0.822449
-1.61743,0.823975
-1.61743,0.823975
-1.61896,0.8255
-1.61896,0.823975
-1.62201,0.819397
-1.62048,0.823975
-1.62354,0.823975
-1.62659,0.827026
-1.62811,0.819397
-1.63116,0.822449
-1.63574,0.822449
-1.64032,0.823975
-1.63879,0.823975
-1.64185,0.823975
-1.64337,0.820923
-1.65405,0.823975
-1.65558,0.8255
-1.65863,0.822449
-1.66626,0.820923
-1.67084,0.823975
-1.67847,0.823975
-1.68152,0.822449
-1.68762,0.8255
-1.69525,0.822449
-1.69983,0.819397
-1.70288,0.819397
-1.71051,0.8255
-1.71509,0.827026
-1.71814,0.8255
-1.72882,0.822449
-1.73035,0.822449
-1.73645,0.822449
-1.74866,0.823975
-1.75476,0.823975
-1.76239,0.822449
-1.77155,0.823975
-1.77155,0.8255
-1.78223,0.827026
-1.79138,0.822449
-1.79443,0.822449
-1.80054,0.823975
-1.80969,0.823975
-1.81732,0.822449
-1.81885,0.822449
-1.8219,0.822449
-1.83258,0.820923
-1.83716,0.822449
-1.84326,0.8255
-1.85089,0.823975
-1.85547,0.820923
-1.86157,0.822449
-1.8692,0.820923
-1.87531,0.8255
-1.87988,0.820923
-1.88599,0.820923
-1.88751,0.822449
-1.89819,0.822449
-1.90125,0.823975
-1.90735,0.823975
-1.91345,0.820923
-1.91803,0.822449
-1.91803,0.823975
-1.92719,0.827026
-1.93481,0.823975
-1.93939,0.823975
-1.94702,0.8255
-1.95007,0.822449
-1.95465,0.8255
-1.96228,0.8255
-1.96686,0.820923
-1.97601,0.822449
-1.97754,0.8255
-1.98212,0.823975
-1.98822,0.8255
-1.9989,0.822449
-2.00043,0.822449
-2.005,0.8255
-2.01111,0.8255
-2.01416,0.8255
-2.01874,0.822449
-2.02484,0.822449
-2.03094,0.827026
-2.034,0.8255
-2.03857,0.8255
-2.04468,0.822449
-2.04773,0.820923
-2.04926,0.820923
-2.05841,0.827026
-2.06299,0.8255
-2.06909,0.8255
-2.07367,0.822449
-2.07825,0.823975
-2.08435,0.823975
-2.09198,0.823975
-2.09503,0.820923
-2.10266,0.820923
-2.10724,0.823975
-2.11029,0.8255
-2.11945,0.822449
-2.12555,0.819397
-2.12708,0.8255
-2.13318,0.822449
-2.14081,0.8255
-2.14386,0.822449
-2.14844,0.822449
-2.15454,0.823975
-2.16217,0.823975
-2.16675,0.8255
-2.1698,0.822449
-2.17438,0.823975
-2.17896,0.819397
-2.18353,0.8255
-2.18811,0.823975
-2.19116,0.823975
-2.19421,0.819397
-2.19574,0.819397
-2.19574,0.823975
-2.19269,0.822449
-2.19116,0.822449
-2.18658,0.817871
-2.18048,0.820923
-2.17896,0.823975
-2.16827,0.823975
-2.16064,0.822449
-2.15302,0.819397
-2.14081,0.820923
-2.12708,0.820923
-2.11182,0.822449
-2.09656,0.820923
-2.07977,0.820923
-2.05994,0.822449
-2.04468,0.8255
-2.02179,0.8255
-2.00653,0.822449
-1.98669,0.822449
-1.96838,0.820923
-1.94397,0.820923
-1.92413,0.8255
-1.90125,0.823975
-1.88599,0.819397
-1.86462,0.822449
-1.84479,0.820923
-1.828,0.823975
-1.80969,0.820923
-1.79749,0.822449
-1.78375,0.822449
-1.76697,0.822449
-1.75629,0.822449
-1.74255,0.822449
-1.73035,0.819397
-1.71814,0.823975
-1.70441,0.822449
-1.6983,0.822449
-1.68915,0.820923
-1.68152,0.819397
-1.67389,0.817871
-1.66626,0.823975
-1.66321,0.823975
-1.65558,0.820923
-1.65405,0.819397
-1.64948,0.817871
-1.64795,0.822449
-1.64185,0.819397
-1.63879,0.819397
-1.63879,0.817871
-1.63422,0.819397
-1.63574,0.822449
-1.63574,0.820923
-1.63269,0.817871
-1.63422,0.820923
-1.63269,0.820923
-1.63269,0.820923
-1.62964,0.820923
-1.63422,0.8255
-1.63422,0.820923
-1.63574,0.819397
-1.63422,0.822449
-1.63727,0.820923
-1.64185,0.820923
-1.64337,0.819397
-1.64795,0.819397
-1.65405,0.823975
-1.65863,0.822449
-1.66168,0.820923
-1.66473,0.819397
-1.66779,0.820923
-1.67084,0.819397
-1.67389,0.819397
-1.68304,0.816345
-1.68457,0.816345
-1.68762,0.820923
-1.69373,0.820923
-1.69678,0.819397
-1.69983,0.817871
-1.70135,0.822449
-1.70898,0.822449
-1.71051,0.819397
-1.71509,0.819397
-1.71967,0.820923
-1.71967,0.816345
-1.72272,0.819397
-1.72577,0.820923
-1.72729,0.820923
-1.72882,0.819397
-1.73187,0.816345
-1.73492,0.817871
-1.73492,0.820923
-1.74103,0.817871
-1.74255,0.814819
-1.74408,0.817871
-1.74713,0.814819
-1.74866,0.820923
-1.75018,0.819397
-1.75323,0.819397
-1.75781,0.817871
-1.75629,0.816345
-1.75476,0.819397
-1.75934,0.820923
-1.76086,0.819397
-1.76544,0.814819
-1.76544,0.817871
-1.77307,0.819397
-1.77612,0.819397
-1.77765,0.816345
-1.77917,0.814819
-1.78223,0.816345
-1.78528,0.817871
-1.79291,0.816345
-1.79443,0.817871
-1.79901,0.814819
-1.80511,0.814819
-1.80969,0.816345
-1.80969,0.817871
-1.8158,0.820923
-1.81885,0.817871
-1.8219,0.816345
-1.82648,0.817871
-1.82953,0.820923
-1.83868,0.819397
-1.84021,0.814819
-1.84631,0.816345
-1.84937,0.817871
-1.85547,0.817871
-1.85699,0.817871
-1.86005,0.813293
-1.86768,0.816345
-1.8692,0.816345
-1.87225,0.817871
-1.87836,0.817871
-1.88293,0.814819
-1.89056,0.817871
-1.89514,0.819397
-1.90125,0.817871
-1.90582,0.820923
-1.91345,0.814819
-1.91956,0.814819
-1.92719,0.814819
-1.93176,0.816345
-1.93634,0.816345
-1.94244,0.814819
-1.9516,0.814819
-1.9577,0.816345
-1.96533,0.819397
-1.97449,0.816345
-1.97754,0.811768
-1.98212,0.811768
-1.98975,0.817871
-1.9989,0.820923
-2.00653,0.816345
-2.01111,0.810242
-2.01416,0.814819
-2.01874,0.814819
-2.02789,0.814819
-2.034,0.816345
-2.04163,0.811768
-2.04468,0.813293
-2.05078,0.816345
-2.05994,0.813293
-2.06299,0.813293
-2.07062,0.813293
-2.0752,0.814819
-2.07825,0.816345
-2.08893,0.814819
-2.09045,0.816345
-2.09503,0.810242
-2.10571,0.811768
-2.10419,0.811768
-2.11334,0.814819
-2.11639,0.814819
-2.12097,0.808716
-2.12708,0.814819
-2.13013,0.810242
-2.13623,0.811768
-2.13776,0.811768
-2.14233,0.810242
-2.14386,0.813293
-2.14844,0.811768
-2.15149,0.816345
-2.15759,0.811768
-2.16064,0.810242
-2.16217,0.811768
-2.17133,0.813293
-2.17438,0.817871
-2.18353,0.813293
-2.18353,0.811768
-2.18964,0.810242
-2.19421,0.813293
-2.19727,0.814819
-2.20032,0.811768
-2.2049,0.814819
-2.20795,0.813293
-2.21558,0.813293
-2.22321,0.813293
-2.22931,0.808716
-2.23083,0.808716
-2.22931,0.811768
-2.23236,0.811768
-2.23999,0.814819
-2.24762,0.813293
-2.25067,0.808716
-2.25525,0.810242
-2.2583,0.813293
-2.26288,0.810242
-2.2644,0.810242
-2.27203,0.80719
-2.27814,0.810242
-2.28424,0.811768
-2.28729,0.813293
-2.29187,0.810242
-2.29492,0.813293
-2.29797,0.811768
-2.30255,0.813293
-2.30408,0.813293
-2.30713,0.811768
-2.31171,0.810242
-2.31934,0.810242
-2.31934,0.813293
-2.32239,0.813293
-2.32849,0.811768
-2.33459,0.808716
-2.33612,0.810242
-2.33765,0.810242
-2.3468,0.811768
-2.35138,0.810242
-2.35443,0.810242
-2.35443,0.811768
-2.36359,0.811768
-2.36359,0.810242
-2.36359,0.810242
-2.36816,0.808716
-2.37274,0.810242
-2.37579,0.814819
-2.38342,0.811768
-2.38495,0.813293
-2.388,0.810242
-2.39105,0.810242
-2.39563,0.808716
-2.40021,0.808716
-2.40631,0.810242
-2.40479,0.810242
-2.40936,0.811768
-2.40936,0.813293
-2.41089,0.811768
-2.41089,0.808716
-2.40936,0.808716
-2.40479,0.810242
-2.40479,0.810242
-2.39716,0.80719
-2.39258,0.808716
-2.38342,0.805664
-2.37579,0.810242
-2.36511,0.804138
-2.35443,0.80719
-2.34375,0.810242
-2.33002,0.805664
-2.31934,0.810242
-2.30255,0.808716
-2.28882,0.808716
-2.27203,0.811768
-2.25372,0.805664
-2.23846,0.808716
-2.22168,0.810242
-2.20337,0.811768
-2.18811,0.810242
-2.17133,0.808716
-2.15607,0.810242
-2.14081,0.80719
-2.12708,0.808716
-2.11182,0.804138
-2.09808,0.80719
-2.0813,0.80719
-2.06757,0.808716
-2.05994,0.810242
-2.04773,0.80719
-2.03857,0.80719
-2.02484,0.808716
-2.01416,0.80719
-2.005,0.808716
-2.00195,0.80719
-1.99738,0.804138
-1.98669,0.808716
-1.97906,0.80719
-1.97601,0.811768
-1.97144,0.80719
-1.96991,0.80719
-1.96686,0.80719
-1.95923,0.808716
-1.9577,0.80719
-1.95618,0.805664
-1.9516,0.808716
-1.9516,0.805664
-1.95007,0.808716
-1.94855,0.808716
-1.94855,0.805664
-1.9455,0.805664
-1.9455,0.80719
-1.94397,0.80719
-1.94702,0.805664
-1.93939,0.805664
-1.94397,0.808716
-1.94244,0.805664
-1.94092,0.80719
-1.9455,0.80719
-1.94397,0.80719
-1.94855,0.805664
-1.94855,0.808716
-1.95007,0.804138
-1.95007,0.80719
-1.95313,0.805664
-1.95465,0.805664
-1.9577,0.805664
-1.95923,0.810242
-1.96228,0.80719
-1.96838,0.808716
-1.97144,0.799561
-1.97296,0.805664
-1.97449,0.810242
-1.97601,0.805664
-1.97906,0.805664
-1.98059,0.804138
-1.98364,0.805664
-1.98669,0.808716
-1.98975,0.804138
-1.98975,0.804138
-1.98975,0.798035
-1.98975,0.80719
-1.9928,0.804138
-1.9928,0.805664
-1.9928,0.80719
-1.99585,0.799561
-1.99432,0.801086
-1.9928,0.805664
-1.98975,0.805664
-1.9928,0.805664
-1.98975,0.801086
-1.98975,0.804138
-1.98822,0.805664
-1.98822,0.805664
-1.98517,0.804138
-1.98822,0.799561
-1.98822,0.805664
-1.98669,0.80719
-1.98822,0.805664
-1.98364,0.801086
-1.98364,0.805664
-1.98669,0.799561
-1.98517,0.805664
-1.98364,0.805664
-1.98517,0.80719
-1.98517,0.801086
-1.98669,0.804138
-1.98669,0.804138
-1.98822,0.80719
-1.98822,0.80719
-1.98669,0.801086
-1.98822,0.804138
-1.98669,0.804138
-1.98975,0.801086
-1.99432,0.805664
-1.9928,0.804138
-1.99432,0.805664
-1.99738,0.799561
-1.99738,0.80719
-2.00043,0.80719
-2.00348,0.801086
-2.005,0.801086
-2.005,0.80719
-2.01263,0.801086
-2.01416,0.804138
-2.01721,0.799561
-2.02026,0.804138
-2.02484,0.805664
-2.034,0.804138
-2.03552,0.805664
-2.03857,0.801086
-2.04163,0.801086
-2.04315,0.801086
-2.0462,0.801086
-2.04926,0.80719
-2.05231,0.799561
-2.05688,0.799561
-2.05994,0.805664
-2.06299,0.805664
-2.06604,0.805664
-2.06757,0.798035
-2.0752,0.801086
-2.07825,0.804138
-2.08282,0.799561
-2.08588,0.805664
-2.09351,0.799561
-2.09198,0.801086
-2.09961,0.801086
-2.10114,0.801086
-2.10419,0.801086
-2.10724,0.799561
-2.11182,0.799561
-2.11334,0.805664
-2.12097,0.799561
-2.11945,0.804138
-2.12555,0.801086
-2.1286,0.801086
-2.13623,0.804138
-2.13776,0.804138
-2.13776,0.799561
-2.14233,0.799561
-2.14691,0.799561
-2.14691,0.801086
-2.15302,0.804138
-2.16064,0.796509
-2.1637,0.798035
-2.1637,0.798035
-2.1698,0.801086
-2.17438,0.799561
-2.1759,0.798035
-2.18353,0.798035
-2.18506,0.796509
-2.18658,0.804138
-2.18811,0.798035
-2.19421,0.798035
-2.19574,0.799561
-2.20184,0.798035
-2.2049,0.801086
-2.20642,0.799561
-2.20947,0.799561
-2.21405,0.798035
-2.21405,0.801086
-2.2171,0.804138
-2.21863,0.804138
-2.22168,0.796509
-2.22626,0.799561
-2.22931,0.799561
-2.22626,0.801086
-2.22626,0.799561
-2.22931,0.796509
-2.23083,0.798035
-2.23541,0.798035
-2.23846,0.798035
-2.24152,0.798035
-2.24152,0.798035
-2.24304,0.798035
-2.25372,0.799561
-2.25067,0.798035
-2.25372,0.798035
-2.25525,0.798035
-2.2583,0.798035
-2.26288,0.794983
-2.26593,0.799561
-2.26593,0.796509
-2.26898,0.798035
-2.27356,0.796509
-2.27356,0.799561
-2.28119,0.804138
-2.28271,0.801086
-2.28729,0.796509
-2.29187,0.799561
-2.2934,0.798035
-2.29645,0.799561
-2.30103,0.798035
-2.30408,0.794983
-2.31171,0.796509
-2.31171,0.796509
-2.31628,0.798035
-2.31781,0.801086
-2.32239,0.796509
-2.32391,0.796509
-2.32697,0.796509
-2.33002,0.801086
-2.33307,0.798035
-2.33459,0.794983
-2.34222,0.798035
-2.34222,0.798035
-2.34375,0.799561
-2.34985,0.801086
-2.35443,0.796509
-2.35748,0.794983
-2.36206,0.794983
-2.36511,0.796509
-2.36664,0.801086
-2.37274,0.794983
-2.37579,0.793457
-2.37579,0.796509
-2.38037,0.801086
-2.3819,0.796509
-2.38037,0.798035
-2.38037,0.796509
-2.37732,0.796509
-2.37732,0.798035
-2.37579,0.796509
-2.36816,0.796509
-2.36206,0.796509
-2.35901,0.793457
-2.34985,0.798035
-2.34528,0.798035
-2.33612,0.794983
-2.32697,0.794983
-2.31476,0.796509
-2.30103,0.796509
-2.29034,0.798035
-2.27814,0.794983
-2.26746,0.793457
-2.2522,0.794983
-2.23999,0.799561
-2.22626,0.796509
-2.21405,0.793457
-2.20032,0.794983
-2.18811,0.796509
-2.1759,0.794983
-2.15912,0.798035
-2.15149,0.794983
-2.13623,0.794983
-2.12708,0.796509
-2.11487,0.796509
-2.10571,0.798035
-2.09808,0.794983
-2.08893,0.793457
-2.07977,0.794983
-2.07367,0.796509
-2.06604,0.796509
-2.06451,0.794983
-2.05383,0.793457
-2.05078,0.796509
-2.04468,0.796509
-2.0401,0.796509
-2.03552,0.793457
-2.03094,0.790405
-2.02942,0.794983
-2.02484,0.798035
-2.02484,0.796509
-2.02179,0.791931
-2.02026,0.793457
-2.02026,0.793457
-2.01721,0.796509
-2.01569,0.798035
-2.01569,0.794983
-2.01569,0.793457
-2.01569,0.794983
-2.01263,0.794983
-2.01416,0.796509
-2.01416,0.794983
-2.00958,0.790405
-2.01416,0.793457
-2.01111,0.798035
-2.01263,0.794983
-2.01569,0.794983
-2.01416,0.793457
-2.01416,0.794983
-2.01874,0.794983
-2.01874,0.796509
-2.02026,0.794983
-2.02637,0.793457
-2.02942,0.794983
-2.03094,0.793457
-2.03247,0.794983
-2.03552,0.793457
-2.03705,0.790405
-2.034,0.793457
-2.0401,0.794983
-2.04315,0.798035
-2.04315,0.794983
-2.0462,0.790405
-2.0462,0.794983
-2.0462,0.791931
-2.04926,0.791931
-2.0462,0.790405
-2.04773,0.791931
-2.0462,0.796509
-2.0462,0.794983
-2.04926,0.791931
-2.0462,0.794983
-2.0462,0.793457
-2.0462,0.791931
-2.04773,0.794983
-2.04468,0.794983
-2.0462,0.790405
-2.04315,0.790405
-2.04163,0.790405
-2.04163,0.793457
-2.0401,0.791931
-2.04163,0.791931
-2.03857,0.791931
-2.03857,0.787354
-2.0401,0.794983
-2.034,0.794983
-2.03552,0.791931
-2.03705,0.793457
-2.03552,0.793457
-2.034,0.796509
-2.03247,0.794983
-2.034,0.793457
-2.034,0.790405
-2.03705,0.793457
-2.034,0.793457
-2.03705,0.793457
-2.03705,0.793457
-2.03857,0.791931
-2.0401,0.791931
-2.04163,0.796509
-2.04468,0.794983
-2.04468,0.791931
-2.0462,0.790405
-2.0462,0.794983
-2.04773,0.794983
-2.04773,0.793457
-2.04926,0.791931
-2.05078,0.793457
-2.05231,0.791931
-2.05231,0.796509
-2.05994,0.790405
-2.05994,0.793457
-2.06146,0.790405
-2.06604,0.790405
-2.06909,0.793457
-2.06909,0.793457
-2.07062,0.793457
-2.07214,0.791931
-2.07672,0.790405
-2.07825,0.791931
-2.07825,0.794983
-2.08282,0.793457
-2.08588,0.791931
-2.08435,0.791931
-2.09198,0.796509
-2.09351,0.791931
-2.09503,0.796509
-2.09656,0.794983
-2.09961,0.793457
-2.10571,0.794983
-2.10571,0.791931
-2.10876,0.793457
-2.11334,0.793457
-2.11487,0.794983
-2.1225,0.794983
-2.1225,0.796509
-2.12097,0.793457
-2.12555,0.790405
-2.13013,0.798035
-2.13165,0.793457
-2.13318,0.794983
-2.13776,0.793457
-2.13776,0.793457
-2.14233,0.791931
-2.14386,0.796509
-2.14691,0.794983
-2.14844,0.791931
-2.15302,0.790405
-2.15149,0.790405
-2.15302,0.796509
-2.15454,0.793457
-2.16064,0.794983
-2.16064,0.790405
-2.1637,0.793457
-2.16522,0.796509
-2.16675,0.796509
-2.17133,0.790405
-2.1759,0.793457
-2.1759,0.793457
-2.17896,0.798035
-2.18506,0.796509
-2.18811,0.791931
-2.19116,0.791931
-2.18964,0.794983
-2.19574,0.794983
-2.19574,0.796509
-2.19879,0.793457
-2.20337,0.794983
-2.20337,0.794983
-2.20795,0.796509
-2.211,0.794983
-2.21558,0.787354
-2.2171,0.793457
-2.21863,0.794983
-2.22321,0.794983
-2.22473,0.796509
-2.22931,0.796509
-2.23236,0.794983
-2.23236,0.794983
-2.23541,0.796509
-2.23846,0.798035
-2.23999,0.793457
-2.24152,0.794983
-2.24609,0.793457
-2.24915,0.796509
-2.2522,0.796509
-2.25525,0.796509
-2.25677,0.794983
-2.25525,0.793457
-2.2583,0.798035
-2.26288,0.794983
-2.26593,0.793457
-2.26898,0.791931
-2.26746,0.793457
-2.26898,0.799561
-2.27509,0.796509
-2.27966,0.794983
-2.28119,0.793457
-2.28424,0.791931
-2.28577,0.799561
-2.29034,0.796509
-2.29034,0.793457
-2.29645,0.794983
-2.29797,0.796509
-2.2995,0.799561
-2.30408,0.799561
-2.30713,0.798035
-2.31018,0.798035
-2.31628,0.794983
-2.31628,0.798035
-2.31934,0.796509
-2.32239,0.794983
-2.32544,0.796509
-2.32849,0.794983
-2.33307,0.794983
-2.33612,0.796509
-2.3407,0.794983
-2.34375,0.794983
-2.3468,0.798035
-2.34985,0.798035
-2.3468,0.799561
-2.35138,0.794983
-2.35443,0.794983
-2.35138,0.798035
-2.34985,0.798035
-2.34985,0.796509
-2.34528,0.793457
-2.33765,0.793457
-2.32849,0.796509
-2.32544,0.799561
-2.31934,0.798035
-2.30713,0.796509
-2.2995,0.791931
-2.28729,0.799561
-2.27356,0.801086
-2.2644,0.796509
-2.24915,0.796509
-2.23083,0.796509
-2.2171,0.793457
-2.20032,0.798035
-2.18506,0.798035
-2.1698,0.796509
-2.15454,0.794983
-2.13928,0.796509
-2.1225,0.799561
-2.10419,0.799561
-2.09198,0.796509
-2.07214,0.794983
-2.05383,0.794983
-2.0401,0.796509
-2.02637,0.799561
-2.01263,0.798035
-1.99585,0.794983
-1.98212,0.798035
-1.96991,0.799561
-1.9577,0.801086
-1.9455,0.796509
-1.93634,0.794983
-1.92566,0.798035
-1.91193,0.796509
-1.90277,0.798035
-1.89514,0.796509
-1.88293,0.791931
-1.87836,0.793457
-1.87378,0.798035
-1.86005,0.799561
-1.85547,0.796509
-1.84784,0.794983
-1.84479,0.796509
-1.83868,0.798035
-1.83105,0.799561
-1.82953,0.796509
-1.82495,0.794983
-1.81885,0.796509
-1.81732,0.798035
-1.81274,0.799561
-1.80664,0.798035
-1.80054,0.798035
-1.79749,0.793457
-1.79138,0.799561
-1.78833,0.801086
-1.78833,0.796509
-1.78528,0.796509
-1.78223,0.798035
-1.77917,0.801086
-1.77765,0.799561
-1.77612,0.798035
-1.7746,0.794983
-1.77155,0.799561
-1.77155,0.798035
-1.76544,0.799561
-1.76544,0.796509
-1.76239,0.796509
-1.76239,0.798035
-1.76086,0.799561
-1.76086,0.798035
-1.75629,0.798035
-1.75781,0.794983
-1.75629,0.798035
-1.75323,0.801086
-1.75476,0.799561
-1.75476,0.796509
-1.75323,0.796509
-1.75171,0.796509
-1.74866,0.798035
-1.75171,0.808716
-1.74713,0.796509
-1.74866,0.794983
-1.74561,0.796509
-1.74713,0.799561
-1.74561,0.798035
-1.74713,0.798035
-1.74255,0.794983
-1.74103,0.796509
-1.73798,0.799561
-1.73798,0.801086
-1.73645,0.799561
-1.73492,0.794983
-1.73035,0.796509
-1.73035,0.799561
-1.72729,0.799561
-1.72882,0.799561
-1.72424,0.796509
-1.72424,0.794983
-1.72119,0.799561
-1.72272,0.801086
-1.72119,0.798035
-1.72119,0.796509
-1.71814,0.796509
-1.71661,0.799561
-1.71509,0.799561
-1.71509,0.793457
-1.71356,0.799561
-1.71661,0.794983
-1.71661,0.801086
-1.71814,0.804138
-1.71814,0.798035
-1.71967,0.794983
-1.71967,0.798035
-1.72272,0.804138
-1.72424,0.801086
-1.72577,0.798035
-1.72577,0.794983
-1.72882,0.796509
-1.72729,0.801086
-1.7334,0.799561
-1.7334,0.796509
-1.73492,0.801086
-1.73645,0.796509
-1.73645,0.798035
-1.73798,0.801086
-1.74255,0.796509
-1.74561,0.793457
-1.74713,0.796509
-1.75171,0.798035
-1.75171,0.799561
-1.75781,0.796509
-1.75629,0.794983
-1.76239,0.798035
-1.76697,0.798035
-1.76697,0.798035
-1.7746,0.794983
-1.77307,0.791931
-1.77765,0.794983
-1.78375,0.794983
-1.78375,0.798035
-1.7868,0.796509
-1.79138,0.796509
-1.79901,0.796509
-1.79901,0.798035
-1.80054,0.799561
-1.80511,0.796509
-1.80664,0.798035
-1.80817,0.799561
-1.81122,0.798035
-1.81427,0.798035
-1.81427,0.794983
-1.82037,0.793457
-1.8219,0.798035
-1.82343,0.799561
-1.83258,0.798035
-1.83105,0.796509
-1.83258,0.794983
-1.83868,0.798035
-1.84021,0.798035
-1.84174,0.801086
-1.84784,0.794983
-1.84784,0.794983
-1.84784,0.796509
-1.85242,0.798035
-1.85852,0.798035
-1.85699,0.794983
-1.86157,0.793457
-1.86462,0.796509
-1.8692,0.801086
-1.87073,0.801086
-1.87225,0.798035
-1.87378,0.793457
-1.87683,0.798035
-1.88141,0.799561
-1.88446,0.794983
-1.88599,0.794983
-1.89056,0.791931
-1.89209,0.794983
-1.89819,0.798035
-1.90125,0.798035
-1.9043,0.798035
-1.90582,0.793457
-1.90582,0.794983
-1.90887,0.798035
-1.91193,0.798035
-1.9165,0.794983
-1.91956,0.794983
-1.92108,0.794983
-1.92413,0.796509
-1.93024,0.799561
-1.93329,0.794983
-1.93634,0.796509
-1.93939,0.794983
-1.9455,0.796509
-1.9455,0.796509
-1.94702,0.794983
-1.95007,0.793457
-1.9516,0.791931
-1.95465,0.793457
-1.96228,0.798035
-1.96381,0.796509
-1.96533,0.798035
-1.96838,0.796509
-1.97144,0.796509
-1.97296,0.793457
-1.97906,0.794983
-1.97906,0.796509
-1.98364,0.798035
-1.98669,0.798035
-1.98975,0.798035
-1.99432,0.793457
-1.9989,0.794983
-2.00348,0.793457
-2.00806,0.796509
-2.00958,0.798035
-2.01263,0.796509
-2.01721,0.793457
-2.02179,0.794983
-2.02637,0.798035
-2.02942,0.798035
-2.034,0.796509
-2.034,0.796509
-2.04163,0.796509
-2.0462,0.794983
-2.04926,0.796509
-2.05231,0.796509
-2.05078,0.796509
-2.05841,0.793457
-2.05994,0.793457
-2.06299,0.798035
-2.06604,0.798035
-2.07062,0.793457
-2.07367,0.793457
-2.0752,0.798035
-2.0752,0.798035
-2.0813,0.794983
-2.08435,0.791931
-2.08588,0.794983
-2.09198,0.796509
-2.09351,0.798035
-2.09961,0.791931
-2.10266,0.790405
-2.10571,0.793457
-2.10876,0.793457
-2.11029,0.794983
-2.11639,0.793457
-2.12097,0.793457
-2.12555,0.796509
-2.12708,0.796509
-2.1286,0.796509
-2.1347,0.794983
-2.13928,0.793457
-2.14233,0.798035
-2.14539,0.793457
-2.15149,0.794983
-2.15302,0.793457
-2.15454,0.791931
-2.15912,0.794983
-2.16217,0.794983
-2.16217,0.796509
-2.15912,0.794983
-2.1637,0.790405
-2.15759,0.793457
-2.15454,0.794983
-2.14844,0.798035
-2.14233,0.794983
-2.14081,0.790405
-2.13165,0.794983
-2.12097,0.791931
-2.10876,0.796509
-2.10114,0.790405
-2.08893,0.791931
-2.07672,0.794983
-2.06146,0.798035
-2.05078,0.796509
-2.034,0.794983
-2.01874,0.793457
-2.00653,0.793457
-1.98822,0.796509
-1.97144,0.794983
-1.96228,0.794983
-1.9455,0.791931
-1.93176,0.794983
-1.91193,0.793457
-1.89819,0.798035
-1.88446,0.791931
-1.87073,0.793457
-1.85547,0.791931
-1.84021,0.793457
-1.82495,0.793457
-1.81122,0.794983
-1.80359,0.787354
-1.78986,0.793457
-1.78375,0.794983
-1.7746,0.793457
-1.76392,0.794983
-1.75323,0.791931
-1.74255,0.791931
-1.73492,0.794983
-1.72882,0.798035
-1.72424,0.794983
-1.71814,0.793457
-1.71509,0.796509
-1.70441,0.791931
-1.70288,0.793457
-1.69525,0.793457
-1.6922,0.791931
-1.68915,0.794983
-1.6861,0.794983
-1.68457,0.794983
-1.68152,0.793457
-1.67999,0.791931
-1.67389,0.791931
-1.67694,0.794983
-1.67236,0.794983
-1.67389,0.791931
-1.66931,0.791931
-1.67084,0.791931
-1.66931,0.793457
-1.66931,0.794983
-1.66779,0.790405
-1.66931,0.790405
-1.66931,0.791931
-1.67084,0.791931
-1.67236,0.791931
-1.67084,0.790405
-1.67389,0.793457
-1.67694,0.793457
-1.67694,0.790405
-1.67847,0.793457
-1.67847,0.794983
-1.68152,0.791931
-1.68152,0.793457
-1.68152,0.794983
-1.67999,0.793457
-1.68457,0.791931
-1.6861,0.788879
-1.68915,0.791931
-1.68915,0.791931
-1.68762,0.791931
-1.68762,0.791931
-1.68915,0.791931
-1.69067,0.790405
-1.69067,0.793457
-1.68915,0.793457
-1.6922,0.791931
-1.69067,0.791931
-1.69373,0.791931
-1.6922,0.791931
-1.69373,0.791931
-1.69525,0.791931
-1.69525,0.791931
-1.69678,0.791931
-1.69983,0.793457
-1.69525,0.794983
-1.6983,0.790405
-1.69678,0.793457
-1.69525,0.790405
-1.69525,0.793457
-1.6983,0.793457
-1.69525,0.791931
-1.69678,0.790405
-1.6983,0.791931
-1.6983,0.793457
-1.6983,0.791931
-1.6983,0.791931
-1.70135,0.787354
-1.6983,0.791931
-1.70288,0.793457
-1.70135,0.793457
-1.70135,0.788879
-1.70441,0.791931
-1.70898,0.791931
-1.71051,0.793457
-1.71356,0.790405
-1.71356,0.793457
-1.71661,0.788879
-1.71814,0.790405
-1.72119,0.791931
-1.72272,0.791931
-1.72882,0.790405
-1.73187,0.790405
-1.7334,0.793457
-1.73798,0.791931
-1.73798,0.793457
-1.74408,0.791931
-1.74713,0.787354
-1.75323,0.788879
-1.75323,0.793457
-1.75476,0.790405
-1.76086,0.790405
-1.76697,0.787354
-1.77307,0.788879
-1.77765,0.791931
-1.7807,0.788879
-1.78223,0.791931
-1.7868,0.790405
-1.79291,0.790405
-1.79749,0.790405
-1.80054,0.791931
-1.80817,0.788879
-1.81122,0.788879
-1.8158,0.788879
-1.82037,0.791931
-1.82648,0.788879
-1.83105,0.788879
-1.83563,0.785828
-1.83716,0.790405
-1.84174,0.790405
-1.84784,0.788879
-1.84784,0.788879
-1.85242,0.790405
-1.85699,0.787354
-1.85852,0.790405
-1.86157,0.788879
-1.86462,0.787354
-1.8692,0.788879
-1.87073,0.785828
-1.87683,0.790405
-1.88141,0.787354
-1.88751,0.787354
-1.89209,0.788879
-1.89362,0.787354
-1.90277,0.790405
-1.9043,0.787354
-1.9104,0.787354
-1.91498,0.787354
-1.91803,0.785828
-1.92108,0.787354
-1.92719,0.790405
-1.93176,0.785828
-1.93481,0.784302
-1.94092,0.785828
-1.94244,0.791931
-1.95007,0.787354
-1.95313,0.787354
-1.9577,0.785828
-1.96381,0.787354
-1.96686,0.790405
-1.97296,0.787354
-1.97906,0.785828
-1.98212,0.787354
-1.98669,0.787354
-1.9928,0.785828
-1.99432,0.784302
-1.9989,0.787354
-2.00195,0.785828
-2.00653,0.785828
-2.00806,0.787354
-2.01263,0.787354
-2.01721,0.788879
-2.01874,0.788879
-2.02484,0.785828
-2.02942,0.790405
-2.03247,0.785828
-2.03705,0.790405
-2.0401,0.785828
-2.04315,0.788879
-2.04773,0.790405
-2.05231,0.790405
-2.05688,0.788879
-2.05994,0.788879
-2.06146,0.793457
-2.06451,0.794983
-2.06909,0.793457
-2.07367,0.794983
-2.07825,0.788879
-2.08282,0.791931
-2.08282,0.794983
-2.08893,0.796509
-2.09503,0.791931
-2.09961,0.791931
-2.10266,0.788879
-2.10876,0.790405
-2.11182,0.791931
-2.11182,0.791931
-2.12097,0.785828
-2.12555,0.791931
-2.13165,0.788879
-2.1347,0.791931
-2.13623,0.787354
-2.14233,0.787354
-2.14539,0.788879
-2.15149,0.790405
-2.15607,0.791931
-2.15912,0.790405
-2.16217,0.788879
-2.16827,0.791931
-2.16675,0.787354
-2.17285,0.791931
-2.17896,0.788879
-2.18506,0.787354
-2.19116,0.791931
-2.19269,0.790405
-2.19879,0.790405
-2.20642,0.790405
-2.20795,0.788879
-2.20947,0.791931
-2.211,0.791931
-2.21558,0.791931
-2.22015,0.788879
-2.22473,0.788879
-2.22473,0.788879
-2.22931,0.791931
-2.23236,0.791931
-2.23236,0.791931
-2.23389,0.788879
-2.23694,0.787354
-2.23236,0.791931
-2.23694,0.790405
-2.23389,0.793457
-2.22931,0.790405
-2.22626,0.791931
-2.22015,0.794983
-2.21558,0.790405
-2.2049,0.793457
-2.19421,0.793457
-2.18964,0.791931
-2.17743,0.794983
-2.17285,0.793457
-2.16064,0.791931
-2.14844,0.790405
-2.13928,0.794983
-2.1286,0.793457
-2.11487,0.794983
-2.10571,0.793457
-2.09351,0.791931
-2.07825,0.791931
-2.07062,0.794983
-2.06299,0.791931
-2.05078,0.793457
-2.0401,0.796509
-2.03094,0.791931
-2.01874,0.791931
-2.00806,0.794983
-2.00348,0.791931
-1.98975,0.794983
-1.98669,0.794983
-1.97601,0.796509
-1.97449,0.793457
-1.96686,0.798035
-1.96228,0.793457
-1.9577,0.793457
-1.95313,0.798035
-1.94702,0.796509
-1.94397,0.793457
-1.94244,0.796509
-1.93939,0.798035
-1.93634,0.798035
-1.93176,0.796509
-1.93176,0.794983
-1.92566,0.801086
-1.92719,0.796509
-1.92566,0.796509
-1.92566,0.799561
-1.92413,0.796509
-1.92108,0.796509
-1.92108,0.796509
-1.91956,0.798035
-1.91803,0.799561
-1.91498,0.798035
-1.9165,0.798035
-1.91498,0.798035
-1.91803,0.799561
-1.9165,0.799561
-1.91498,0.799561
-1.9165,0.799561
-1.9165,0.799561
-1.9165,0.801086
-1.91956,0.804138
-1.91956,0.801086
-1.92108,0.801086
-1.92261,0.801086
-1.92261,0.804138
-1.92719,0.801086
-1.93024,0.799561
-1.93176,0.804138
-1.93176,0.801086
-1.93329,0.805664
-1.93329,0.805664
-1.93481,0.801086
-1.93634,0.801086
-1.93481,0.804138
-1.93787,0.805664
-1.93787,0.80719
-1.94092,0.805664
-1.94092,0.805664
-1.94244,0.804138
-1.94397,0.804138
-1.94244,0.805664
-1.9455,0.808716
-1.94397,0.805664
-1.94702,0.80719
-1.9455,0.805664
-1.94397,0.805664
-1.94702,0.804138
-1.94397,0.808716
-1.9455,0.808716
-1.94244,0.808716
-1.94397,0.808716
-1.9455,0.810242
-1.94244,0.80719
-1.94397,0.805664
-1.94244,0.810242
-1.94244,0.813293
-1.94244,0.805664
-1.94092,0.810242
-1.94397,0.811768
-1.94092,0.811768
-1.94397,0.811768
-1.9455,0.810242
-1.94702,0.811768
-1.9455,0.810242
-1.94855,0.814819
-1.95007,0.817871
-1.95007,0.814819
-1.95007,0.811768
-1.9516,0.811768
-1.95313,0.811768
-1.95465,0.814819
-1.9577,0.813293
-1.9577,0.811768
-1.95923,0.810242
-1.96381,0.816345
-1.96686,0.813293
-1.96381,0.816345
-1.96991,0.816345
-1.97144,0.814819
-1.97144,0.817871
-1.97601,0.817871
-1.97906,0.814819
-1.98059,0.816345
-1.98364,0.814819
-1.98517,0.819397
-1.98669,0.819397
-1.99432,0.816345
-1.99432,0.820923
-1.99738,0.817871
-2.00195,0.823975
-2.00043,0.820923
-2.005,0.820923
-2.00958,0.816345
-2.01263,0.822449
-2.01263,0.822449
-2.01569,0.823975
-2.02179,0.820923
-2.02637,0.820923
-2.03094,0.822449
-2.03094,0.823975
-2.03857,0.8255
-2.04315,0.823975
-2.04163,0.823975
-2.04773,0.822449
-2.05078,0.8255
-2.05231,0.823975
-2.05383,0.820923
-2.05994,0.823975
-2.06146,0.820923
-2.06604,0.828552
-2.06909,0.83313
-2.07214,0.8255
-2.0752,0.827026
-2.07825,0.8255
-2.07977,0.828552
-2.08435,0.827026
-2.08435,0.827026
-2.08893,0.830078
-2.09503,0.8255
-2.09351,0.828552
-2.09656,0.83313
-2.09808,0.827026
-2.09961,0.827026
-2.10266,0.828552
-2.10876,0.827026
-2.10571,0.83313
-2.11182,0.828552
-2.11334,0.830078
-2.11487,0.830078
-2.11945,0.830078
-2.12097,0.834656
-2.12555,0.830078
-2.1286,0.827026
-2.13013,0.830078
-2.13165,0.834656
-2.13776,0.834656
-2.13623,0.830078
-2.13928,0.830078
-2.14081,0.830078
-2.14233,0.83313
-2.14539,0.83313
-2.14844,0.830078
-2.15302,0.83313
-2.15607,0.83313
-2.15759,0.834656
-2.15912,0.83313
-2.1637,0.828552
-2.16522,0.830078
-2.16675,0.828552
-2.1698,0.837708
-2.17133,0.839233
-2.17438,0.834656
-2.1759,0.839233
-2.18353,0.836182
-2.18658,0.840759
-2.18658,0.840759
-2.18964,0.836182
-2.18964,0.839233
-2.19421,0.837708
-2.19421,0.842285
-2.19727,0.845337
-2.20032,0.836182
-2.20184,0.840759
-2.20337,0.839233
-2.2049,0.842285
-2.20947,0.840759
-2.20947,0.840759
-2.2171,0.837708
-2.21863,0.839233
-2.22015,0.843811
-2.22168,0.843811
-2.21863,0.840759
-2.22015,0.840759
-2.21558,0.840759
-2.211,0.842285
-2.20947,0.845337
-2.20184,0.842285
-2.19727,0.842285
-2.18811,0.840759
-2.17896,0.848389
-2.17285,0.846863
-2.16675,0.842285
-2.15607,0.837708
-2.14386,0.842285
-2.13165,0.846863
-2.1225,0.845337
-2.11029,0.842285
-2.10114,0.843811
-2.08282,0.846863
-2.07367,0.848389
-2.06299,0.845337
-2.04773,0.846863
-2.03552,0.842285
-2.02484,0.845337
-2.01111,0.845337
-2.00043,0.849915
-1.98822,0.845337
-1.97754,0.842285
-1.96381,0.848389
-1.95313,0.846863
-1.94244,0.846863
-1.93481,0.85144
-1.92261,0.845337
-1.9165,0.846863
-1.90582,0.849915
-1.90125,0.849915
-1.88904,0.846863
-1.88446,0.846863
-1.87836,0.848389
-1.87225,0.849915
-1.86462,0.849915
-1.85852,0.846863
-1.85547,0.846863
-1.84937,0.849915
-1.84784,0.85144
-1.84174,0.849915
-1.83716,0.848389
-1.83105,0.846863
-1.82953,0.848389
-1.82343,0.849915
-1.8219,0.852966
-1.81885,0.849915
-1.8158,0.848389
-1.81274,0.848389
-1.80969,0.852966
-1.80664,0.852966
-1.80511,0.85144
-1.80054,0.848389
-1.80054,0.849915
-1.79901,0.849915
-1.79596,0.856018
-1.79596,0.85144
-1.79443,0.85144
-1.79443,0.848389
-1.78986,0.85144
-1.78986,0.854492
-1.79291,0.85144
-1.78986,0.852966
-1.78986,0.852966
-1.78986,0.849915
-1.78986,0.854492
-1.78986,0.852966
-1.79291,0.852966
-1.79291,0.85144
-1.79138,0.854492
-1.79291,0.854492
-1.79138,0.854492
-1.79291,0.85144
-1.79291,0.854492
-1.79138,0.852966
-1.79443,0.854492
-1.79138,0.854492
-1.79291,0.852966
-1.79138,0.852966
-1.78986,0.852966
-1.78986,0.857544
-1.78986,0.856018
-1.78833,0.854492
-1.78986,0.852966
-1.7868,0.856018
-1.78528,0.860596
-1.7868,0.856018
-1.78375,0.852966
-1.78223,0.854492
-1.78375,0.856018
-1.78375,0.856018
-1.78375,0.854492
-1.7807,0.856018
-1.78375,0.856018
-1.77917,0.856018
-1.77917,0.856018
-1.78223,0.854492
-1.7807,0.854492
-1.7807,0.856018
-1.78223,0.857544
-1.7807,0.860596
-1.78223,0.854492
-1.78223,0.856018
-1.7807,0.856018
-1.78528,0.860596
-1.78223,0.857544
-1.78223,0.854492
-1.78528,0.854492
-1.78528,0.856018
-1.78528,0.857544
-1.78833,0.860596
-1.7868,0.860596
-1.79138,0.860596
-1.78986,0.854492
-1.79138,0.857544
-1.79291,0.862122
-1.79291,0.857544
-1.79596,0.856018
-1.79596,0.860596
-1.79596,0.860596
-1.80054,0.857544
-1.79749,0.857544
-1.80511,0.854492
-1.80817,0.860596
-1.80817,0.857544
-1.81427,0.862122
-1.81732,0.857544
-1.81732,0.856018
-1.82343,0.857544
-1.82343,0.860596
-1.82648,0.860596
-1.82648,0.856018
-1.828,0.85144
-1.83105,0.857544
-1.83563,0.862122
-1.83716,0.865173
-1.84021,0.854492
-1.84174,0.856018
-1.84174,0.860596
-1.84631,0.860596
-1.84937,0.860596
-1.85089,0.860596
-1.85394,0.857544
-1.85547,0.857544
-1.85852,0.860596
-1.86005,0.860596
-1.86005,0.857544
-1.86005,0.854492
-1.86462,0.854492
-1.8692,0.862122
-1.87073,0.863647
-1.87225,0.862122
-1.87378,0.857544
-1.87988,0.860596
-1.87836,0.862122
-1.88293,0.862122
-1.88446,0.860596
-1.88751,0.856018
-1.89056,0.860596
-1.89209,0.862122
-1.89819,0.865173
-1.89819,0.862122
-1.90277,0.857544
-1.9043,0.863647
-1.90582,0.863647
-1.90887,0.863647
-1.90887,0.862122
-1.91193,0.857544
-1.9165,0.857544
-1.91803,0.860596
-1.91956,0.862122
-1.92566,0.860596
-1.93024,0.857544
-1.93024,0.860596
-1.93481,0.862122
-1.93787,0.863647
-1.94244,0.856018
-1.94397,0.863647
-1.94702,0.856018
-1.95007,0.865173
-1.95313,0.857544
-1.9577,0.860596
-1.96381,0.856018
-1.96838,0.862122
-1.96991,0.860596
-1.97144,0.862122
-1.98059,0.860596
-1.98364,0.862122
-1.98517,0.863647
-1.98975,0.862122
-1.9928,0.865173
-1.99738,0.857544
-2.00195,0.857544
-2.00958,0.860596
-2.01263,0.862122
-2.01263,0.865173
-2.01874,0.860596
-2.02179,0.857544
-2.02484,0.863647
-2.02942,0.860596
-2.03094,0.866699
-2.03552,0.857544
-2.04163,0.862122
-2.04163,0.860596
-2.04926,0.865173
-2.05078,0.863647
-2.05231,0.865173
-2.05688,0.854492
-2.05994,0.857544
-2.06299,0.860596
-2.06146,0.862122
-2.06451,0.860596
-2.06451,0.857544
-2.06299,0.862122
-2.06299,0.862122
-2.05994,0.862122
-2.05994,0.863647
-2.05688,0.857544
-2.05078,0.863647
-2.04315,0.860596
-2.03552,0.857544
-2.02942,0.857544
-2.02026,0.863647
-2.01263,0.857544
-2.00195,0.860596
-1.9928,0.862122
-1.97906,0.862122
-1.97296,0.857544
-1.9577,0.857544
-1.95007,0.860596
-1.93481,0.863647
-1.92413,0.860596
-1.90887,0.860596
-1.89819,0.857544
-1.88446,0.860596
-1.87378,0.862122
-1.86157,0.863647
-1.85089,0.857544
-1.83868,0.857544
-1.82648,0.863647
-1.8158,0.863647
-1.80511,0.857544
-1.79596,0.857544
-1.7868,0.856018
-1.77612,0.863647
-1.77155,0.860596
-1.76392,0.860596
-1.75476,0.857544
-1.74866,0.857544
-1.74408,0.863647
-1.73645,0.857544
-1.73187,0.860596
-1.72729,0.860596
-1.72424,0.857544
-1.72119,0.862122
-1.71967,0.865173
-1.71509,0.860596
-1.71051,0.862122
-1.70288,0.857544
-1.70135,0.860596
-1.70135,0.862122
-1.70288,0.860596
-1.69983,0.857544
-1.6983,0.862122
-1.69525,0.862122
-1.69373,0.860596
-1.6922,0.856018
-1.69067,0.856018
-1.68915,0.857544
-1.68762,0.860596
-1.68915,0.860596
-1.68762,0.857544
-1.69067,0.860596
-1.69067,0.856018
-1.6861,0.862122
-1.69067,0.856018
-1.68915,0.862122
-1.6922,0.857544
-1.68915,0.856018
-1.6922,0.863647
-1.69525,0.860596
-1.69525,0.856018
-1.69983,0.860596
-1.69983,0.854492
-1.70135,0.862122
-1.69983,0.857544
-1.70441,0.860596
-1.70441,0.854492
-1.70898,0.857544
-1.70898,0.857544
-1.70898,0.860596
-1.71356,0.854492
-1.71661,0.852966
-1.71661,0.857544
-1.71661,0.856018
-1.71814,0.857544
-1.71814,0.857544
-1.71814,0.852966
-1.72119,0.852966
-1.71814,0.860596
-1.72272,0.856018
-1.72729,0.852966
-1.72577,0.854492
-1.72577,0.854492
-1.72882,0.857544
-1.72882,0.860596
-1.73035,0.856018
-1.72882,0.852966
-1.72729,0.856018
-1.72577,0.856018
-1.72882,0.856018
-1.72729,0.85144
-1.72882,0.854492
-1.73187,0.856018
-1.7334,0.857544
-1.73492,0.860596
-1.73645,0.854492
-1.73645,0.852966
-1.73798,0.854492
-1.74103,0.854492
-1.74408,0.857544
-1.74408,0.85144
-1.74561,0.852966
-1.74561,0.856018
-1.75018,0.854492
-1.75018,0.856018
-1.75018,0.856018
-1.75629,0.85144
-1.75629,0.852966
-1.75629,0.854492
-1.75934,0.857544
-1.76239,0.852966
-1.76392,0.85144
-1.76697,0.852966
-1.77155,0.856018
-1.77612,0.854492
-1.77612,0.85144
-1.7807,0.849915
-1.78223,0.854492
-1.78528,0.854492
-1.78833,0.852966
-1.79291,0.852966
-1.79749,0.85144
-1.79901,0.852966
-1.80359,0.857544
-1.80969,0.85144
-1.81122,0.85144
-1.81122,0.849915
-1.81885,0.849915
-1.82037,0.854492
-1.82648,0.854492
-1.82953,0.85144
-1.83258,0.852966
-1.83563,0.852966
-1.84021,0.856018
-1.84174,0.857544
-1.84784,0.85144
-1.85242,0.854492
-1.85394,0.852966
-1.85699,0.852966
-1.86157,0.848389
-1.8692,0.854492
-1.8692,0.849915
-1.87225,0.849915
-1.87683,0.854492
-1.87836,0.85144
-1.88141,0.849915
-1.88446,0.848389
-1.88904,0.85144
-1.89209,0.849915
-1.89514,0.852966
-1.90277,0.846863
-1.9043,0.849915
-1.90887,0.849915
-1.90735,0.852966
-1.91193,0.852966
-1.91498,0.852966
-1.91803,0.848389
-1.92108,0.849915
-1.92261,0.849915
-1.92566,0.852966
-1.93024,0.85144
-1.93329,0.849915
-1.93481,0.848389
-1.93787,0.849915
-1.93939,0.85144
-1.94244,0.846863
-1.94702,0.845337
-1.94855,0.85144
-1.94855,0.848389
-1.95465,0.85144
-1.95618,0.849915
-1.95923,0.849915
-1.96381,0.849915
-1.96533,0.845337
-1.97296,0.848389
-1.97449,0.848389
-1.97449,0.846863
-1.97754,0.845337
-1.97906,0.848389
-1.98364,0.848389
-1.98517,0.848389
-1.9928,0.848389
-1.99432,0.848389
-1.99432,0.848389
-1.99738,0.849915
-2.00043,0.846863
-2.005,0.846863
-2.005,0.846863
-2.01111,0.848389
-2.01263,0.85144
-2.01569,0.848389
-2.02179,0.846863
-2.02179,0.845337
-2.02637,0.846863
-2.02942,0.849915
-2.03552,0.846863
-2.03705,0.846863
-2.0401,0.845337
-2.04468,0.848389
-2.04468,0.846863
-2.05231,0.845337
-2.05383,0.846863
-2.05688,0.843811
-2.05841,0.848389
-2.06451,0.846863
-2.06299,0.85144
-2.05994,0.845337
-2.06604,0.845337
-2.06146,0.846863
-2.06146,0.846863
-2.05841,0.843811
-2.05231,0.842285
-2.04926,0.843811
-2.04163,0.843811
-2.03705,0.845337
-2.034,0.846863
-2.02789,0.843811
-2.01721,0.845337
-2.01111,0.846863
-2.00195,0.845337
-1.99432,0.843811
-1.98517,0.843811
-1.98059,0.842285
-1.97296,0.842285
-1.96381,0.843811
-1.95313,0.842285
-1.94702,0.843811
-1.93787,0.842285
-1.93176,0.842285
-1.92261,0.845337
-1.9165,0.842285
-1.91345,0.840759
-1.9043,0.842285
-1.90125,0.840759
-1.89362,0.843811
-1.88904,0.842285
-1.88751,0.840759
-1.88293,0.845337
-1.87836,0.843811
-1.87836,0.845337
-1.87378,0.840759
-1.8692,0.840759
-1.87073,0.840759
-1.86768,0.845337
-1.86005,0.843811
-1.85852,0.837708
-1.85699,0.836182
-1.85089,0.840759
-1.85242,0.845337
-1.84937,0.842285
-1.84784,0.840759
-1.84784,0.840759
-1.84631,0.839233
-1.84631,0.840759
-1.84784,0.840759
-1.84631,0.839233
-1.84631,0.842285
-1.84326,0.840759
-1.84784,0.840759
-1.84326,0.840759
-1.84631,0.839233
-1.84631,0.837708
-1.84784,0.839233
-1.84631,0.840759
-1.85089,0.839233
-1.85242,0.839233
-1.85547,0.836182
-1.85699,0.839233
-1.85547,0.842285
-1.86005,0.839233
-1.8631,0.840759
-1.86768,0.839233
-1.8692,0.836182
-1.87073,0.837708
-1.87073,0.840759
-1.87531,0.834656
-1.87683,0.836182
-1.87683,0.839233
-1.87836,0.837708
-1.87988,0.839233
-1.88446,0.837708
-1.88446,0.836182
-1.88446,0.839233
-1.88599,0.840759
-1.88751,0.839233
-1.88599,0.839233
-1.88751,0.837708
-1.88446,0.836182
-1.88599,0.837708
-1.88599,0.839233
-1.88599,0.836182
-1.88599,0.837708
-1.88751,0.839233
-1.88751,0.839233
-1.88904,0.842285
-1.88751,0.837708
-1.89056,0.837708
-1.88904,0.840759
-1.88904,0.837708
-1.89056,0.837708
-1.88751,0.837708
-1.88904,0.834656
-1.88751,0.836182
-1.89209,0.834656
-1.89209,0.837708
-1.89209,0.836182
-1.89209,0.830078
-1.89209,0.834656
-1.89209,0.836182
-1.89209,0.837708
-1.89362,0.836182
-1.89514,0.834656
-1.89972,0.830078
-1.90125,0.836182
-1.90277,0.837708
-1.90277,0.834656
-1.90735,0.830078
-1.90582,0.83313
-1.9104,0.837708
-1.90887,0.837708
-1.90887,0.836182
-1.91498,0.83313
-1.9165,0.836182
-1.9165,0.834656
-1.91803,0.834656
-1.9165,0.834656
-1.92108,0.830078
-1.92108,0.83313
-1.92413,0.830078
-1.92719,0.836182
-1.93024,0.836182
-1.93176,0.830078
-1.93481,0.83313
-1.93634,0.836182
-1.93787,0.83313
-1.94244,0.836182
-1.94702,0.83313
-1.94397,0.834656
-1.94702,0.836182
-1.95007,0.834656
-1.95313,0.83313
-1.95313,0.830078
-1.95618,0.83313
-1.95618,0.83313
-1.95923,0.830078
-1.96533,0.83313
-1.96533,0.827026
-1.96991,0.83313
-1.96991,0.837708
-1.97449,0.828552
-1.97296,0.834656
-1.97754,0.827026
-1.97906,0.830078
-1.98059,0.834656
-1.98517,0.830078
-1.98669,0.830078
-1.98975,0.830078
-1.9928,0.828552
-1.99585,0.83313
-2.00195,0.83313
-2.00043,0.830078
-2.005,0.827026
-2.005,0.830078
-2.00958,0.828552
-2.01111,0.836182
-2.01263,0.83313
-2.01569,0.822449
-2.02026,0.830078
-2.02179,0.830078
-2.02789,0.83313
-2.02942,0.83313
-2.03247,0.827026
-2.034,0.828552
-2.03552,0.827026
-2.03857,0.828552
-2.0401,0.830078
-2.0462,0.8255
-2.04773,0.828552
-2.05078,0.830078
-2.05078,0.828552
-2.05841,0.827026
-2.05841,0.823975
-2.05994,0.83313
-2.06299,0.828552
-2.06451,0.830078
-2.06909,0.827026
-2.07062,0.8255
-2.0752,0.828552
-2.07672,0.830078
-2.0813,0.834656
-2.08588,0.827026
-2.08588,0.8255
-2.09503,0.827026
-2.09656,0.834656
-2.09961,0.830078
-2.09961,0.823975
-2.10571,0.823975
-2.10724,0.827026
-2.11182,0.830078
-2.11487,0.828552
-2.11487,0.828552
-2.11334,0.822449
-2.11945,0.830078
-2.12097,0.827026
-2.12708,0.828552
-2.12708,0.8255
-2.13318,0.8255
-2.13623,0.830078
-2.1347,0.828552
-2.14081,0.830078
-2.14386,0.828552
-2.14539,0.8255
-2.14844,0.823975
-2.15149,0.827026
-2.15759,0.827026
-2.16217,0.8255
-2.16217,0.8255
-2.16675,0.827026
-2.16827,0.8255
-2.17133,0.830078
-2.17896,0.8255
-2.18353,0.8255
-2.18353,0.827026
-2.18658,0.8255
-2.18811,0.828552
-2.18964,0.8255
-2.19421,0.823975
-2.19269,0.823975
-2.19116,0.8255
-2.19421,0.827026
-2.19421,0.828552
-2.19421,0.827026
-2.19269,0.822449
-2.18658,0.8255
-2.18506,0.823975
-2.18048,0.8255
-2.17133,0.823975
-2.16522,0.8255
-2.15759,0.830078
-2.15454,0.8255
-2.14539,0.8255
-2.13928,0.823975
-2.12402,0.8255
-2.11639,0.823975
-2.10876,0.822449
-2.09808,0.8255
-2.09045,0.822449
-2.07977,0.8255
-2.07367,0.8255
-2.06451,0.8255
-2.05688,0.8255
-2.04468,0.822449
-2.0401,0.823975
-2.03247,0.8255
-2.02484,0.827026
-2.01721,0.823975
-2.01263,0.820923
-2.005,0.827026
-2.00043,0.822449
-1.99432,0.8255
-1.98975,0.827026
-1.98364,0.819397
-1.98364,0.823975
-1.97906,0.8255
-1.97449,0.8255
-1.97296,0.820923
-1.97296,0.8255
-1.96686,0.820923
-1.96228,0.820923
-1.95923,0.823975
-1.95923,0.820923
-1.95313,0.819397
-1.95313,0.823975
-1.95313,0.822449
-1.94702,0.8255
-1.94702,0.822449
-1.94702,0.822449
-1.94244,0.820923
-1.93939,0.823975
-1.94092,0.820923
-1.93787,0.823975
-1.93787,0.820923
-1.93634,0.822449
-1.93634,0.820923
-1.93176,0.823975
-1.93481,0.817871
-1.93481,0.817871
-1.93329,0.819397
-1.93176,0.822449
-1.93329,0.822449
-1.93329,0.819397
-1.93634,0.820923
-1.93481,0.820923
-1.94092,0.823975
-1.93634,0.819397
-1.93787,0.819397
-1.93939,0.819397
-1.93939,0.819397
-1.93939,0.823975
-1.94092,0.823975
-1.94092,0.822449
-1.94244,0.816345
-1.94397,0.820923
-1.94397,0.820923
-1.94397,0.822449
-1.94702,0.819397
-1.95007,0.814819
-1.94702,0.819397
-1.94702,0.8255
-1.95007,0.820923
-1.94855,0.819397
-1.94855,0.819397
-1.94702,0.817871
-1.94702,0.822449
-1.94702,0.822449
-1.94855,0.819397
-1.94702,0.817871
-1.94855,0.819397
-1.94855,0.819397
-1.94702,0.819397
-1.94855,0.819397
-1.94702,0.816345
-1.94702,0.820923
-1.9455,0.819397
-1.94397,0.822449
-1.94702,0.817871
-1.94702,0.817871
-1.9455,0.819397
-1.9455,0.814819
-1.94244,0.819397
-1.94244,0.816345
-1.94397,0.819397
-1.94244,0.819397
-1.94092,0.816345
-1.94092,0.820923
-1.94244,0.817871
-1.94092,0.813293
-1.94244,0.817871
-1.94397,0.845337
-1.94244,0.817871
-1.94397,0.816345
-1.94397,0.814819
-1.94397,0.816345
-1.94397,0.817871
-1.94397,0.819397
-1.94702,0.816345
-1.94855,0.816345
-1.94855,0.816345
-1.94702,0.816345
-1.9516,0.817871
-1.95313,0.814819
-1.95313,0.816345
-1.95465,0.817871
-1.95923,0.817871
-1.95923,0.817871
-1.96228,0.814819
-1.96533,0.816345
-1.96533,0.817871
-1.96686,0.819397
-1.96686,0.817871
-1.96991,0.814819
-1.97296,0.814819
-1.97449,0.816345
-1.97296,0.819397
-1.97754,0.817871
-1.98059,0.817871
-1.97906,0.814819
-1.98059,0.816345
-1.98059,0.817871
-1.98364,0.817871
-1.98822,0.813293
-1.98669,0.817871
-1.98822,0.817871
-1.99432,0.814819
-1.98975,0.817871
-1.99432,0.817871
-1.99585,0.814819
-1.99585,0.813293
-2.00195,0.817871
-2.00195,0.816345
-2.00348,0.814819
-2.00348,0.816345
-2.00348,0.817871
-2.00653,0.816345
-2.00653,0.817871
-2.00958,0.817871
-2.01111,0.813293
-2.00806,0.817871
-2.00958,0.816345
-2.01111,0.814819
-2.01263,0.819397
-2.01263,0.816345
-2.01569,0.816345
-2.01874,0.813293
-2.02026,0.817871
-2.02484,0.813293
-2.02789,0.813293
-2.02789,0.814819
-2.03094,0.817871
-2.03094,0.816345
-2.034,0.814819
-2.0401,0.810242
-2.0401,0.814819
-2.0401,0.816345
-2.04468,0.814819
-2.0462,0.811768
-2.04773,0.816345
-2.05078,0.811768
-2.05383,0.813293
-2.05841,0.814819
-2.06146,0.814819
-2.06146,0.811768
-2.06299,0.811768
-2.06604,0.816345
-2.06604,0.814819
-2.07062,0.810242
-2.07062,0.811768
-2.07367,0.816345
-2.07825,0.816345
-2.0813,0.817871
-2.08435,0.814819
-2.08435,0.813293
-2.09045,0.814819
-2.09045,0.817871
-2.09351,0.817871
-2.09656,0.814819
-2.09808,0.814819
-2.09808,0.811768
-2.10266,0.813293
-2.10419,0.816345
-2.10571,0.813293
-2.10724,0.814819
-2.11182,0.814819
-2.11334,0.816345
-2.11334,0.814819
-2.11639,0.811768
-2.12097,0.811768
-2.1225,0.811768
-2.1286,0.813293
-2.1286,0.816345
-2.1347,0.811768
-2.1347,0.810242
-2.13776,0.813293
-2.14081,0.816345
-2.14386,0.817871
-2.14691,0.814819
-2.15302,0.814819
-2.15454,0.813293
-2.15607,0.816345
-2.16064,0.814819
-2.16217,0.813293
-2.16522,0.80719
-2.16675,0.813293
-2.16827,0.817871
-2.17285,0.817871
-2.1759,0.816345
-2.17743,0.813293
-2.17896,0.813293
-2.18048,0.816345
-2.17896,0.817871
-2.17743,0.810242
-2.18048,0.814819
-2.17743,0.814819
-2.1759,0.811768
-2.17133,0.817871
-2.1698,0.813293
-2.1637,0.811768
-2.16064,0.811768
-2.15302,0.814819
-2.14539,0.816345
-2.13776,0.813293
-2.13165,0.814819
-2.12402,0.813293
-2.11182,0.816345
-2.10266,0.817871
-2.09351,0.811768
-2.08435,0.814819
-2.07672,0.813293
-2.06604,0.814819
-2.05383,0.814819
-2.0462,0.814819
-2.03705,0.811768
-2.02789,0.810242
-2.01874,0.816345
-2.00958,0.817871
-2.00348,0.816345
-1.99585,0.813293
-1.98669,0.813293
-1.98059,0.814819
-1.97449,0.816345
-1.96991,0.814819
-1.96381,0.811768
-1.9577,0.814819
-1.95465,0.813293
-1.95007,0.814819
-1.9455,0.810242
-1.94092,0.814819
-1.93939,0.814819
-1.93634,0.816345
-1.93329,0.816345
-1.92566,0.816345
-1.92413,0.811768
-1.92108,0.810242
-1.92108,0.814819
-1.91803,0.816345
-1.91956,0.814819
-1.91345,0.814819
-1.91345,0.811768
-1.9104,0.816345
-1.90887,0.816345
-1.9043,0.811768
-1.90277,0.810242
-1.9043,0.814819
-1.89972,0.816345
-1.90125,0.814819
-1.89514,0.814819
-1.89514,0.813293
-1.89819,0.814819
-1.89819,0.816345
-1.89362,0.819397
-1.89362,0.817871
-1.89056,0.816345
-1.89209,0.816345
-1.89056,0.819397
-1.89209,0.816345
-1.89514,0.814819
-1.89056,0.814819
-1.89514,0.814819
-1.89362,0.819397
-1.89972,0.820923
-1.89514,0.816345
-1.89972,0.816345
-1.89972,0.814819
-1.9043,0.814819
-1.90277,0.816345
-1.90277,0.817871
-1.9043,0.816345
-1.90582,0.814819
-1.9043,0.817871
-1.90277,0.819397
-1.90125,0.816345
-1.90582,0.813293
-1.9043,0.816345
-1.90582,0.817871
-1.9043,0.820923
-1.90277,0.814819
-1.9043,0.817871
-1.90125,0.816345
-1.90277,0.820923
-1.9043,0.817871
-1.90125,0.817871
-1.90125,0.817871
-1.9043,0.817871
-1.89819,0.819397
-1.89819,0.817871
-1.89819,0.819397
-1.89819,0.819397
-1.89362,0.819397
-1.89514,0.820923
-1.89514,0.819397
-1.89362,0.817871
-1.89819,0.814819
-1.89819,0.817871
-1.89514,0.817871
-1.89972,0.817871
-1.89514,0.816345
-1.89819,0.816345
-1.89514,0.819397
-1.89362,0.819397
-1.89514,0.819397
-1.90125,0.820923
-1.89819,0.819397
-1.89514,0.819397
-1.89819,0.819397
-1.89972,0.822449
-1.90125,0.816345
-1.9043,0.816345
-1.90582,0.819397
-1.9043,0.822449
-1.90887,0.820923
-1.90887,0.820923
-1.91193,0.817871
-1.91193,0.819397
-1.91345,0.816345
-1.91193,0.823975
-1.91498,0.819397
-1.91498,0.822449
-1.91956,0.819397
-1.9165,0.822449
-1.91803,0.822449
-1.91803,0.819397
-1.92261,0.816345
-1.91956,0.819397
-1.92108,0.823975
-1.92108,0.8255
-1.92261,0.817871
-1.92413,0.817871
-1.92719,0.819397
-1.93176,0.820923
-1.93024,0.822449
-1.92719,0.819397
-1.93176,0.820923
-1.93176,0.820923
-1.93481,0.820923
-1.93634,0.823975
-1.93787,0.820923
-1.94092,0.822449
-1.94244,0.822449
-1.94244,0.822449
-1.94397,0.822449
-1.94397,0.819397
-1.9455,0.820923
-1.9455,0.819397
-1.9455,0.827026
-1.94702,0.822449
-1.94855,0.822449
-1.95007,0.820923
-1.95313,0.823975
-1.95313,0.827026
-1.95465,0.8255
-1.95465,0.822449
-1.95618,0.819397
-1.95313,0.822449
-1.95465,0.822449
-1.95618,0.823975
-1.95618,0.8255
-1.95923,0.822449
-1.95923,0.8255
-1.96228,0.8255
-1.96381,0.8255
-1.96381,0.823975
-1.96686,0.822449
-1.96991,0.8255
-1.96838,0.830078
-1.97144,0.8255
-1.97296,0.823975
-1.97754,0.823975
-1.97754,0.8255
-1.97601,0.820923
-1.98059,0.8255
-1.98059,0.822449
-1.98364,0.820923
-1.98059,0.822449
-1.98517,0.8255
-1.98822,0.8255
-1.9928,0.8255
-1.9928,0.822449
-1.99585,0.823975
-1.9989,0.823975
-1.9989,0.828552
-2.00043,0.8255
-2.00348,0.8255
-2.00348,0.823975
-2.00195,0.8255
-2.00653,0.830078
-2.00958,0.823975
-2.01111,0.823975
-2.01416,0.823975
-2.01569,0.8255
-2.02179,0.828552
-2.02637,0.827026
-2.02484,0.823975
-2.02789,0.823975
-2.03094,0.823975
-2.03247,0.828552
-2.03552,0.827026
-2.03552,0.8255
-2.04163,0.8255
-2.04315,0.830078
-2.04468,0.8255
-2.0462,0.8255
-2.04926,0.8255
-2.05078,0.827026
-2.05078,0.828552
-2.05078,0.827026
-2.05231,0.827026
-2.04773,0.823975
-2.0462,0.822449
-2.04468,0.828552
-2.04163,0.8255
-2.03552,0.828552
-2.03247,0.827026
-2.02637,0.827026
-2.01721,0.828552
-2.00806,0.828552
-1.9989,0.827026
-1.99432,0.823975
-1.98517,0.8255
-1.97601,0.827026
-1.96533,0.828552
-1.95465,0.828552
-1.94702,0.820923
-1.94092,0.828552
-1.93024,0.823975
-1.92108,0.828552
-1.91193,0.827026
-1.90277,0.8255
-1.89362,0.828552
-1.88446,0.834656
-1.87988,0.83313
-1.87531,0.822449
-1.86768,0.8255
-1.85852,0.827026
-1.85242,0.827026
-1.84784,0.830078
-1.84631,0.822449
-1.84021,0.822449
-1.83105,0.823975
-1.828,0.830078
-1.82343,0.828552
-1.8219,0.827026
-1.8158,0.827026
-1.81122,0.827026
-1.80969,0.830078
-1.81274,0.830078
-1.80664,0.8255
-1.80511,0.8255
-1.80511,0.827026
-1.80054,0.828552
-1.79901,0.827026
-1.79901,0.827026
-1.79596,0.823975
-1.79749,0.828552
-1.79443,0.83313
-1.79596,0.830078
-1.79443,0.8255
-1.79291,0.828552
-1.79138,0.8255
-1.79291,0.836182
-1.78986,0.828552
-1.79138,0.828552
-1.78833,0.827026
-1.78986,0.8255
-1.7868,0.834656
-1.78833,0.83313
-1.78986,0.827026
-1.78986,0.8255
-1.79138,0.830078
-1.79138,0.8255
-1.78986,0.828552
-1.79291,0.830078
-1.79291,0.827026
-1.79596,0.8255
-1.79443,0.83313
-1.79596,0.830078
-1.79443,0.830078
-1.79596,0.8255
-1.79443,0.827026
-1.79596,0.83313
-1.79749,0.83313
-1.79901,0.830078
-1.79749,0.827026
-1.79749,0.827026
-1.79596,0.827026
-1.79901,0.83313
-1.79901,0.83313
-1.80054,0.8255
-1.80359,0.828552
-1.79901,0.828552
-1.80359,0.83313
-1.80054,0.83313
-1.80054,0.8255
-1.79901,0.830078
-1.80359,0.828552
-1.80359,0.828552
-1.80054,0.830078
-1.79901,0.8255
-1.80359,0.828552
-1.80054,0.830078
-1.80359,0.83313
-1.80511,0.830078
-1.80054,0.828552
-1.79901,0.830078
-1.79749,0.83313
-1.80054,0.83313
-1.79901,0.827026
-1.80359,0.828552
-1.80054,0.83313
-1.80359,0.830078
-1.80359,0.830078
-1.80054,0.8255
-1.80054,0.830078
-1.79901,0.8255
-1.80054,0.827026
-1.80511,0.83313
-1.80817,0.828552
-1.80359,0.8255
-1.80664,0.830078
-1.80817,0.83313
-1.81274,0.83313
-1.81122,0.830078
-1.81122,0.827026
-1.81427,0.83313
-1.81885,0.834656
-1.81885,0.830078
-1.82343,0.828552
-1.8219,0.830078
-1.82495,0.827026
-1.82648,0.83313
-1.828,0.834656
-1.83563,0.8255
-1.83105,0.827026
-1.83105,0.827026
-1.83716,0.828552
-1.84021,0.836182
-1.84479,0.8255
-1.84479,0.827026
-1.84631,0.828552
-1.85089,0.828552
-1.85394,0.83313
-1.85699,0.828552
-1.85699,0.8255
-1.86005,0.83313
-1.86157,0.834656
-1.86768,0.828552
-1.8692,0.827026
-1.87225,0.827026
-1.87531,0.828552
-1.87836,0.828552
-1.88293,0.83313
-1.87988,0.830078
-1.88446,0.828552
-1.88751,0.828552
-1.88904,0.83313
-1.89056,0.828552
-1.89209,0.830078
-1.89056,0.827026
-1.89819,0.828552
-1.89819,0.828552
-1.90277,0.834656
-1.90582,0.828552
-1.90582,0.823975
-1.9104,0.830078
-1.91193,0.828552
-1.91498,0.834656
-1.91803,0.827026
-1.91803,0.828552
-1.91956,0.828552
-1.92261,0.83313
-1.92566,0.83313
-1.92719,0.828552
-1.93176,0.827026
-1.93176,0.830078
-1.93787,0.828552
-1.93939,0.828552
-1.94092,0.83313
-1.94702,0.823975
-1.94702,0.827026
-1.94855,0.827026
-1.95313,0.830078
-1.95618,0.830078
-1.95923,0.8255
-1.96381,0.827026
-1.96686,0.827026
-1.96838,0.827026
-1.96686,0.827026
-1.96991,0.8255
-1.97296,0.828552
-1.97754,0.828552
-1.97906,0.828552
-1.98212,0.827026
-1.98364,0.8255
-1.98669,0.8255
-1.98822,0.834656
-1.99432,0.828552
-1.99585,0.8255
-1.9989,0.823975
-2.00195,0.828552
-2.00653,0.834656
-2.00653,0.827026
-2.00806,0.8255
-2.01111,0.8255
-2.01416,0.828552
-2.01874,0.830078
-2.01721,0.830078
-2.02484,0.827026
-2.02484,0.823975
-2.02789,0.827026
-2.02942,0.827026
-2.03094,0.828552
-2.03247,0.828552
-2.034,0.8255
-2.03857,0.828552
-2.03857,0.827026
-2.04163,0.827026
-2.04468,0.827026
-2.04468,0.827026
-2.04773,0.830078
-2.05078,0.827026
-2.04773,0.828552
-2.05383,0.828552
-2.05841,0.828552
-2.06146,0.828552
-2.06146,0.83313
-2.05994,0.830078
-2.06146,0.827026
-2.05994,0.827026
-2.05841,0.8255
-2.05231,0.8255
-2.04926,0.828552
-2.04468,0.8255
-2.03857,0.823975
-2.03247,0.827026
-2.02789,0.828552
-2.02179,0.8255
-2.01416,0.827026
-2.00806,0.8255
-2.00348,0.827026
-1.98975,0.828552
-1.98517,0.8255
-1.97601,0.823975
-1.96686,0.8255
-1.95618,0.828552
-1.9455,0.827026
-1.93481,0.828552
-1.92719,0.822449
-1.91956,0.823975
-1.90887,0.828552
-1.9043,0.827026
-1.89056,0.827026
-1.88293,0.8255
-1.87836,0.823975
-1.8692,0.8255
-1.86157,0.827026
-1.85547,0.823975
-1.84937,0.8255
-1.84326,0.820923
-1.83868,0.8255
-1.83105,0.827026
-1.82648,0.830078
-1.8219,0.823975
-1.81427,0.823975
-1.81122,0.8255
-1.80664,0.8255
-1.80054,0.8255
-1.79596,0.822449
-1.79443,0.827026
-1.79138,0.823975
-1.78986,0.827026
-1.78528,0.827026
-1.78528,0.823975
-1.78223,0.822449
-1.78223,0.823975
-1.77917,0.823975
-1.77765,0.8255
-1.7746,0.823975
-1.77307,0.822449
-1.7746,0.823975
-1.77307,0.8255
-1.76849,0.823975
-1.76697,0.823975
-1.76697,0.822449
-1.76392,0.820923
-1.76086,0.823975
-1.75934,0.8255
-1.75781,0.823975
-1.75629,0.822449
-1.75629,0.827026
-1.75781,0.823975
-1.75934,0.8255
-1.75781,0.8255
-1.75934,0.822449
-1.75781,0.822449
-1.76086,0.8255
-1.75934,0.823975
-1.76086,0.820923
-1.76392,0.820923
-1.76239,0.823975
-1.76697,0.822449
-1.76849,0.823975
-1.76697,0.823975
-1.76849,0.820923
-1.77155,0.822449
-1.76544,0.822449
-1.77155,0.822449
-1.77917,0.819397
-1.7746,0.820923
-1.77612,0.820923
-1.77917,0.822449
-1.7807,0.822449
-1.77917,0.8255
-1.77612,0.819397
-1.77765,0.822449
-1.77765,0.8255
-1.77765,0.823975
-1.77612,0.819397
-1.7807,0.819397
-1.7807,0.819397
-1.78223,0.822449
-1.77917,0.822449
-1.78223,0.822449
-1.7807,0.820923
-1.78223,0.822449
-1.77765,0.820923
-1.7807,0.823975
-1.7807,0.819397
-1.78223,0.819397
-1.78375,0.819397
-1.78375,0.823975
-1.78223,0.819397
-1.78528,0.820923
-1.78528,0.819397
-1.78528,0.822449
-1.78833,0.823975
-1.78833,0.822449
-1.79138,0.819397
-1.79138,0.814819
-1.79291,0.822449
-1.79443,0.820923
-1.79443,0.822449
-1.79749,0.820923
-1.80359,0.817871
-1.80054,0.817871
-1.80664,0.822449
-1.80511,0.823975
-1.80969,0.819397
-1.81122,0.817871
-1.81427,0.819397
-1.8158,0.820923
-1.82037,0.822449
-1.81732,0.816345
-1.82343,0.817871
-1.82495,0.819397
-1.828,0.819397
-1.82953,0.816345
-1.83105,0.816345
-1.83563,0.817871
-1.83716,0.820923
-1.84174,0.822449
-1.84174,0.820923
-1.84326,0.817871
-1.84784,0.814819
-1.84784,0.817871
-1.84937,0.817871
-1.85394,0.820923
-1.85547,0.816345
-1.86005,0.816345
-1.86462,0.814819
-1.8631,0.820923
-1.86768,0.820923
-1.86768,0.817871
-1.87073,0.819397
-1.87225,0.814819
-1.87378,0.817871
-1.87683,0.820923
-1.87683,0.816345
-1.87836,0.814819
-1.87988,0.817871
-1.88293,0.816345
-1.88446,0.817871
-1.88751,0.817871
-1.89056,0.813293
-1.89362,0.814819
-1.89972,0.817871
-1.89972,0.819397
-1.90125,0.816345
-1.90582,0.816345
-1.90735,0.817871
-1.90735,0.816345
-1.9104,0.817871
-1.9104,0.814819
-1.91345,0.814819
-1.91803,0.814819
-1.91956,0.819397
-1.91956,0.816345
-1.92108,0.816345
-1.92566,0.813293
-1.92719,0.814819
-1.92566,0.819397
-1.93176,0.816345
-1.93634,0.819397
-1.93481,0.816345
-1.93939,0.814819
-1.94092,0.816345
-1.94244,0.817871
-1.9455,0.816345
-1.9455,0.814819
-1.95007,0.814819
-1.9516,0.817871
-1.95618,0.819397
-1.95923,0.816345
-1.9577,0.813293
-1.96838,0.814819
-1.96686,0.817871
-1.97296,0.814819
-1.97449,0.811768
-1.97449,0.811768
-1.98364,0.813293
-1.98364,0.814819
-1.98669,0.814819
-1.98822,0.817871
-1.98975,0.813293
-1.99585,0.811768
-2.00043,0.814819
-2.00195,0.814819
-2.00806,0.816345
-2.00958,0.813293
-2.01111,0.814819
-2.01569,0.814819
-2.01721,0.816345
-2.02484,0.816345
-2.02637,0.810242
-2.03094,0.810242
-2.03705,0.817871
-2.0401,0.816345
-2.0462,0.814819
-2.0462,0.811768
-2.05078,0.814819
-2.05688,0.814819
-2.06299,0.819397
-2.06604,0.813293
-2.07214,0.813293
-2.0752,0.816345
-2.07367,0.813293
-2.07672,0.813293
-2.08282,0.813293
-2.08588,0.811768
-2.08893,0.814819
-2.09198,0.816345
-2.09656,0.814819
-2.09656,0.814819
-2.09961,0.808716
-2.10114,0.814819
-2.10266,0.814819
-2.10419,0.814819
-2.10419,0.811768
-2.10724,0.80719
-2.10571,0.813293
-2.10114,0.810242
-2.10114,0.813293
-2.09656,0.813293
-2.09198,0.813293
-2.08282,0.814819
-2.07825,0.813293
-2.07214,0.817871
-2.06451,0.810242
-2.05841,0.810242
-2.04773,0.816345
-2.0401,0.814819
-2.034,0.814819
-2.02789,0.810242
-2.02026,0.810242
-2.01111,0.810242
-2.005,0.813293
-1.99585,0.813293
-1.98669,0.811768
-1.98212,0.811768
-1.97296,0.811768
-1.96686,0.813293
-1.9577,0.813293
-1.95313,0.811768
-1.94702,0.80719
-1.93939,0.810242
-1.93481,0.813293
-1.92566,0.813293
-1.92413,0.810242
-1.91803,0.80719
-1.91345,0.810242
-1.9104,0.814819
-1.90735,0.813293
-1.9043,0.808716
-1.9043,0.811768
-1.90125,0.811768
-1.89972,0.813293
-1.89514,0.814819
-1.89514,0.80719
-1.89514,0.811768
-1.89362,0.810242
-1.89209,0.811768
-1.89056,0.810242
-1.89056,0.813293
-1.89056,0.810242
-1.88904,0.80719
-1.89056,0.810242
-1.88904,0.810242
-1.88751,0.811768
-1.89056,0.808716
-1.89056,0.808716
-1.88904,0.810242
-1.88904,0.811768
-1.89056,0.808716
-1.89362,0.80719
-1.89209,0.810242
-1.89514,0.813293
-1.89362,0.811768
-1.89819,0.808716
-1.90125,0.810242
-1.90277,0.80719
-1.90582,0.80719
-1.90277,0.808716
-1.9043,0.80719
-1.90582,0.80719
-1.91193,0.808716
-1.91345,0.80719
-1.9165,0.808716
-1.9165,0.808716
-1.91803,0.80719
-1.91803,0.810242
-1.92108,0.80719
-1.92108,0.810242
-1.92108,0.805664
-1.92108,0.80719
-1.92261,0.805664
-1.92413,0.808716
-1.92261,0.808716
-1.92719,0.80719
-1.92719,0.80719
-1.93024,0.80719
-1.93024,0.80719
-1.93176,0.808716
-1.93329,0.80719
-1.93176,0.808716
-1.93481,0.808716
-1.93176,0.80719
-1.93329,0.80719
-1.93634,0.805664
-1.93329,0.80719
-1.93481,0.80719
-1.93634,0.80719
-1.93787,0.805664
-1.93481,0.80719
-1.93939,0.805664
-1.93634,0.804138
-1.94092,0.810242
-1.94092,0.810242
-1.94092,0.80719
-1.94702,0.801086
-1.94702,0.804138
-1.9455,0.808716
-1.94702,0.80719
-1.9516,0.80719
-1.95313,0.80719
-1.95618,0.804138
-1.95465,0.810242
-1.9577,0.810242
-1.95618,0.80719
-1.96228,0.80719
-1.96228,0.805664
-1.96686,0.805664
-1.96686,0.810242
-1.96686,0.80719
-1.96686,0.805664
-1.97144,0.805664
-1.96991,0.805664
-1.97144,0.80719
-1.96991,0.808716
-1.97144,0.804138
-1.97296,0.808716
-1.97296,0.805664
-1.97906,0.80719
-1.97906,0.805664
-1.97906,0.805664
-1.98212,0.805664
-1.98517,0.80719
-1.98822,0.804138
-1.99432,0.804138
-1.99585,0.804138
-1.99738,0.80719
-1.9989,0.805664
-2.00348,0.80719
-2.005,0.805664
-2.00806,0.80719
-2.01111,0.801086
-2.01263,0.805664
-2.01569,0.805664
-2.01416,0.804138
-2.02026,0.801086
-2.01874,0.804138
-2.02484,0.801086
-2.02789,0.80719
-2.03094,0.804138
-2.03247,0.799561
-2.03552,0.80719
-2.0401,0.801086
-2.04163,0.805664
-2.04773,0.801086
-2.04926,0.798035
-2.05383,0.804138
-2.05688,0.801086
-2.05994,0.804138
-2.06757,0.805664
-2.06757,0.799561
-2.07062,0.805664
-2.07367,0.801086
-2.07672,0.805664
-2.0813,0.804138
-2.08435,0.805664
-2.09045,0.799561
-2.09198,0.799561
-2.09198,0.805664
-2.09656,0.805664
-2.09961,0.804138
-2.10114,0.80719
-2.10419,0.805664
-2.10876,0.80719
-2.11182,0.798035
-2.11334,0.804138
-2.11639,0.799561
-2.11945,0.801086
-2.12402,0.799561
-2.12555,0.801086
-2.13013,0.801086
-2.13013,0.801086
-2.1347,0.801086
-2.13928,0.801086
-2.13776,0.801086
-2.14233,0.798035
-2.14233,0.799561
-2.14691,0.805664
-2.14844,0.801086
-2.15302,0.799561
-2.15302,0.796509
-2.15607,0.798035
-2.15912,0.799561
-2.16064,0.801086
-2.1637,0.799561
-2.16522,0.798035
-2.16675,0.801086
-2.17285,0.804138
-2.17133,0.804138
-2.1759,0.801086
-2.17743,0.799561
-2.18048,0.801086
-2.18506,0.804138
-2.18811,0.799561
-2.18964,0.799561
-2.19116,0.796509
-2.19116,0.798035
-2.19116,0.804138
-2.19116,0.799561
-2.18964,0.801086
-2.19116,0.799561
-2.19269,0.799561
-2.19116,0.798035
-2.18964,0.804138
-2.18811,0.798035
-2.18353,0.796509
-2.17743,0.798035
-2.17438,0.801086
-2.16827,0.804138
-2.1637,0.798035
-2.15759,0.801086
-2.15149,0.799561
-2.14233,0.804138
-2.1347,0.798035
-2.12555,0.796509
-2.12097,0.796509
-2.11182,0.799561
-2.10114,0.801086
-2.09656,0.801086
-2.08435,0.799561
-2.07825,0.798035
-2.07367,0.801086
-2.06299,0.801086
-2.05841,0.804138
-2.04773,0.798035
-2.0401,0.794983
-2.03705,0.798035
-2.03094,0.796509
-2.02942,0.804138
-2.02179,0.794983
-2.01569,0.798035
-2.01416,0.798035
-2.00958,0.799561
-2.005,0.799561
-2.00348,0.798035
-1.9989,0.799561
-2.00043,0.798035
-1.9989,0.798035
-1.99585,0.798035
-1.9928,0.796509
-1.98822,0.796509
-1.98975,0.798035
-1.98517,0.799561
-1.98669,0.799561
-1.98517,0.798035
-1.98517,0.796509
-1.98059,0.798035
-1.98212,0.799561
-1.98059,0.798035
-1.98212,0.796509
-1.97906,0.798035
-1.98059,0.796509
-1.97906,0.796509
-1.97906,0.798035
-1.98212,0.796509
-1.97601,0.793457
-1.97906,0.798035
-1.97601,0.794983
-1.97754,0.798035
-1.97906,0.794983
-1.97601,0.793457
-1.97906,0.796509
-1.97906,0.796509
-1.98364,0.796509
-1.98669,0.794983
-1.98364,0.796509
-1.98517,0.796509
-1.98669,0.794983
-1.98975,0.799561
-1.9928,0.796509
-1.99432,0.794983
-1.99738,0.796509
-1.99738,0.796509
-1.9989,0.799561
-1.9989,0.796509
-2.005,0.793457
-2.00653,0.793457
-2.005,0.798035
-2.005,0.796509
-2.00653,0.794983
-2.00958,0.790405
-2.00806,0.794983
-2.00958,0.796509
-2.00806,0.798035
-2.005,0.793457
-2.00653,0.794983
-2.005,0.796509
-2.00806,0.794983
-2.005,0.798035
-2.00348,0.794983
-2.005,0.791931
-2.00348,0.796509
-2.00348,0.798035
-2.00195,0.796509
-2.00348,0.794983
-2.00348,0.791931
-2.00348,0.796509
-2.00195,0.798035
-2.00653,0.798035
-2.00195,0.796509
-2.00348,0.794983
-2.005,0.791931
-2.00043,0.794983
-2.00195,0.794983
-2.00348,0.794983
-2.00043,0.794983
-2.005,0.796509
-2.00958,0.796509
-2.00653,0.794983
-2.00958,0.793457
-2.00958,0.791931
-2.00958,0.794983
-2.01263,0.796509
-2.01416,0.796509
-2.01569,0.793457
-2.01721,0.794983
-2.01721,0.794983
-2.01416,0.796509
-2.02026,0.794983
-2.02179,0.793457
-2.02637,0.793457
-2.02637,0.793457
-2.02942,0.793457
-2.03247,0.798035
-2.03247,0.794983
-2.034,0.794983
-2.03705,0.793457
-2.0401,0.799561
-2.04315,0.793457
-2.04468,0.794983
-2.04773,0.796509
-2.04773,0.796509
-2.05078,0.794983
-2.05841,0.796509
-2.05841,0.796509
-2.06146,0.791931
-2.06299,0.791931
-2.06146,0.796509
-2.06604,0.794983
-2.06909,0.794983
-2.06909,0.791931
-2.07214,0.794983
-2.0752,0.796509
-2.07672,0.796509
-2.07825,0.794983
-2.07825,0.794983
-2.08282,0.794983
-2.08435,0.793457
-2.08435,0.798035
-2.09045,0.794983
-2.09351,0.793457
-2.09503,0.796509
-2.09808,0.791931
-2.09808,0.799561
-2.10571,0.793457
-2.10724,0.794983
-2.11029,0.791931
-2.11334,0.791931
-2.11487,0.793457
-2.11945,0.794983
-2.12097,0.793457
-2.12555,0.793457
-2.1286,0.793457
-2.13013,0.794983
-2.1286,0.793457
-2.1347,0.790405
-2.13318,0.793457
-2.13776,0.794983
-2.13776,0.794983
-2.13928,0.793457
-2.14539,0.791931
-2.14844,0.794983
-2.15302,0.791931
-2.15607,0.796509
-2.15759,0.791931
-2.15759,0.793457
-2.16064,0.794983
-2.16217,0.794983
-2.1637,0.796509
-2.1637,0.791931
-2.16675,0.790405
-2.16827,0.791931
-2.16675,0.796509
-2.16675,0.796509
-2.17285,0.794983
-2.1759,0.794983
-2.1759,0.794983
-2.17896,0.796509
-2.18048,0.798035
-2.17896,0.793457
-2.18658,0.794983
-2.18658,0.790405
-2.18811,0.791931
-2.18964,0.799561
-2.18811,0.798035
-2.19116,0.794983
-2.19421,0.794983
-2.19574,0.798035
-2.19879,0.798035
-2.20184,0.793457
-2.20337,0.796509
-2.20337,0.796509
-2.20642,0.798035
-2.20795,0.799561
-2.20642,0.796509
-2.211,0.793457
-2.211,0.796509
-2.211,0.801086
-2.21558,0.796509
-2.2171,0.798035
-2.2171,0.796509
-2.21863,0.796509
-2.2171,0.799561
-2.21558,0.796509
-2.2171,0.796509
-2.21863,0.793457
-2.21405,0.798035
-2.211,0.796509
-2.20795,0.798035
-2.20337,0.796509
-2.19879,0.799561
-2.19574,0.798035
-2.18964,0.801086
-2.18048,0.801086
-2.1759,0.798035
-2.17133,0.796509
-2.16522,0.798035
-2.15607,0.799561
-2.14691,0.801086
-2.13928,0.796509
-2.13165,0.801086
-2.12555,0.798035
-2.11639,0.804138
-2.10724,0.801086
-2.09808,0.798035
-2.09045,0.794983
-2.08282,0.799561
-2.07367,0.801086
-2.06604,0.799561
-2.05688,0.798035
-2.04926,0.798035
-2.04468,0.801086
-2.0401,0.805664
-2.034,0.801086
-2.02942,0.798035
-2.02179,0.801086
-2.02179,0.804138
-2.01416,0.804138
-2.01111,0.804138
-2.00806,0.798035
-2.00653,0.798035
-2.005,0.801086
-2.00348,0.804138
-2.00043,0.801086
-1.99738,0.799561
-2.00043,0.804138
-2.00043,0.799561
-1.99738,0.801086
-1.99738,0.801086
-1.99585,0.804138
-1.99585,0.801086
-1.9928,0.804138
-1.9928,0.805664
-1.9928,0.805664
-1.99432,0.799561
-1.98975,0.799561
-1.98975,0.804138
-1.98822,0.805664
-1.98669,0.804138
-1.98364,0.801086
-1.98517,0.80719
-1.98517,0.804138
-1.98364,0.805664
-1.98364,0.810242
-1.98364,0.804138
-1.98364,0.801086
-1.98517,0.804138
-1.98059,0.808716
-1.98822,0.80719
-1.98975,0.805664
-1.98822,0.804138
-1.98822,0.804138
-1.9928,0.810242
-1.9928,0.80719
-1.98975,0.808716
-1.9928,0.80719
-1.9928,0.80719
-1.99432,0.80719
-1.99432,0.808716
-1.99585,0.808716
-1.99585,0.80719
-1.99738,0.80719
-1.99738,0.810242
-1.99585,0.805664
-1.9989,0.80719
-2.00043,0.80719
-1.9989,0.810242
-2.00043,0.80719
-1.99585,0.808716
-1.99585,0.808716
-1.9989,0.808716
-1.99738,0.810242
-1.99585,0.810242
-1.9928,0.811768
-1.9928,0.808716
-1.99585,0.80719
-1.9928,0.808716
-1.99738,0.810242
-1.99585,0.813293
-1.99738,0.808716
-1.9989,0.805664
-1.9989,0.808716
-1.99738,0.811768
-1.99738,0.811768
-1.9989,0.813293
-1.99738,0.810242
-1.9989,0.811768
-2.00043,0.811768
-2.00043,0.816345
-1.9989,0.811768
-1.99738,0.810242
-2.00348,0.814819
-2.00348,0.811768
-2.00043,0.811768
-2.00195,0.813293
-2.005,0.810242
-2.00653,0.811768
-2.00348,0.814819
-2.00958,0.811768
-2.00958,0.810242
-2.00806,0.808716
-2.00958,0.813293
-2.01111,0.816345
-2.00958,0.811768
-2.01263,0.813293
-2.01263,0.810242
-2.01416,0.813293
-2.01416,0.814819
-2.01569,0.814819
-2.01416,0.813293
-2.01569,0.811768
-2.02026,0.810242
-2.01874,0.817871
-2.02637,0.814819
-2.02637,0.813293
-2.02637,0.810242
-2.02484,0.813293
-2.02789,0.814819
-2.02789,0.814819
-2.02942,0.814819
-2.034,0.813293
-2.034,0.814819
-2.03705,0.814819
-2.03705,0.814819
-2.0401,0.813293
-2.04163,0.814819
-2.04468,0.813293
-2.04468,0.814819
-2.0462,0.814819
-2.0462,0.814819
-2.05078,0.813293
-2.05383,0.814819
-2.05231,0.817871
-2.05383,0.820923
-2.05383,0.814819
-2.05688,0.814819
-2.05841,0.817871
-2.05994,0.817871
-2.05994,0.820923
-2.06299,0.817871
-2.06604,0.814819
-2.06604,0.819397
-2.06757,0.820923
-2.07214,0.816345
-2.07062,0.817871
-2.0752,0.819397
-2.0752,0.813293
-2.07977,0.819397
-2.08282,0.819397
-2.08588,0.816345
-2.08435,0.816345
-2.08893,0.816345
-2.08893,0.822449
-2.09045,0.816345
-2.09198,0.817871
-2.09198,0.811768
-2.09656,0.819397
-2.09503,0.819397
-2.09808,0.819397
-2.09961,0.819397
-2.10266,0.819397
-2.10266,0.817871
-2.10571,0.817871
-2.11029,0.820923
-2.11029,0.819397
-2.11487,0.817871
-2.11487,0.819397
-2.11639,0.820923
-2.1225,0.820923
-2.12555,0.816345
-2.12555,0.816345
-2.13165,0.816345
-2.13318,0.820923
-2.13318,0.820923
-2.13623,0.817871
-2.13776,0.817871
-2.13928,0.820923
-2.14539,0.819397
-2.14386,0.822449
-2.14691,0.819397
-2.14844,0.820923
-2.15149,0.816345
-2.15302,0.819397
-2.15912,0.819397
-2.16064,0.819397
-2.16522,0.817871
-2.1637,0.820923
-2.16675,0.816345
-2.16827,0.822449
-2.17133,0.819397
-2.17438,0.820923
-2.17743,0.820923
-2.17743,0.822449
-2.18048,0.822449
-2.18353,0.820923
-2.18658,0.819397
-2.18964,0.819397
-2.18964,0.822449
-2.18964,0.823975
-2.18964,0.822449
-2.18811,0.819397
-2.18964,0.819397
-2.18811,0.822449
-2.18658,0.823975
-2.18506,0.822449
-2.18048,0.817871
-2.1759,0.820923
-2.17285,0.823975
-2.1637,0.8255
-2.15759,0.820923
-2.14691,0.819397
-2.14081,0.822449
-2.13318,0.819397
-2.12097,0.820923
-2.11487,0.820923
-2.10571,0.822449
-2.09656,0.820923
-2.09045,0.820923
-2.07977,0.822449
-2.07062,0.820923
-2.06146,0.819397
-2.05231,0.823975
-2.04468,0.823975
-2.03705,0.822449
-2.02789,0.823975
-2.02179,0.819397
-2.01111,0.823975
-2.00348,0.823975
-2.00043,0.822449
-1.99432,0.822449
-1.98517,0.820923
-1.98059,0.8255
-1.97296,0.8255
-1.96686,0.822449
-1.96381,0.8255
-1.96381,0.819397
-1.95923,0.822449
-1.95465,0.823975
-1.9516,0.8255
-1.95007,0.819397
-1.94855,0.817871
-1.94702,0.820923
-1.94244,0.8255
-1.94092,0.8255
-1.93481,0.823975
-1.94244,0.822449
-1.93329,0.820923
-1.93329,0.8255
-1.93176,0.822449
-1.93024,0.822449
-1.93024,0.819397
-1.92566,0.819397
-1.93024,0.8255
-1.92413,0.822449
-1.92566,0.820923
-1.92261,0.820923
-1.92261,0.822449
-1.92413,0.820923
-1.92108,0.8255
-1.91803,0.823975
-1.92108,0.823975
-1.92108,0.822449
-1.92108,0.8255
-1.92413,0.8255
-1.92261,0.819397
-1.92566,0.820923
-1.92261,0.820923
-1.92413,0.820923
-1.92566,0.8255
-1.93024,0.822449
-1.93024,0.822449
-1.93024,0.822449
-1.93176,0.8255
-1.93176,0.820923
-1.93176,0.822449
-1.93634,0.817871
-1.93634,0.822449
-1.93481,0.8255
-1.93481,0.822449
-1.93481,0.823975
-1.93329,0.822449
-1.93176,0.822449
-1.93787,0.823975
-1.93481,0.827026
-1.93481,0.819397
-1.93634,0.822449
-1.93634,0.820923
-1.93634,0.823975
-1.93787,0.822449
-1.93481,0.820923
-1.93634,0.822449
-1.93634,0.823975
-1.93481,0.823975
-1.93634,0.823975
-1.93787,0.822449
-1.93481,0.822449
-1.93329,0.822449
-1.93329,0.823975
-1.93481,0.8255
-1.93176,0.822449
-1.93481,0.819397
-1.93024,0.822449
-1.93329,0.823975
-1.93024,0.823975
-1.93329,0.820923
-1.93176,0.823975
-1.93481,0.820923
-1.93481,0.8255
-1.93176,0.8255
-1.93787,0.820923
-1.93634,0.819397
-1.93481,0.823975
-1.93481,0.823975
-1.93787,0.823975
-1.93787,0.819397
-1.93481,0.819397
-1.93634,0.823975
-1.94092,0.823975
-1.93939,0.827026
-1.94092,0.823975
-1.94244,0.822449
-1.94397,0.822449
-1.94397,0.823975
-1.94092,0.822449
-1.94397,0.823975
-1.94702,0.819397
-1.94702,0.820923
-1.9455,0.819397
-1.95007,0.8255
-1.9516,0.822449
-1.95007,0.820923
-1.95007,0.822449
-1.95465,0.820923
-1.95313,0.822449
-1.9577,0.820923
-1.9577,0.820923
-1.96533,0.822449
-1.96533,0.823975
-1.96533,0.827026
-1.96838,0.819397
-1.96838,0.822449
-1.96838,0.820923
-1.97449,0.820923
-1.97601,0.8255
-1.97906,0.822449
-1.98059,0.819397
-1.98212,0.822449
-1.98517,0.820923
-1.98669,0.822449
-1.98822,0.820923
-1.98975,0.819397
-1.99738,0.820923
-1.9989,0.823975
-1.99585,0.822449
-2.00348,0.822449
-2.005,0.819397
-2.005,0.819397
-2.00348,0.822449
-2.005,0.823975
-2.01111,0.819397
-2.01263,0.819397
-2.01416,0.819397
-2.01569,0.822449
-2.01721,0.822449
-2.02179,0.820923
-2.02484,0.817871
-2.02637,0.819397
-2.02942,0.819397
-2.034,0.823975
-2.03552,0.819397
-2.034,0.819397
-2.0401,0.820923
-2.03857,0.820923
-2.04163,0.820923
-2.04468,0.819397
-2.04315,0.819397
-2.05078,0.820923
-2.05078,0.820923
-2.05383,0.822449
-2.05383,0.820923
-2.05994,0.819397
-2.06299,0.823975
-2.06604,0.822449
-2.06451,0.823975
-2.06909,0.819397
-2.07214,0.816345
-2.07214,0.817871
-2.07672,0.822449
-2.07367,0.820923
-2.07825,0.819397
-2.0813,0.817871
-2.0813,0.817871
-2.08588,0.819397
-2.08282,0.822449
-2.08435,0.819397
-2.08893,0.820923
-2.08435,0.816345
-2.08282,0.822449
-2.0813,0.820923
-2.07977,0.820923
-2.07977,0.819397
-2.07214,0.819397
-2.06909,0.820923
-2.06451,0.820923
-2.05994,0.817871
-2.05383,0.820923
-2.04468,0.819397
-2.03857,0.822449
-2.02942,0.822449
-2.02179,0.819397
-2.01569,0.816345
-2.00653,0.819397
-1.9989,0.823975
-1.98975,0.820923
-1.98364,0.816345
-1.97449,0.816345
-1.96228,0.822449
-1.95465,0.819397
-1.94855,0.822449
-1.94092,0.819397
-1.93329,0.817871
-1.92566,0.819397
-1.91803,0.820923
-1.91193,0.817871
-1.9043,0.816345
-1.89514,0.817871
-1.88904,0.817871
-1.88446,0.819397
-1.87836,0.817871
-1.87073,0.816345
-1.86768,0.816345
-1.86005,0.816345
-1.85852,0.820923
-1.85089,0.823975
-1.85242,0.816345
-1.84631,0.819397
-1.84479,0.816345
-1.84021,0.819397
-1.83716,0.820923
-1.83716,0.814819
-1.83258,0.817871
-1.83105,0.816345
-1.82953,0.814819
-1.82648,0.819397
-1.828,0.817871
-1.82648,0.813293
-1.82343,0.819397
-1.82648,0.819397
-1.8219,0.817871
-1.82343,0.817871
-1.82343,0.814819
-1.82495,0.813293
-1.8219,0.817871
-1.82648,0.816345
-1.82495,0.817871
-1.82495,0.816345
-1.828,0.814819
-1.83105,0.817871
-1.82953,0.814819
-1.83105,0.814819
-1.83258,0.813293
-1.83105,0.814819
-1.83258,0.819397
-1.83563,0.817871
-1.83563,0.816345
-1.83868,0.814819
-1.84021,0.814819
-1.83868,0.814819
-1.84021,0.814819
-1.84021,0.814819
-1.84326,0.813293
-1.84631,0.816345
-1.84479,0.816345
-1.84631,0.817871
-1.84784,0.814819
-1.84937,0.816345
-1.84937,0.816345
-1.84937,0.817871
-1.85089,0.816345
-1.84937,0.816345
-1.85242,0.814819
-1.85242,0.813293
-1.84937,0.816345
-1.85089,0.814819
-1.85242,0.816345
-1.85394,0.810242
-1.85394,0.813293
-1.85394,0.814819
-1.85394,0.816345
-1.85547,0.811768
-1.85699,0.816345
-1.85547,0.816345
-1.85394,0.816345
-1.85547,0.816345
-1.85852,0.814819
-1.85699,0.810242
-1.85699,0.814819
-1.85547,0.814819
-1.85699,0.816345
-1.85852,0.814819
-1.85852,0.813293
-1.85699,0.813293
-1.85699,0.814819
-1.85852,0.814819
-1.86157,0.813293
-1.8631,0.811768
-1.86462,0.811768
-1.8692,0.817871
-1.86768,0.816345
-1.87073,0.813293
-1.87225,0.813293
-1.87531,0.811768
-1.87836,0.813293
-1.87683,0.816345
-1.87683,0.811768
-1.87988,0.810242
-1.88293,0.816345
-1.88599,0.813293
-1.88751,0.814819
-1.88599,0.813293
-1.89056,0.810242
-1.89056,0.813293
-1.89056,0.817871
-1.89362,0.814819
-1.89209,0.813293
-1.89819,0.810242
-1.89972,0.811768
-1.89972,0.811768
-1.90125,0.813293
-1.90277,0.811768
-1.90277,0.808716
-1.90735,0.810242
-1.90887,0.816345
-1.91193,0.811768
-1.91345,0.810242
-1.91803,0.808716
-1.91803,0.813293
-1.91956,0.813293
-1.92566,0.814819
-1.92566,0.810242
-1.93024,0.80719
-1.93024,0.811768
-1.93481,0.810242
-1.93787,0.811768
-1.93939,0.811768
-1.94397,0.811768
-1.9455,0.810242
-1.94702,0.810242
-1.94855,0.808716
-1.94855,0.808716
-1.9516,0.808716
-1.9516,0.810242
-1.95618,0.810242
-1.9577,0.814819
-1.95923,0.808716
-1.96533,0.808716
-1.96533,0.808716
-1.96991,0.810242
-1.96991,0.810242
-1.97144,0.808716
-1.97296,0.808716
-1.97754,0.810242
-1.97754,0.810242
-1.98059,0.813293
-1.98517,0.80719
-1.98364,0.805664
-1.98669,0.808716
-1.9928,0.808716
-1.99432,0.811768
-1.99585,0.810242
-2.00043,0.808716
-2.00195,0.811768
-2.00653,0.811768
-2.00958,0.813293
-2.00958,0.80719
-2.01416,0.810242
-2.01721,0.810242
-2.01874,0.811768
-2.02026,0.80719
-2.02179,0.810242
-2.02484,0.808716
-2.03094,0.810242
-2.03094,0.814819
-2.03552,0.810242
-2.03705,0.808716
-2.03857,0.804138
-2.04315,0.80719
-2.04468,0.80719
-2.04773,0.810242
-2.04926,0.805664
-2.05078,0.808716
-2.05231,0.810242
-2.05841,0.810242
-2.05994,0.810242
-2.06451,0.805664
-2.06299,0.80719
-2.06604,0.805664
-2.07214,0.810242
-2.07367,0.810242
-2.07367,0.805664
-2.07672,0.80719
-2.07672,0.80719
-2.07825,0.810242
-2.07672,0.808716
-2.07825,0.80719
-2.0813,0.804138
-2.07825,0.80719
-2.07825,0.80719
-2.0752,0.808716
-2.07062,0.80719
-2.06909,0.804138
-2.06757,0.805664
-2.06146,0.80719
-2.05383,0.808716
-2.04773,0.804138
-2.04315,0.804138
-2.03705,0.808716
-2.02789,0.80719
-2.01874,0.811768
-2.00653,0.805664
-2.00195,0.804138
-1.9928,0.80719
-1.98364,0.80719
-1.97296,0.808716
-1.96381,0.805664
-1.95313,0.80719
-1.94702,0.80719
-1.93787,0.805664
-1.93024,0.80719
-1.91956,0.804138
-1.91193,0.808716
-1.90582,0.801086
-1.89362,0.808716
-1.88904,0.810242
-1.88446,0.804138
-1.87531,0.805664
-1.87073,0.805664
-1.86005,0.805664
-1.86005,0.808716
-1.85089,0.804138
-1.84784,0.801086
-1.84631,0.805664
-1.84174,0.805664
-1.83868,0.805664
-1.83563,0.80719
-1.83105,0.804138
-1.8219,0.80719
-1.82037,0.804138
-1.81885,0.80719
-1.81732,0.801086
-1.81274,0.804138
-1.81274,0.805664
-1.80817,0.80719
-1.80511,0.808716
-1.80511,0.80719
-1.80969,0.799561
-1.80664,0.805664
-1.80359,0.80719
-1.80054,0.805664
-1.79901,0.804138
-1.79596,0.804138
-1.79749,0.801086
-1.79291,0.804138
-1.78986,0.804138
-1.79138,0.804138
-1.78986,0.799561
-1.7868,0.804138
-1.78986,0.80719
-1.78833,0.808716
-1.79138,0.799561
-1.78986,0.804138
-1.78986,0.804138
-1.79138,0.804138
-1.79138,0.801086
-1.79443,0.804138
-1.79291,0.804138
-1.79291,0.801086
-1.79291,0.801086
-1.79443,0.805664
-1.79596,0.804138
-1.79749,0.798035
-1.79749,0.799561
-1.79443,0.799561
-1.80054,0.804138
-1.79749,0.799561
-1.80054,0.799561
-1.80054,0.804138
-1.80054,0.801086
-1.80054,0.80719
-1.80511,0.798035
-1.79901,0.798035
-1.79749,0.801086
-1.80359,0.801086
-1.80359,0.801086
-1.80511,0.801086
-1.80359,0.799561
-1.80664,0.796509
-1.80359,0.804138
-1.80359,0.804138
-1.80359,0.799561
-1.80511,0.799561
-1.80359,0.801086
-1.80359,0.80719
-1.80359,0.805664
-1.80511,0.798035
-1.80664,0.799561
-1.80664,0.801086
-1.80969,0.801086
-1.80664,0.801086
-1.80817,0.801086
-1.80664,0.796509
-1.80054,0.801086
-1.79901,0.80719
-1.80359,0.799561
-1.80054,0.798035
-1.80511,0.798035
-1.80664,0.801086
-1.80664,0.805664
-1.80969,0.804138
-1.80969,0.799561
-1.80817,0.798035
-1.80817,0.801086
-1.81122,0.799561
-1.80969,0.804138
-1.81274,0.799561
-1.81274,0.796509
-1.8158,0.798035
-1.81732,0.804138
-1.8158,0.804138
-1.82037,0.799561
-1.82037,0.801086
-1.82037,0.804138
-1.8219,0.804138
-1.82648,0.801086
-1.82495,0.801086
-1.82648,0.798035
-1.828,0.799561
-1.83258,0.798035
-1.83258,0.801086
-1.83716,0.798035
-1.83868,0.798035
-1.83868,0.804138
-1.84174,0.805664
-1.84631,0.801086
-1.84326,0.804138
-1.84479,0.796509
-1.84784,0.799561
-1.84784,0.805664
-1.85089,0.798035
-1.85242,0.799561
-1.85394,0.798035
-1.85699,0.804138
-1.85852,0.798035
-1.86005,0.804138
-1.86157,0.799561
-1.86462,0.798035
-1.86768,0.799561
-1.87073,0.801086
-1.87225,0.801086
-1.87531,0.798035
-1.87683,0.793457
-1.88293,0.799561
-1.88599,0.801086
-1.88904,0.801086
-1.89056,0.799561
-1.88904,0.798035
-1.89514,0.799561
-1.89972,0.799561
-1.9043,0.798035
-1.90582,0.799561
-1.90582,0.794983
-1.9104,0.798035
-1.91345,0.798035
-1.9165,0.801086
-1.91803,0.796509
-1.92108,0.798035
-1.92413,0.798035
-1.93024,0.804138
-1.93176,0.799561
-1.93481,0.796509
-1.93634,0.798035
-1.93787,0.798035
-1.93939,0.801086
-1.93939,0.801086
-1.9455,0.796509
-1.95007,0.794983
-1.94855,0.794983
-1.9516,0.801086
-1.95313,0.799561
-1.95465,0.799561
-1.95618,0.798035
-1.95923,0.798035
-1.96381,0.801086
-1.96686,0.798035
-1.96991,0.799561
-1.96991,0.796509
-1.97449,0.796509
-1.97449,0.798035
-1.97601,0.798035
-1.98212,0.801086
-1.98364,0.798035
-1.98364,0.796509
-1.98975,0.798035
-1.99585,0.799561
-1.9989,0.799561
-2.005,0.796509
-2.00653,0.798035
-2.00958,0.799561
-2.01569,0.798035
-2.01569,0.798035
-2.01874,0.794983
-2.02179,0.798035
-2.02484,0.799561
-2.03094,0.801086
-2.03094,0.796509
-2.03705,0.799561
-2.03705,0.796509
-2.03857,0.796509
-2.04468,0.799561
-2.04163,0.798035
-2.04163,0.796509
-2.04315,0.794983
-2.04315,0.793457
-2.04315,0.796509
-2.04163,0.794983
-2.0401,0.796509
-2.034,0.796509
-2.03094,0.798035
-2.02789,0.796509
-2.01874,0.796509
-2.01263,0.794983
-2.00958,0.798035
-2.00348,0.798035
-1.9928,0.796509
-1.98517,0.796509
-1.97449,0.793457
-1.96686,0.794983
-1.95923,0.793457
-1.95313,0.796509
-1.93939,0.794983
-1.93329,0.791931
-1.92413,0.796509
-1.9165,0.796509
-1.90735,0.794983
-1.89819,0.798035
-1.88904,0.791931
-1.88141,0.794983
-1.87073,0.796509
-1.86005,0.796509
-1.85394,0.794983
-1.84479,0.794983
-1.83868,0.796509
-1.82495,0.799561
-1.81885,0.799561
-1.8158,0.796509
-1.80817,0.793457
-1.79901,0.796509
-1.79749,0.798035
-1.79291,0.796509
-1.78833,0.794983
-1.78528,0.794983
-1.78223,0.793457
-1.77765,0.796509
-1.7746,0.798035
-1.77155,0.796509
-1.76849,0.796509
-1.76544,0.793457
-1.76392,0.798035
-1.76392,0.793457
-1.76239,0.793457
-1.76086,0.791931
-1.75629,0.793457
-1.75629,0.796509
-1.75476,0.794983
-1.75171,0.794983
-1.75323,0.794983
-1.74866,0.794983
-1.74713,0.796509
-1.75018,0.798035
-1.74866,0.794983
-1.74866,0.794983
-1.75018,0.794983
-1.75018,0.794983
-1.75018,0.798035
-1.75171,0.793457
-1.75018,0.793457
-1.75171,0.794983
-1.75323,0.794983
-1.75476,0.794983
-1.75781,0.790405
-1.75781,0.791931
-1.75934,0.793457
-1.75781,0.794983
-1.76086,0.798035
-1.76392,0.793457
-1.76544,0.791931
-1.76239,0.791931
-1.76392,0.798035
-1.76392,0.796509
-1.76697,0.793457
-1.76544,0.793457
-1.76697,0.794983
-1.76697,0.793457
-1.76849,0.799561
-1.77155,0.791931
-1.77155,0.791931
-1.77155,0.796509
-1.76849,0.796509
-1.77307,0.793457
-1.77155,0.796509
-1.77155,0.790405
-1.7746,0.794983
-1.7746,0.796509
-1.7746,0.796509
-1.77307,0.793457
-1.7746,0.794983
-1.7746,0.796509
-1.77307,0.793457
-1.77612,0.794983
-1.77765,0.793457
-1.7746,0.791931
-1.77612,0.796509
-1.77307,0.794983
-1.77612,0.794983
-1.7746,0.793457
-1.7746,0.791931
-1.77612,0.794983
-1.77612,0.791931
-1.7746,0.798035
-1.77612,0.793457
-1.77917,0.791931
-1.77917,0.788879
-1.7807,0.793457
-1.77612,0.793457
-1.7807,0.790405
-1.78528,0.794983
-1.7868,0.788879
-1.78375,0.793457
-1.7868,0.794983
-1.78833,0.791931
-1.78986,0.790405
-1.79138,0.793457
-1.79443,0.791931
-1.79749,0.794983
-1.79749,0.790405
-1.80359,0.790405
-1.80359,0.791931
-1.80359,0.793457
-1.80817,0.790405
-1.80817,0.791931
-1.81427,0.787354
-1.81274,0.793457
-1.81274,0.794983
-1.8158,0.794983
-1.81885,0.791931
-1.82343,0.791931
-1.82495,0.790405
-1.82648,0.793457
-1.82953,0.794983
-1.83258,0.791931
-1.83258,0.790405
-1.84021,0.790405
-1.84326,0.794983
-1.84631,0.796509
-1.84784,0.793457
-1.84937,0.788879
-1.85394,0.791931
-1.85242,0.793457
-1.85699,0.790405
-1.86005,0.790405
-1.8631,0.791931
-1.86462,0.791931
-1.87073,0.791931
-1.87378,0.793457
-1.87378,0.791931
-1.87683,0.790405
-1.87988,0.790405
-1.88293,0.790405
-1.88446,0.793457
-1.88751,0.793457
-1.89362,0.788879
-1.88904,0.790405
-1.89209,0.791931
-1.89972,0.793457
-1.89819,0.790405
-1.90277,0.787354
-1.90582,0.788879
-1.9104,0.791931
-1.90887,0.790405
-1.91345,0.788879
-1.91498,0.787354
-1.9165,0.788879
-1.91498,0.790405
-1.92108,0.790405
-1.92719,0.790405
-1.93024,0.787354
-1.93329,0.788879
-1.93481,0.791931
-1.93939,0.791931
-1.94244,0.788879
-1.9455,0.787354
-1.95007,0.788879
-1.95465,0.790405
-1.95618,0.790405
-1.96228,0.788879
-1.96228,0.787354
-1.96686,0.790405
-1.96991,0.787354
-1.97449,0.790405
-1.97449,0.787354
-1.97906,0.787354
-1.98212,0.788879
-1.98364,0.787354
-1.98669,0.791931
-1.98975,0.790405
-1.99432,0.785828
-2.00043,0.788879
-2.00043,0.784302
-2.00043,0.793457
-2.00043,0.785828
-2.00043,0.785828
-1.99738,0.788879
-1.99432,0.787354
-1.98975,0.788879
-1.98669,0.791931
-1.98212,0.785828
-1.97754,0.790405
-1.97144,0.787354
-1.96381,0.788879
-1.95465,0.790405
-1.94702,0.787354
-1.93634,0.787354
-1.92719,0.791931
-1.91956,0.787354
-1.90582,0.787354
-1.89819,0.790405
-1.88751,0.788879
-1.87683,0.791931
-1.86768,0.788879
-1.85852,0.788879
-1.84937,0.782776
-1.83716,0.787354
-1.828,0.788879
-1.82037,0.788879
-1.81122,0.785828
-1.80359,0.787354
-1.79291,0.787354
-1.7868,0.788879
-1.78223,0.785828
-1.7746,0.784302
-1.76392,0.782776
-1.75934,0.787354
-1.75171,0.787354
-1.74866,0.788879
-1.74408,0.785828
-1.73492,0.782776
-1.73035,0.787354
-1.72577,0.787354
-1.72119,0.788879
-1.71967,0.788879
-1.71204,0.78125
-1.71051,0.787354
-1.70593,0.785828
-1.70135,0.782776
-1.70135,0.782776
-1.69983,0.778198
-1.6983,0.782776
-1.6922,0.785828
-1.69067,0.788879
-1.69067,0.785828
-1.68762,0.784302
-1.6861,0.787354
-1.6861,0.790405
-1.68304,0.788879
-1.67999,0.785828
-1.6861,0.784302
-1.67847,0.787354
-1.68304,0.787354
-1.68304,0.790405
-1.68457,0.787354
-1.6861,0.785828
-1.68457,0.788879
-1.68457,0.787354
-1.6861,0.788879
-1.68762,0.785828
-1.6861,0.785828
-1.6861,0.787354
-1.6861,0.787354
-1.6922,0.788879
-1.69373,0.787354
-1.69525,0.785828
-1.6922,0.787354
-1.69678,0.788879
-1.69525,0.788879
-1.69525,0.785828
-1.6983,0.785828
-1.69983,0.784302
-1.69678,0.787354
-1.70288,0.787354
-1.70288,0.788879
-1.70288,0.78125
-1.70441,0.790405
-1.70288,0.787354
-1.70288,0.790405
-1.70288,0.787354
-1.70441,0.784302
-1.70441,0.785828
-1.70288,0.788879
-1.70288,0.788879
-1.70441,0.787354
-1.70441,0.784302
-1.70593,0.787354
-1.70288,0.785828
-1.70441,0.788879
-1.70441,0.784302
-1.70288,0.785828
-1.70135,0.787354
-1.70135,0.787354
-1.70135,0.788879
-1.69983,0.785828
-1.69983,0.784302
-1.69983,0.787354
-1.70135,0.785828
-1.70135,0.790405
-1.70135,0.787354
-1.70135,0.784302
-1.70135,0.788879
-1.70135,0.787354
-1.70135,0.787354
-1.70441,0.787354
-1.70593,0.785828
-1.70135,0.788879
-1.70593,0.788879
-1.71051,0.787354
-1.71356,0.787354
-1.71509,0.787354
-1.71661,0.785828
-1.71814,0.788879
-1.71814,0.785828
-1.72119,0.788879
