-2.17133,0.982666
-2.1759,0.984192
-2.18506,0.982666
-2.19269,0.98877
-2.20032,0.982666
-2.20795,0.982666
-2.2171,0.98877
-2.22626,0.985718
-2.23236,0.985718
-2.23694,0.98114
-2.24915,0.982666
-2.2583,0.984192
-2.26593,0.98114
-2.27509,0.984192
-2.28424,0.982666
-2.2934,0.984192
-2.29797,0.987244
-2.31018,0.984192
-2.31934,0.985718
-2.32697,0.98114
-2.33612,0.98114
-2.34375,0.984192
-2.34833,0.984192
-2.34985,0.984192
-2.35596,0.984192
-2.35291,0.979614
-2.35138,0.98114
-2.34528,0.985718
-2.33612,0.984192
-2.33002,0.985718
-2.31781,0.98114
-2.30408,0.982666
-2.28424,0.984192
-2.2644,0.98114
-2.24152,0.98114
-2.21863,0.98114
-2.19269,0.982666
-2.1637,0.98114
-2.13928,0.982666
-2.11182,0.979614
-2.08282,0.979614
-2.05078,0.982666
-2.02484,0.98114
-1.99585,0.98114
-1.96533,0.976563
-1.94092,0.979614
-1.91193,0.979614
-1.88599,0.984192
-1.86157,0.98114
-1.83258,0.978088
-1.81122,0.976563
-1.79291,0.982666
-1.77155,0.982666
-1.74866,0.984192
-1.7334,0.978088
-1.71814,0.978088
-1.70288,0.98114
-1.6861,0.98114
-1.67847,0.98114
-1.66473,0.979614
-1.65405,0.976563
-1.64642,0.98114
-1.63422,0.979614
-1.63269,0.979614
-1.62354,0.976563
-1.62048,0.978088
-1.61743,0.98114
-1.60828,0.979614
-1.60675,0.978088
-1.6037,0.978088
-1.60065,0.976563
-1.60065,0.978088
-1.59912,0.979614
-1.59607,0.979614
-1.59454,0.978088
-1.59454,0.976563
-1.58997,0.979614
-1.59149,0.982666
-1.59149,0.979614
-1.59149,0.979614
-1.58844,0.976563
-1.58844,0.979614
-1.58691,0.978088
-1.58997,0.973511
-1.58997,0.978088
-1.59302,0.978088
-1.59607,0.979614
-1.59912,0.979614
-1.60217,0.979614
-1.6037,0.979614
-1.60828,0.976563
-1.61438,0.979614
-1.61896,0.978088
-1.62659,0.979614
-1.62964,0.979614
-1.63574,0.976563
-1.64337,0.979614
-1.64795,0.98114
-1.65405,0.976563
-1.66016,0.976563
-1.66931,0.978088
-1.67236,0.979614
-1.68152,0.979614
-1.68762,0.978088
-1.6922,0.973511
-1.69983,0.971985
-1.70441,0.978088
-1.71051,0.979614
-1.71204,0.978088
-1.71814,0.976563
-1.71967,0.976563
-1.72424,0.978088
-1.72577,0.979614
-1.73035,0.98114
-1.7334,0.978088
-1.73645,0.978088
-1.74103,0.979614
-1.74255,0.982666
-1.74103,0.98114
-1.74255,0.978088
-1.74561,0.978088
-1.74561,0.979614
-1.74561,0.978088
-1.74713,0.98114
-1.74713,0.978088
-1.74866,0.978088
-1.75171,0.976563
-1.75629,0.979614
-1.75781,0.98114
-1.76086,0.978088
-1.76239,0.978088
-1.76697,0.982666
-1.76849,0.979614
-1.77155,0.978088
-1.77765,0.979614
-1.78223,0.978088
-1.78223,0.979614
-1.78833,0.982666
-1.79291,0.98114
-1.79749,0.979614
-1.80359,0.978088
-1.80664,0.982666
-1.8158,0.982666
-1.82037,0.979614
-1.82343,0.978088
-1.83105,0.979614
-1.84021,0.98114
-1.84326,0.982666
-1.85242,0.984192
-1.85852,0.98114
-1.86462,0.98114
-1.87378,0.98114
-1.87683,0.984192
-1.88599,0.982666
-1.89819,0.979614
-1.9043,0.979614
-1.90887,0.98114
-1.91803,0.982666
-1.92413,0.982666
-1.93329,0.982666
-1.94092,0.979614
-1.95007,0.984192
-1.95618,0.984192
-1.96381,0.982666
-1.97296,0.984192
-1.97906,0.98114
-1.98669,0.984192
-1.99585,0.985718
-2.00348,0.985718
-2.00958,0.982666
-2.01569,0.984192
-2.02484,0.984192
-2.03094,0.985718
-2.03857,0.985718
-2.04468,0.984192
-2.05078,0.984192
-2.06146,0.987244
-2.06909,0.985718
-2.0752,0.985718
-2.07977,0.984192
-2.09045,0.984192
-2.09503,0.984192
-2.10114,0.98877
-2.11029,0.985718
-2.11487,0.984192
-2.12097,0.985718
-2.1286,0.985718
-2.13318,0.990295
-2.14233,0.984192
-2.14691,0.984192
-2.15759,0.987244
-2.16217,0.985718
-2.16827,0.98877
-2.1759,0.98877
-2.18048,0.987244
-2.18658,0.984192
-2.18964,0.98877
-2.19421,0.98877
-2.20337,0.987244
-2.20642,0.98877
-2.21558,0.982666
-2.22015,0.987244
-2.22626,0.985718
-2.23541,0.98877
-2.24152,0.985718
-2.24762,0.987244
-2.25372,0.987244
-2.2583,0.98877
-2.26898,0.98877
-2.27203,0.98877
-2.27814,0.987244
-2.28577,0.987244
-2.29034,0.990295
-2.29645,0.987244
-2.30103,0.985718
-2.31018,0.985718
-2.31323,0.990295
-2.31781,0.991821
-2.32391,0.98877
-2.32849,0.990295
-2.33765,0.985718
-2.34375,0.990295
-2.35138,0.98877
-2.35748,0.993347
-2.36511,0.987244
-2.36969,0.985718
-2.37885,0.98877
-2.3819,0.991821
-2.38953,0.990295
-2.3941,0.987244
-2.40021,0.987244
-2.41089,0.990295
-2.41547,0.993347
-2.42157,0.993347
-2.4292,0.98877
-2.4353,0.990295
-2.44141,0.990295
-2.44904,0.993347
-2.45361,0.991821
-2.46124,0.990295
-2.4704,0.98877
-2.47803,0.994873
-2.48718,0.990295
-2.49023,0.990295
-2.49481,0.991821
-2.50092,0.990295
-2.51007,0.991821
-2.51923,0.993347
-2.52686,0.994873
-2.53296,0.98877
-2.53906,0.990295
-2.54669,0.991821
-2.55432,0.994873
-2.5589,0.993347
-2.56653,0.990295
-2.57874,0.991821
-2.58331,0.990295
-2.58942,0.994873
-2.6001,0.990295
-2.6062,0.993347
-2.61536,0.990295
-2.62299,0.993347
-2.63062,0.994873
-2.63824,0.994873
-2.64893,0.991821
-2.65656,0.990295
-2.66571,0.993347
-2.67334,0.994873
-2.68402,0.994873
-2.69318,0.991821
-2.70081,0.990295
-2.70844,0.990295
-2.71759,0.993347
-2.72369,0.993347
-2.7298,0.996399
-2.73285,0.98877
-2.73438,0.993347
-2.7359,0.994873
-2.73132,0.994873
-2.72522,0.991821
-2.72064,0.991821
-2.70691,0.991821
-2.6947,0.991821
-2.67639,0.993347
-2.65656,0.991821
-2.63519,0.990295
-2.60925,0.990295
-2.58331,0.994873
-2.55585,0.994873
-2.52686,0.991821
-2.49939,0.991821
-2.46735,0.993347
-2.4353,0.993347
-2.40479,0.993347
-2.37274,0.991821
-2.34222,0.991821
-2.31171,0.994873
-2.27966,0.996399
-2.24915,0.993347
-2.22473,0.990295
-2.19727,0.991821
-2.16827,0.991821
-2.14539,0.996399
-2.1225,0.994873
-2.10114,0.993347
-2.0813,0.98877
-2.05994,0.991821
-2.04163,0.990295
-2.02789,0.993347
-2.01416,0.993347
-2.00195,0.990295
-1.98975,0.991821
-1.97754,0.993347
-1.96991,0.991821
-1.96381,0.98877
-1.95465,0.98877
-1.94702,0.993347
-1.94244,0.994873
-1.93634,0.993347
-1.93481,0.990295
-1.93024,0.990295
-1.92566,0.993347
-1.92108,0.994873
-1.92108,0.993347
-1.91803,0.991821
-1.9165,0.98877
-1.9165,0.990295
-1.91345,0.991821
-1.91193,0.993347
-1.91193,0.990295
-1.90887,0.990295
-1.91193,0.990295
-1.9104,0.994873
-1.9104,0.991821
-1.9104,0.991821
-1.91345,0.990295
-1.91345,0.991821
-1.91345,0.991821
-1.91498,0.990295
-1.91498,0.987244
-1.91956,0.98877
-1.92108,0.991821
-1.91956,0.991821
-1.92566,0.98877
-1.93176,0.98877
-1.93634,0.987244
-1.94092,0.990295
-1.94397,0.991821
-1.9516,0.990295
-1.95465,0.990295
-1.96228,0.98877
-1.96533,0.991821
-1.97296,0.990295
-1.97601,0.990295
-1.98364,0.987244
-1.98517,0.984192
-1.98975,0.987244
-1.98975,0.991821
-2.00195,0.98877
-2.00348,0.987244
-2.00653,0.987244
-2.00806,0.98877
-2.00958,0.990295
-2.01111,0.990295
-2.01416,0.985718
-2.01874,0.98877
-2.01569,0.987244
-2.01721,0.991821
-2.02026,0.98877
-2.02026,0.987244
-2.02179,0.985718
-2.02026,0.98877
-2.02484,0.98877
-2.02179,0.987244
-2.02179,0.985718
-2.01874,0.985718
-2.02026,0.987244
-2.02179,0.98877
-2.01874,0.98877
-2.02026,0.985718
-2.01874,0.984192
-2.01874,0.985718
-2.02026,0.990295
-2.01874,0.98877
-2.02026,0.984192
-2.02026,0.985718
-2.02026,0.98877
-2.02484,0.987244
-2.02637,0.985718
-2.02789,0.984192
-2.03094,0.982666
-2.03247,0.982666
-2.03552,0.987244
-2.03857,0.985718
-2.0401,0.982666
-2.04315,0.982666
-2.04926,0.985718
-2.05231,0.984192
-2.05231,0.985718
-2.05994,0.982666
-2.06757,0.982666
-2.07062,0.984192
-2.0752,0.985718
-2.07825,0.984192
-2.08588,0.979614
-2.09351,0.979614
-2.09656,0.982666
-2.10266,0.982666
-2.10876,0.982666
-2.11487,0.98114
-2.12402,0.984192
-2.1286,0.987244
-2.13623,0.982666
-2.14233,0.985718
-2.14844,0.982666
-2.15912,0.98114
-2.1637,0.98114
-2.16827,0.985718
-2.17285,0.984192
-2.18658,0.979614
-2.18811,0.978088
-2.19727,0.982666
-2.2049,0.98114
-2.20947,0.98114
-2.2171,0.979614
-2.22321,0.973511
-2.22931,0.98114
-2.23694,0.982666
-2.24609,0.976563
-2.25067,0.982666
-2.2583,0.98114
-2.26288,0.98114
-2.26746,0.98114
-2.27509,0.982666
-2.28271,0.976563
-2.28729,0.971985
-2.2934,0.978088
-2.29797,0.98114
-2.30255,0.98114
-2.31323,0.976563
-2.31781,0.978088
-2.32391,0.98114
-2.32849,0.978088
-2.33307,0.973511
-2.3407,0.976563
-2.34375,0.976563
-2.34985,0.973511
-2.35443,0.973511
-2.35901,0.976563
-2.36359,0.971985
-2.36816,0.970459
-2.37427,0.971985
-2.38342,0.973511
-2.38342,0.978088
-2.39105,0.971985
-2.39563,0.971985
-2.40479,0.973511
-2.40479,0.971985
-2.41089,0.971985
-2.41547,0.968933
-2.42004,0.971985
-2.42462,0.968933
-2.4353,0.973511
-2.43683,0.970459
-2.44293,0.968933
-2.44446,0.970459
-2.45209,0.970459
-2.45667,0.971985
-2.46124,0.976563
-2.46277,0.970459
-2.46887,0.968933
-2.4765,0.970459
-2.47955,0.971985
-2.48566,0.968933
-2.48718,0.967407
-2.49023,0.967407
-2.49939,0.970459
-2.50244,0.968933
-2.50702,0.967407
-2.51007,0.968933
-2.51465,0.967407
-2.51923,0.965881
-2.52533,0.970459
-2.53143,0.970459
-2.53601,0.965881
-2.53906,0.96283
-2.54974,0.965881
-2.54974,0.970459
-2.5528,0.967407
-2.56195,0.967407
-2.56653,0.965881
-2.57263,0.965881
-2.57416,0.967407
-2.58331,0.965881
-2.58942,0.964355
-2.59857,0.96283
-2.60162,0.965881
-2.61078,0.964355
-2.61383,0.964355
-2.62299,0.964355
-2.63062,0.96283
-2.63672,0.961304
-2.64282,0.96283
-2.6474,0.964355
-2.65656,0.961304
-2.66266,0.961304
-2.67029,0.964355
-2.67639,0.965881
-2.6825,0.96283
-2.69165,0.961304
-2.70081,0.96283
-2.70538,0.959778
-2.71149,0.96283
-2.72217,0.959778
-2.72827,0.959778
-2.7359,0.956726
-2.74658,0.961304
-2.75269,0.96283
-2.76184,0.958252
-2.76947,0.959778
-2.77863,0.956726
-2.78625,0.958252
-2.79236,0.959778
-2.79388,0.958252
-2.79694,0.956726
-2.79846,0.956726
-2.79541,0.9552
-2.79236,0.958252
-2.78015,0.958252
-2.771,0.956726
-2.76184,0.953674
-2.74658,0.956726
-2.72827,0.959778
-2.70538,0.956726
-2.68097,0.9552
-2.65961,0.9552
-2.62909,0.956726
-2.60468,0.959778
-2.57568,0.9552
-2.54364,0.953674
-2.51465,0.950623
-2.4826,0.9552
-2.45056,0.9552
-2.4231,0.953674
-2.39563,0.950623
-2.36359,0.950623
-2.33459,0.9552
-2.30408,0.952148
-2.27966,0.9552
-2.25525,0.952148
-2.23083,0.949097
-2.20947,0.953674
-2.18964,0.950623
-2.16675,0.952148
-2.14844,0.952148
-2.13165,0.947571
-2.11945,0.953674
-2.10571,0.949097
-2.09198,0.950623
-2.07825,0.950623
-2.07214,0.949097
-2.06146,0.944519
-2.05231,0.950623
-2.04468,0.947571
-2.0401,0.944519
-2.03857,0.947571
-2.03094,0.949097
-2.02942,0.949097
-2.02789,0.949097
-2.02637,0.949097
-2.02484,0.944519
-2.02789,0.947571
-2.03094,0.947571
-2.02637,0.944519
-2.02942,0.944519
-2.02942,0.944519
-2.03247,0.944519
-2.03552,0.949097
-2.03552,0.947571
-2.03705,0.942993
-2.03705,0.944519
-2.03857,0.944519
-2.04468,0.942993
-2.0462,0.942993
-2.04773,0.941467
-2.05231,0.938416
-2.05383,0.941467
-2.05688,0.941467
-2.05994,0.944519
-2.06757,0.944519
-2.06909,0.939941
-2.07672,0.942993
-2.07825,0.941467
-2.08588,0.942993
-2.09351,0.939941
-2.10114,0.939941
-2.10724,0.942993
-2.11334,0.941467
-2.11945,0.939941
-2.12402,0.939941
-2.13165,0.938416
-2.13318,0.941467
-2.14081,0.939941
-2.14233,0.941467
-2.14844,0.93689
-2.15302,0.93689
-2.15607,0.941467
-2.15759,0.938416
-2.16217,0.938416
-2.1637,0.935364
-2.16675,0.93689
-2.16522,0.93689
-2.1698,0.939941
-2.1698,0.93689
-2.17285,0.935364
-2.17133,0.933838
-2.17285,0.935364
-2.17438,0.93689
-2.17438,0.93689
-2.17133,0.935364
-2.17285,0.932312
-2.1698,0.933838
-2.1698,0.93689
-2.1698,0.933838
-2.1698,0.935364
-2.16522,0.932312
-2.16522,0.933838
-2.1637,0.938416
-2.16522,0.933838
-2.16522,0.92926
-2.16827,0.932312
-2.16675,0.933838
-2.16827,0.933838
-2.16522,0.932312
-2.17133,0.930786
-2.1698,0.92926
-2.17285,0.933838
-2.1759,0.933838
-2.17743,0.932312
-2.18048,0.930786
-2.18353,0.930786
-2.18964,0.932312
-2.18811,0.930786
-2.19879,0.930786
-2.20032,0.927734
-2.2049,0.927734
-2.21405,0.930786
-2.2171,0.92926
-2.22168,0.932312
-2.23083,0.927734
-2.23236,0.927734
-2.24304,0.92926
-2.25067,0.92926
-2.2583,0.927734
-2.26288,0.92926
-2.26898,0.927734
-2.27356,0.927734
-2.28424,0.926208
-2.29034,0.927734
-2.2995,0.926208
-2.31018,0.926208
-2.31628,0.926208
-2.32544,0.927734
-2.33002,0.92926
-2.3407,0.926208
-2.35291,0.924683
-2.35748,0.927734
-2.36816,0.92926
-2.37579,0.92926
-2.38495,0.926208
-2.39105,0.924683
-2.40021,0.927734
-2.40784,0.930786
-2.41394,0.926208
-2.4231,0.923157
-2.43073,0.920105
-2.43835,0.927734
-2.44598,0.927734
-2.45209,0.927734
-2.45819,0.924683
-2.46735,0.920105
-2.47192,0.924683
-2.47955,0.926208
-2.48566,0.926208
-2.49329,0.923157
-2.50244,0.921631
-2.51007,0.923157
-2.5116,0.924683
-2.5177,0.926208
-2.52686,0.920105
-2.53448,0.920105
-2.54059,0.921631
-2.54517,0.920105
-2.54974,0.920105
-2.55585,0.920105
-2.565,0.920105
-2.56653,0.923157
-2.57416,0.924683
-2.58179,0.918579
-2.58484,0.921631
-2.59094,0.914001
-2.59552,0.921631
-2.60162,0.923157
-2.60315,0.920105
-2.60925,0.920105
-2.61841,0.918579
-2.61993,0.920105
-2.62299,0.921631
-2.62909,0.921631
-2.63214,0.918579
-2.63977,0.920105
-2.64435,0.920105
-2.65045,0.920105
-2.65198,0.918579
-2.65961,0.918579
-2.66266,0.91095
-2.66876,0.915527
-2.67181,0.918579
-2.67487,0.918579
-2.67944,0.914001
-2.68555,0.915527
-2.6886,0.915527
-2.69623,0.918579
-2.69775,0.914001
-2.70538,0.918579
-2.70844,0.915527
-2.71301,0.915527
-2.71759,0.912476
-2.72369,0.918579
-2.73132,0.915527
-2.73438,0.91095
-2.74048,0.914001
-2.74506,0.912476
-2.75574,0.915527
-2.75726,0.91095
-2.76337,0.91095
-2.771,0.914001
-2.7771,0.91095
-2.78625,0.915527
-2.78931,0.91095
-2.79236,0.91095
-2.80151,0.912476
-2.80762,0.91095
-2.8183,0.914001
-2.82745,0.91095
-2.83051,0.909424
-2.83661,0.912476
-2.84729,0.91095
-2.85187,0.912476
-2.8595,0.912476
-2.8656,0.907898
-2.87781,0.91095
-2.88086,0.909424
-2.88544,0.91095
-2.89307,0.907898
-2.9007,0.907898
-2.90527,0.91095
-2.91748,0.914001
-2.92358,0.91095
-2.93427,0.909424
-2.94342,0.907898
-2.9541,0.91095
-2.96173,0.909424
-2.97394,0.907898
-2.98309,0.909424
-2.9892,0.909424
-2.99683,0.909424
-3.0014,0.907898
-3.00903,0.909424
-3.01056,0.906372
-3.00903,0.909424
-3.00598,0.906372
-2.99683,0.906372
-2.9892,0.904846
-2.97394,0.906372
-2.9541,0.909424
-2.93274,0.907898
-2.90527,0.906372
-2.87933,0.909424
-2.85187,0.906372
-2.81525,0.906372
-2.78625,0.91095
-2.74658,0.906372
-2.70844,0.907898
-2.67334,0.904846
-2.63824,0.90332
-2.6001,0.901794
-2.56653,0.906372
-2.52533,0.906372
-2.49176,0.90332
-2.45819,0.904846
-2.42462,0.904846
-2.38953,0.906372
-2.35901,0.90332
-2.32849,0.90332
-2.2995,0.90332
-2.27509,0.904846
-2.24915,0.906372
-2.22473,0.906372
-2.20642,0.901794
-2.18658,0.900269
-2.16522,0.90332
-2.14691,0.904846
-2.1347,0.90332
-2.11945,0.90332
-2.11029,0.901794
-2.09808,0.904846
-2.08893,0.901794
-2.07977,0.90332
-2.07062,0.90332
-2.06604,0.900269
-2.05841,0.90332
-2.05078,0.901794
-2.04773,0.904846
-2.0462,0.901794
-2.04315,0.900269
-2.04163,0.90332
-2.03857,0.901794
-2.0401,0.901794
-2.0401,0.897217
-2.04163,0.900269
-2.03857,0.901794
-2.04163,0.901794
-2.04163,0.900269
-2.04315,0.901794
-2.0401,0.897217
-2.04163,0.900269
-2.04315,0.900269
-2.04315,0.901794
-2.04468,0.901794
-2.04773,0.895691
-2.04926,0.900269
-2.04773,0.898743
-2.05383,0.900269
-2.05994,0.898743
-2.05688,0.897217
-2.06451,0.898743
-2.06604,0.900269
-2.07062,0.900269
-2.07672,0.900269
-2.08282,0.898743
-2.08435,0.900269
-2.09198,0.897217
-2.09961,0.898743
-2.10724,0.898743
-2.11334,0.898743
-2.11639,0.897217
-2.12402,0.897217
-2.12708,0.898743
-2.13165,0.898743
-2.13928,0.894165
-2.14386,0.897217
-2.14691,0.900269
-2.15302,0.895691
-2.15912,0.895691
-2.1637,0.894165
-2.16675,0.895691
-2.16827,0.897217
-2.1698,0.897217
-2.17438,0.895691
-2.17285,0.894165
-2.17896,0.898743
-2.17743,0.897217
-2.17743,0.894165
-2.18353,0.895691
-2.17896,0.894165
-2.18048,0.895691
-2.18353,0.897217
-2.18353,0.895691
-2.18353,0.895691
-2.18658,0.895691
-2.18048,0.894165
-2.17896,0.895691
-2.17896,0.895691
-2.18353,0.895691
-2.17896,0.894165
-2.18048,0.894165
-2.18506,0.895691
-2.18506,0.897217
-2.18506,0.894165
-2.18811,0.892639
-2.19116,0.895691
-2.19116,0.897217
-2.19269,0.895691
-2.19574,0.894165
-2.19879,0.891113
-2.20337,0.894165
-2.20337,0.895691
-2.20947,0.897217
-2.21405,0.892639
-2.2171,0.891113
-2.21863,0.897217
-2.22473,0.892639
-2.22626,0.895691
-2.23389,0.891113
-2.23999,0.889587
-2.24304,0.892639
-2.25372,0.895691
-2.25677,0.895691
-2.26288,0.894165
-2.26898,0.892639
-2.27966,0.894165
-2.28577,0.895691
-2.29492,0.892639
-2.30255,0.892639
-2.30713,0.892639
-2.31476,0.891113
-2.32391,0.895691
-2.33154,0.895691
-2.3407,0.892639
-2.3468,0.891113
-2.35443,0.889587
-2.36206,0.892639
-2.37274,0.892639
-2.37732,0.892639
-2.38342,0.892639
-2.39258,0.891113
-2.39868,0.895691
-2.40784,0.891113
-2.41699,0.886536
-2.4231,0.891113
-2.42767,0.891113
-2.43683,0.889587
-2.44293,0.894165
-2.45209,0.891113
-2.45819,0.889587
-2.46887,0.894165
-2.4765,0.891113
-2.48108,0.891113
-2.49176,0.891113
-2.49634,0.891113
-2.50244,0.892639
-2.5116,0.891113
-2.51617,0.889587
-2.52533,0.891113
-2.53143,0.891113
-2.53754,0.891113
-2.54364,0.889587
-2.54669,0.894165
-2.5528,0.891113
-2.55737,0.886536
-2.56195,0.891113
-2.56958,0.894165
-2.57111,0.892639
-2.57874,0.889587
-2.58331,0.891113
-2.58789,0.892639
-2.59094,0.891113
-2.59857,0.892639
-2.60468,0.892639
-2.61078,0.889587
-2.61536,0.895691
-2.61841,0.892639
-2.62146,0.891113
-2.62909,0.891113
-2.63367,0.891113
-2.63977,0.891113
-2.64587,0.891113
-2.64893,0.891113
-2.65045,0.892639
-2.66266,0.889587
-2.66571,0.892639
-2.66876,0.889587
-2.67639,0.891113
-2.68097,0.891113
-2.69012,0.892639
-2.69775,0.891113
-2.70081,0.892639
-2.70691,0.894165
-2.71454,0.889587
-2.72217,0.886536
-2.72675,0.891113
-2.7359,0.892639
-2.73895,0.892639
-2.74658,0.891113
-2.75726,0.886536
-2.76489,0.892639
-2.76794,0.889587
-2.77557,0.892639
-2.78778,0.886536
-2.79541,0.88501
-2.79846,0.891113
-2.80609,0.889587
-2.81219,0.891113
-2.81982,0.889587
-2.82745,0.886536
-2.83508,0.892639
-2.84424,0.891113
-2.85187,0.889587
-2.8656,0.88501
-2.86865,0.889587
-2.87933,0.891113
-2.88391,0.892639
-2.89154,0.891113
-2.89917,0.892639
-2.91138,0.889587
-2.91443,0.892639
-2.92206,0.892639
-2.92969,0.894165
-2.93884,0.886536
-2.948,0.889587
-2.95715,0.891113
-2.96173,0.892639
-2.97089,0.892639
-2.98157,0.889587
-2.9892,0.889587
-2.99683,0.892639
-3.00903,0.891113
-3.01819,0.889587
-3.02887,0.886536
-3.03802,0.88501
-3.04718,0.889587
-3.05634,0.891113
-3.06396,0.886536
-3.07617,0.88501
-3.08685,0.886536
-3.09601,0.886536
-3.10822,0.889587
-3.11737,0.889587
-3.125,0.891113
-3.13568,0.883484
-3.14026,0.886536
-3.14178,0.889587
-3.14178,0.886536
-3.14026,0.88501
-3.12805,0.88501
-3.11737,0.891113
-3.09601,0.889587
-3.07617,0.88501
-3.04718,0.886536
-3.01666,0.883484
-2.98309,0.886536
-2.94189,0.88501
-2.90222,0.889587
-2.8595,0.88501
-2.81982,0.88501
-2.77252,0.889587
-2.73132,0.886536
-2.68555,0.889587
-2.6474,0.881958
-2.60773,0.881958
-2.56195,0.889587
-2.52228,0.891113
-2.47955,0.891113
-2.44446,0.88501
-2.40936,0.88501
-2.37427,0.883484
-2.3407,0.889587
-2.30713,0.889587
-2.27814,0.883484
-2.24762,0.88501
-2.22015,0.88501
-2.19269,0.886536
-2.17133,0.88501
-2.15149,0.88501
-2.13013,0.88501
-2.10876,0.889587
-2.09503,0.886536
-2.07672,0.889587
-2.06757,0.883484
-2.05994,0.88501
-2.04773,0.88501
-2.03552,0.88501
-2.03247,0.883484
-2.02484,0.88501
-2.01569,0.881958
-2.01263,0.891113
-2.00958,0.886536
-2.005,0.886536
-2.00348,0.883484
-2.00043,0.881958
-2.00195,0.886536
-1.99585,0.886536
-1.9989,0.88501
-1.99738,0.883484
-1.9989,0.88501
-1.99738,0.886536
-1.99432,0.883484
-1.99738,0.886536
-1.99738,0.883484
-2.00043,0.883484
-1.9989,0.883484
-2.00195,0.886536
-2.005,0.88501
-2.005,0.880432
-2.00653,0.881958
-2.00958,0.88501
-2.01111,0.88501
-2.01263,0.886536
-2.01721,0.881958
-2.02026,0.881958
-2.02637,0.881958
-2.03094,0.889587
-2.03247,0.88501
-2.04163,0.88501
-2.04773,0.883484
-2.05383,0.881958
-2.06146,0.880432
-2.06604,0.88501
-2.07367,0.880432
-2.07672,0.880432
-2.08282,0.88501
-2.08588,0.889587
-2.09351,0.88501
-2.09808,0.881958
-2.10266,0.883484
-2.10876,0.88501
-2.11029,0.88501
-2.11334,0.881958
-2.11639,0.878906
-2.11639,0.878906
-2.12097,0.881958
-2.12555,0.88501
-2.12708,0.881958
-2.12555,0.881958
-2.12708,0.878906
-2.12555,0.881958
-2.12555,0.883484
-2.12708,0.886536
-2.12555,0.880432
-2.12402,0.880432
-2.1225,0.881958
-2.1225,0.880432
-2.1225,0.883484
-2.11639,0.881958
-2.11639,0.878906
-2.11945,0.886536
-2.11487,0.88501
-2.11487,0.881958
-2.11487,0.880432
-2.11334,0.880432
-2.11487,0.881958
-2.11334,0.883484
-2.11487,0.883484
-2.11639,0.878906
-2.11945,0.880432
-2.11945,0.883484
-2.12402,0.886536
-2.12555,0.881958
-2.12555,0.880432
-2.12708,0.881958
-2.13165,0.881958
-2.13318,0.881958
-2.1347,0.880432
-2.13776,0.880432
-2.14233,0.880432
-2.14691,0.881958
-2.14844,0.881958
-2.15759,0.880432
-2.16064,0.878906
-2.16522,0.878906
-2.17133,0.881958
-2.17285,0.881958
-2.17743,0.878906
-2.18658,0.87738
-2.19269,0.880432
-2.20032,0.881958
-2.20642,0.88501
-2.211,0.881958
-2.21558,0.880432
-2.22626,0.880432
-2.23389,0.880432
-2.23999,0.880432
-2.24609,0.881958
-2.25372,0.878906
-2.2644,0.881958
-2.27051,0.878906
-2.27509,0.881958
-2.28882,0.878906
-2.2934,0.87738
-2.30408,0.875854
-2.31171,0.878906
-2.31628,0.878906
-2.32544,0.881958
-2.33307,0.87738
-2.34375,0.87738
-2.35138,0.87738
-2.35596,0.878906
-2.36206,0.880432
-2.36816,0.875854
-2.37732,0.87738
-2.3819,0.880432
-2.38953,0.878906
-2.39563,0.878906
-2.40173,0.878906
-2.40936,0.875854
-2.41547,0.880432
-2.42462,0.87738
-2.42767,0.880432
-2.43683,0.87738
-2.44293,0.87738
-2.44598,0.880432
-2.45209,0.878906
-2.45819,0.875854
-2.46277,0.875854
-2.47192,0.874329
-2.47498,0.87738
-2.4826,0.881958
-2.48871,0.87738
-2.49481,0.875854
-2.50397,0.875854
-2.50549,0.87738
-2.5116,0.881958
-2.5177,0.880432
-2.52686,0.87738
-2.53296,0.874329
-2.54059,0.87738
-2.54364,0.878906
-2.54669,0.87738
-2.55127,0.87738
-2.55585,0.874329
-2.5589,0.875854
-2.56958,0.878906
-2.57416,0.875854
-2.57721,0.874329
-2.58331,0.875854
-2.58789,0.875854
-2.58789,0.87738
-2.59705,0.87738
-2.60162,0.872803
-2.60315,0.874329
-2.60925,0.875854
-2.61536,0.87738
-2.61993,0.875854
-2.63062,0.875854
-2.63062,0.874329
-2.63977,0.875854
-2.64435,0.87738
-2.65045,0.875854
-2.65808,0.874329
-2.66876,0.874329
-2.67029,0.875854
-2.67487,0.875854
-2.6825,0.874329
-2.68555,0.875854
-2.6947,0.874329
-2.70081,0.872803
-2.70691,0.875854
-2.71301,0.878906
-2.72217,0.872803
-2.7298,0.874329
-2.7359,0.872803
-2.742,0.878906
-2.75269,0.87738
-2.76184,0.871277
-2.76947,0.871277
-2.77863,0.874329
-2.78625,0.87738
-2.79541,0.874329
-2.80304,0.871277
-2.81219,0.872803
-2.82288,0.87738
-2.82593,0.87738
-2.83203,0.875854
-2.83508,0.872803
-2.84119,0.872803
-2.83966,0.872803
-2.83356,0.87738
-2.82593,0.871277
-2.81067,0.872803
-2.79694,0.872803
-2.77557,0.872803
-2.74658,0.87738
-2.72217,0.871277
-2.6886,0.874329
-2.65198,0.871277
-2.61536,0.872803
-2.58026,0.875854
-2.54211,0.874329
-2.50397,0.871277
-2.46429,0.869751
-2.42157,0.871277
-2.38342,0.875854
-2.3407,0.872803
-2.30255,0.872803
-2.2644,0.868225
-2.22626,0.869751
-2.19269,0.872803
-2.16064,0.872803
-2.1286,0.869751
-2.09351,0.871277
-2.06451,0.872803
-2.03705,0.875854
-2.00958,0.871277
-1.98364,0.869751
-1.95465,0.871277
-1.93634,0.872803
-1.91345,0.875854
-1.89514,0.872803
-1.87836,0.871277
-1.86157,0.869751
-1.85089,0.871277
-1.83868,0.872803
-1.82495,0.869751
-1.8158,0.871277
-1.80817,0.866699
-1.79749,0.868225
-1.79291,0.869751
-1.78986,0.871277
-1.78528,0.868225
-1.78375,0.869751
-1.7807,0.871277
-1.77917,0.869751
-1.77765,0.871277
-1.77307,0.868225
-1.77612,0.869751
-1.7746,0.869751
-1.77307,0.871277
-1.76849,0.871277
-1.77612,0.868225
-1.77765,0.868225
-1.77612,0.871277
-1.77765,0.871277
-1.77765,0.869751
-1.77765,0.868225
-1.78223,0.866699
-1.78223,0.868225
-1.78223,0.871277
-1.78223,0.869751
-1.7868,0.871277
-1.79443,0.869751
-1.79901,0.868225
-1.80359,0.874329
-1.80817,0.869751
-1.81732,0.868225
-1.8219,0.868225
-1.828,0.869751
-1.83563,0.869751
-1.84174,0.868225
-1.85089,0.868225
-1.85547,0.868225
-1.86462,0.866699
-1.86462,0.871277
-1.87531,0.866699
-1.87836,0.868225
-1.88599,0.866699
-1.89056,0.866699
-1.89819,0.868225
-1.90125,0.868225
-1.90277,0.865173
-1.9104,0.868225
-1.91193,0.866699
-1.91498,0.869751
-1.91803,0.868225
-1.92108,0.866699
-1.91803,0.868225
-1.92261,0.865173
-1.92413,0.871277
-1.92566,0.868225
-1.92261,0.868225
-1.92261,0.866699
-1.92108,0.865173
-1.92566,0.866699
-1.92261,0.866699
-1.92261,0.866699
-1.92261,0.863647
-1.92261,0.865173
-1.92261,0.868225
-1.91956,0.868225
-1.92108,0.868225
-1.91956,0.863647
-1.92261,0.868225
-1.92108,0.865173
-1.91803,0.866699
-1.91956,0.866699
-1.92108,0.863647
-1.92261,0.868225
-1.92413,0.865173
-1.92261,0.865173
-1.93024,0.865173
-1.93176,0.863647
-1.93329,0.865173
-1.93634,0.865173
-1.94244,0.863647
-1.9455,0.868225
-1.95007,0.865173
-1.95618,0.863647
-1.95923,0.863647
-1.96686,0.865173
-1.97449,0.865173
-1.97754,0.862122
-1.98212,0.865173
-1.98975,0.865173
-1.99738,0.865173
-2.005,0.865173
-2.01263,0.862122
-2.01874,0.863647
-2.02179,0.862122
-2.034,0.863647
-2.04163,0.863647
-2.04926,0.860596
-2.06299,0.863647
-2.06909,0.866699
-2.0752,0.865173
-2.08282,0.863647
-2.09503,0.866699
-2.10114,0.863647
-2.11029,0.863647
-2.12097,0.865173
-2.1286,0.860596
-2.1347,0.863647
-2.14233,0.862122
-2.15302,0.865173
-2.16064,0.860596
-2.16827,0.860596
-2.18048,0.860596
-2.18811,0.863647
-2.19727,0.865173
-2.20642,0.862122
-2.21405,0.863647
-2.22626,0.863647
-2.23083,0.863647
-2.23999,0.863647
-2.24915,0.862122
-2.25677,0.865173
-2.26593,0.857544
-2.27509,0.862122
-2.28271,0.863647
-2.29034,0.860596
-2.29645,0.863647
-2.30713,0.857544
-2.31323,0.860596
-2.32391,0.862122
-2.33002,0.860596
-2.33612,0.862122
-2.34528,0.862122
-2.34985,0.862122
-2.35901,0.862122
-2.36969,0.862122
-2.37274,0.863647
-2.37885,0.860596
-2.38647,0.856018
-2.39258,0.862122
-2.40021,0.860596
-2.40631,0.860596
-2.41241,0.856018
-2.41547,0.862122
-2.42157,0.860596
-2.4292,0.860596
-2.43683,0.862122
-2.44141,0.856018
-2.44598,0.856018
-2.44904,0.857544
-2.45819,0.857544
-2.46429,0.860596
-2.4704,0.860596
-2.4765,0.862122
-2.48108,0.863647
-2.48566,0.860596
-2.49023,0.857544
-2.50092,0.857544
-2.50397,0.862122
-2.51312,0.863647
-2.51923,0.857544
-2.52533,0.862122
-2.53296,0.857544
-2.54211,0.856018
-2.54517,0.863647
-2.55127,0.857544
-2.55737,0.860596
-2.56805,0.854492
-2.57568,0.860596
-2.58331,0.862122
-2.58942,0.857544
-2.59857,0.856018
-2.60925,0.856018
-2.61383,0.857544
-2.62146,0.857544
-2.62909,0.857544
-2.63519,0.857544
-2.6413,0.856018
-2.65045,0.856018
-2.65808,0.860596
-2.66571,0.860596
-2.67334,0.857544
-2.6825,0.854492
-2.69318,0.857544
-2.70081,0.860596
-2.71149,0.856018
-2.71759,0.857544
-2.72827,0.854492
-2.73895,0.857544
-2.74353,0.862122
-2.75421,0.856018
-2.76642,0.860596
-2.77557,0.857544
-2.7832,0.856018
-2.79541,0.856018
-2.80457,0.857544
-2.81677,0.857544
-2.8244,0.857544
-2.83508,0.860596
-2.84119,0.860596
-2.84729,0.854492
-2.85645,0.856018
-2.85797,0.854492
-2.8595,0.862122
-2.85492,0.857544
-2.84424,0.857544
-2.83203,0.857544
-2.81525,0.856018
-2.79083,0.857544
-2.76031,0.856018
-2.72675,0.857544
-2.68402,0.856018
-2.64435,0.854492
-2.60162,0.857544
-2.55737,0.857544
-2.50854,0.856018
-2.46735,0.854492
-2.41852,0.85144
-2.37274,0.852966
-2.32391,0.860596
-2.27814,0.856018
-2.23541,0.854492
-2.19116,0.849915
-2.14691,0.852966
-2.10876,0.856018
-2.07062,0.856018
-2.02789,0.854492
-1.98975,0.852966
-1.95465,0.856018
-1.92108,0.856018
-1.88904,0.854492
-1.86005,0.852966
-1.83563,0.85144
-1.81122,0.856018
-1.7868,0.857544
-1.76392,0.854492
-1.74408,0.856018
-1.72424,0.85144
-1.71204,0.856018
-1.69373,0.854492
-1.68152,0.854492
-1.66931,0.85144
-1.65558,0.85144
-1.651,0.856018
-1.63879,0.854492
-1.63116,0.856018
-1.62811,0.854492
-1.61896,0.85144
-1.61591,0.856018
-1.6098,0.856018
-1.60675,0.852966
-1.60217,0.852966
-1.60065,0.85144
-1.6037,0.854492
-1.59607,0.856018
-1.59912,0.852966
-1.59607,0.854492
-1.5976,0.852966
-1.59607,0.852966
-1.59302,0.856018
-1.59454,0.85144
-1.59454,0.854492
-1.59454,0.852966
-1.5976,0.854492
-1.60065,0.854492
-1.5976,0.854492
-1.60065,0.854492
-1.60675,0.852966
-1.60828,0.854492
-1.60828,0.85144
-1.61438,0.856018
-1.62048,0.854492
-1.62506,0.85144
-1.62811,0.852966
-1.63422,0.85144
-1.63727,0.854492
-1.64795,0.85144
-1.65253,0.852966
-1.65863,0.85144
-1.66321,0.854492
-1.66779,0.852966
-1.67694,0.854492
-1.67999,0.852966
-1.68457,0.852966
-1.6922,0.852966
-1.69678,0.85144
-1.69983,0.85144
-1.70288,0.854492
-1.71051,0.85144
-1.71204,0.852966
-1.71204,0.852966
-1.71356,0.85144
-1.71509,0.85144
-1.71967,0.854492
-1.71814,0.852966
-1.71967,0.854492
-1.72272,0.849915
-1.72119,0.85144
-1.72272,0.85144
-1.71967,0.854492
-1.71967,0.85144
-1.72119,0.854492
-1.71814,0.852966
-1.71661,0.852966
-1.71509,0.852966
-1.71661,0.854492
-1.71661,0.848389
-1.71204,0.849915
-1.71509,0.854492
-1.71204,0.854492
-1.71204,0.852966
-1.71356,0.852966
-1.71356,0.85144
-1.71661,0.85144
-1.71814,0.854492
-1.71814,0.852966
-1.72119,0.85144
-1.72119,0.849915
-1.72424,0.852966
-1.72882,0.854492
-1.73035,0.856018
-1.7334,0.852966
-1.73645,0.849915
-1.74255,0.852966
-1.74866,0.854492
-1.74866,0.854492
-1.75323,0.852966
-1.76086,0.85144
-1.76544,0.849915
-1.77155,0.85144
-1.7746,0.852966
-1.77917,0.85144
-1.78833,0.85144
-1.79138,0.854492
-1.79749,0.854492
-1.80969,0.852966
-1.81732,0.852966
-1.82648,0.849915
-1.83563,0.852966
-1.83868,0.852966
-1.84479,0.852966
-1.85547,0.852966
-1.86462,0.85144
-1.87225,0.854492
-1.87988,0.852966
-1.88599,0.852966
-1.89972,0.85144
-1.9043,0.848389
-1.91498,0.852966
-1.92413,0.854492
-1.93481,0.854492
-1.94397,0.852966
-1.95313,0.85144
-1.96228,0.852966
-1.97144,0.856018
-1.98364,0.854492
-1.9928,0.852966
-2.00195,0.852966
-2.01569,0.854492
-2.01874,0.852966
-2.03094,0.852966
-2.03552,0.85144
-2.04926,0.849915
-2.05688,0.85144
-2.06451,0.852966
-2.07062,0.852966
-2.0813,0.852966
-2.09045,0.849915
-2.09503,0.856018
-2.10419,0.856018
-2.10876,0.856018
-2.11945,0.85144
-2.1286,0.849915
-2.13623,0.856018
-2.14233,0.854492
-2.14844,0.852966
-2.15607,0.854492
-2.16217,0.852966
-2.17133,0.854492
-2.1759,0.857544
-2.18506,0.85144
-2.19116,0.856018
-2.19727,0.852966
-2.20184,0.856018
-2.20795,0.852966
-2.21863,0.857544
-2.22168,0.852966
-2.23083,0.849915
-2.23389,0.856018
-2.24152,0.856018
-2.24609,0.854492
-2.25372,0.856018
-2.26288,0.854492
-2.2644,0.856018
-2.27356,0.856018
-2.28119,0.857544
-2.28577,0.856018
-2.2934,0.856018
-2.29797,0.854492
-2.3056,0.857544
-2.31171,0.856018
-2.31781,0.856018
-2.32697,0.852966
-2.33154,0.857544
-2.33765,0.860596
-2.34222,0.857544
-2.35291,0.857544
-2.35901,0.854492
-2.36206,0.860596
-2.37427,0.856018
-2.38037,0.860596
-2.38953,0.856018
-2.3941,0.856018
-2.40021,0.860596
-2.41241,0.860596
-2.42004,0.860596
-2.42462,0.857544
-2.43683,0.857544
-2.44141,0.862122
-2.44904,0.862122
-2.45819,0.860596
-2.46277,0.857544
-2.47498,0.857544
-2.48566,0.860596
-2.49023,0.863647
-2.49634,0.862122
-2.50702,0.860596
-2.51617,0.860596
-2.52533,0.860596
-2.53143,0.863647
-2.53906,0.860596
-2.55127,0.863647
-2.55737,0.857544
-2.57111,0.863647
-2.58026,0.865173
-2.58636,0.865173
-2.59705,0.863647
-2.60468,0.862122
-2.61688,0.865173
-2.62604,0.865173
-2.63977,0.865173
-2.65045,0.865173
-2.66266,0.862122
-2.67181,0.868225
-2.6825,0.868225
-2.69623,0.868225
-2.70844,0.865173
-2.71759,0.863647
-2.72675,0.868225
-2.7359,0.868225
-2.742,0.865173
-2.74353,0.865173
-2.74506,0.865173
-2.73743,0.866699
-2.73132,0.868225
-2.71454,0.868225
-2.6947,0.866699
-2.66876,0.868225
-2.63672,0.869751
-2.59857,0.868225
-2.56195,0.868225
-2.51465,0.866699
-2.47192,0.865173
-2.42462,0.872803
-2.37885,0.869751
-2.33002,0.869751
-2.28577,0.871277
-2.23541,0.868225
-2.18964,0.871277
-2.14539,0.871277
-2.09808,0.874329
-2.05688,0.871277
-2.01263,0.871277
-1.97449,0.871277
-1.93329,0.872803
-1.89362,0.872803
-1.85852,0.872803
-1.82648,0.871277
-1.79138,0.872803
-1.76086,0.872803
-1.73187,0.871277
-1.70898,0.872803
-1.68457,0.869751
-1.65863,0.874329
-1.63727,0.874329
-1.61896,0.875854
-1.60065,0.874329
-1.58234,0.874329
-1.56555,0.872803
-1.55487,0.875854
-1.54114,0.875854
-1.53351,0.878906
-1.52435,0.874329
-1.51062,0.875854
-1.50604,0.87738
-1.50299,0.874329
-1.49384,0.878906
-1.48926,0.874329
-1.49078,0.880432
-1.48468,0.878906
-1.4801,0.878906
-1.4801,0.87738
-1.47705,0.87738
-1.47858,0.87738
-1.47705,0.878906
-1.47858,0.87738
-1.47705,0.878906
-1.47552,0.87738
-1.47705,0.880432
-1.47858,0.878906
-1.47858,0.880432
-1.47858,0.878906
-1.48315,0.878906
-1.48468,0.881958
-1.48926,0.880432
-1.49384,0.880432
-1.49536,0.880432
-1.49841,0.880432
-1.50604,0.881958
-1.50604,0.883484
-1.5152,0.881958
-1.51672,0.881958
-1.5274,0.880432
-1.53046,0.881958
-1.53351,0.880432
-1.54114,0.88501
-1.54572,0.881958
-1.55487,0.883484
-1.5564,0.883484
-1.55945,0.883484
-1.56403,0.886536
-1.56555,0.889587
-1.57318,0.881958
-1.57471,0.88501
-1.57928,0.88501
-1.57776,0.889587
-1.58386,0.883484
-1.58691,0.881958
-1.58691,0.88501
-1.59149,0.886536
-1.59454,0.88501
-1.59149,0.88501
-1.59302,0.883484
-1.59149,0.889587
-1.59149,0.889587
-1.58997,0.886536
-1.59149,0.891113
-1.59149,0.886536
-1.59149,0.889587
-1.58844,0.889587
-1.58844,0.891113
-1.58691,0.889587
-1.58386,0.886536
-1.57928,0.891113
-1.57623,0.891113
-1.57471,0.886536
-1.57471,0.886536
-1.57166,0.886536
-1.57013,0.892639
-1.5686,0.891113
-1.56708,0.889587
-1.56708,0.891113
-1.56403,0.891113
-1.56403,0.891113
-1.56708,0.892639
-1.56555,0.892639
-1.56708,0.892639
-1.57013,0.891113
-1.57013,0.891113
-1.57318,0.894165
-1.57928,0.894165
-1.57928,0.894165
-1.58386,0.892639
-1.58844,0.894165
-1.59302,0.895691
-1.5976,0.895691
-1.6037,0.894165
-1.60675,0.891113
-1.61591,0.894165
-1.62201,0.892639
-1.62811,0.892639
-1.63727,0.891113
-1.64337,0.892639
-1.651,0.894165
-1.66016,0.895691
-1.66626,0.895691
-1.67236,0.894165
-1.68152,0.894165
-1.68915,0.895691
-1.6983,0.894165
-1.71051,0.897217
-1.71967,0.892639
-1.72882,0.895691
-1.73187,0.900269
-1.74713,0.895691
-1.75323,0.897217
-1.76544,0.895691
-1.77155,0.894165
-1.78528,0.897217
-1.78986,0.895691
-1.80359,0.898743
-1.81427,0.895691
-1.82037,0.898743
-1.828,0.897217
-1.83716,0.898743
-1.84479,0.897217
-1.85394,0.898743
-1.86157,0.897217
-1.87073,0.897217
-1.88141,0.901794
-1.88446,0.895691
-1.89514,0.900269
-1.9043,0.897217
-1.91193,0.900269
-1.9165,0.897217
-1.92719,0.898743
-1.93329,0.898743
-1.94092,0.897217
-1.94855,0.900269
-1.95465,0.898743
-1.96228,0.898743
-1.96838,0.895691
-1.97449,0.897217
-1.98364,0.897217
-1.98517,0.900269
-1.99738,0.898743
-2.00348,0.897217
-2.00806,0.898743
-2.01416,0.901794
-2.01874,0.901794
-2.02484,0.90332
-2.034,0.900269
-2.03857,0.897217
-2.04315,0.898743
-2.05383,0.90332
-2.05994,0.901794
-2.06299,0.897217
-2.06909,0.900269
-2.07367,0.898743
-2.07977,0.901794
-2.08282,0.900269
-2.09198,0.901794
-2.09503,0.898743
-2.10266,0.904846
-2.10724,0.900269
-2.11487,0.900269
-2.11639,0.900269
-2.1286,0.897217
-2.13165,0.90332
-2.13776,0.900269
-2.14539,0.901794
-2.15454,0.904846
-2.16064,0.897217
-2.16675,0.900269
-2.17133,0.901794
-2.18353,0.901794
-2.18811,0.900269
-2.20032,0.901794
-2.20642,0.90332
-2.2171,0.901794
-2.22321,0.901794
-2.23083,0.901794
-2.24304,0.901794
-2.24915,0.90332
-2.25677,0.90332
-2.2644,0.901794
-2.26898,0.901794
-2.27509,0.898743
-2.28271,0.90332
-2.28271,0.90332
-2.27966,0.906372
-2.27814,0.901794
-2.27203,0.901794
-2.26135,0.90332
-2.25067,0.90332
-2.23236,0.90332
-2.20947,0.901794
-2.18811,0.900269
-2.15454,0.904846
-2.12555,0.904846
-2.09198,0.90332
-2.05688,0.90332
-2.02484,0.901794
-1.98517,0.901794
-1.94855,0.906372
-1.90887,0.901794
-1.87073,0.901794
-1.83258,0.900269
-1.79596,0.901794
-1.75476,0.90332
-1.71814,0.904846
-1.68304,0.901794
-1.64642,0.900269
-1.60828,0.900269
-1.57623,0.90332
-1.54572,0.906372
-1.51062,0.900269
-1.48315,0.901794
-1.45721,0.90332
-1.42822,0.90332
-1.40533,0.90332
-1.37939,0.901794
-1.36261,0.900269
-1.34277,0.901794
-1.31989,0.901794
-1.3031,0.901794
-1.28632,0.901794
-1.27258,0.901794
-1.25885,0.901794
-1.24969,0.904846
-1.23749,0.904846
-1.22833,0.900269
-1.2207,0.901794
-1.21613,0.901794
-1.2085,0.901794
-1.20392,0.901794
-1.19781,0.90332
-1.19629,0.900269
-1.19171,0.90332
-1.18713,0.90332
-1.18713,0.901794
-1.18561,0.901794
-1.18713,0.901794
-1.18256,0.90332
-1.18103,0.900269
-1.18256,0.90332
-1.18408,0.90332
-1.18561,0.901794
-1.18256,0.90332
-1.18408,0.90332
-1.18713,0.90332
-1.18713,0.90332
-1.18866,0.90332
-1.19171,0.90332
-1.19476,0.90332
-1.19781,0.904846
-1.19934,0.898743
-1.20697,0.901794
-1.21002,0.90332
-1.21613,0.90332
-1.21918,0.900269
-1.22681,0.900269
-1.23596,0.900269
-1.24054,0.904846
-1.24664,0.901794
-1.25275,0.900269
-1.26038,0.900269
-1.2619,0.898743
-1.27106,0.90332
-1.27411,0.898743
-1.27869,0.904846
-1.28326,0.901794
-1.28937,0.900269
-1.29242,0.898743
-1.29547,0.901794
-1.30005,0.901794
-1.30157,0.898743
-1.30768,0.898743
-1.30615,0.901794
-1.30768,0.901794
-1.30768,0.900269
-1.31226,0.900269
-1.31226,0.898743
-1.30768,0.901794
-1.31073,0.906372
-1.31226,0.898743
-1.31073,0.898743
-1.30768,0.901794
-1.3092,0.900269
-1.31073,0.901794
-1.31073,0.90332
-1.3092,0.898743
-1.31073,0.900269
-1.3092,0.898743
-1.3092,0.901794
-1.31073,0.90332
-1.31073,0.898743
-1.31378,0.898743
-1.31378,0.900269
-1.31531,0.900269
-1.31683,0.900269
-1.31836,0.900269
-1.32141,0.897217
-1.32141,0.900269
-1.32599,0.898743
-1.33057,0.900269
-1.33209,0.898743
-1.3382,0.897217
-1.34125,0.895691
-1.34583,0.900269
-1.3504,0.900269
-1.35651,0.894165
-1.36566,0.895691
-1.37024,0.900269
-1.37634,0.898743
-1.38397,0.901794
-1.39008,0.897217
-1.39771,0.897217
-1.40381,0.900269
-1.41144,0.901794
-1.42059,0.901794
-1.42822,0.895691
-1.43738,0.894165
-1.44501,0.895691
-1.45264,0.897217
-1.46332,0.900269
-1.47095,0.898743
-1.47858,0.894165
-1.49078,0.897217
-1.49994,0.897217
-1.50452,0.900269
-1.51672,0.894165
-1.52893,0.895691
-1.53809,0.897217
-1.54572,0.895691
-1.55792,0.897217
-1.5625,0.894165
-1.57166,0.895691
-1.58539,0.895691
-1.59454,0.897217
-1.6037,0.900269
-1.6098,0.898743
-1.61896,0.894165
-1.62811,0.895691
-1.63422,0.895691
-1.64337,0.895691
-1.651,0.894165
-1.66168,0.891113
-1.67084,0.894165
-1.68152,0.895691
-1.6861,0.898743
-1.6922,0.894165
-1.70288,0.892639
-1.70898,0.894165
-1.71967,0.894165
-1.72577,0.900269
-1.73187,0.895691
-1.74255,0.892639
-1.74408,0.894165
-1.75323,0.895691
-1.75934,0.897217
-1.76544,0.894165
-1.77155,0.892639
-1.7807,0.895691
-1.78528,0.897217
-1.79443,0.895691
-1.79596,0.894165
-1.80664,0.895691
-1.81274,0.895691
-1.81885,0.895691
-1.82648,0.895691
-1.83105,0.895691
-1.84174,0.892639
-1.84631,0.895691
-1.85242,0.894165
-1.85852,0.895691
-1.86768,0.892639
-1.87225,0.892639
-1.87836,0.892639
-1.88751,0.892639
-1.89209,0.895691
-1.90277,0.894165
-1.90887,0.892639
-1.91498,0.892639
-1.92413,0.894165
-1.93176,0.892639
-1.94092,0.892639
-1.9455,0.891113
-1.9516,0.889587
-1.95923,0.892639
-1.96686,0.892639
-1.97601,0.891113
-1.98517,0.891113
-1.9928,0.892639
-1.99738,0.892639
-2.005,0.894165
-2.01569,0.891113
-2.02637,0.88501
-2.034,0.892639
-2.0401,0.891113
-2.05231,0.894165
-2.06451,0.892639
-2.07214,0.894165
-2.07977,0.886536
-2.09198,0.891113
-2.10266,0.894165
-2.11029,0.891113
-2.12097,0.886536
-2.12555,0.891113
-2.1286,0.891113
-2.1286,0.892639
-2.13013,0.886536
-2.12708,0.88501
-2.11945,0.886536
-2.10724,0.892639
-2.09351,0.892639
-2.07672,0.886536
-2.05383,0.88501
-2.02637,0.889587
-2.00043,0.892639
-1.96838,0.886536
-1.93481,0.886536
-1.89819,0.88501
-1.85852,0.889587
-1.82037,0.889587
-1.78528,0.886536
-1.74408,0.883484
-1.70288,0.88501
-1.66321,0.886536
-1.62354,0.889587
-1.58539,0.889587
-1.54572,0.88501
-1.50604,0.88501
-1.47095,0.886536
-1.43738,0.886536
-1.40381,0.886536
-1.37024,0.883484
-1.34125,0.883484
-1.31226,0.88501
-1.28174,0.891113
-1.25885,0.886536
-1.22986,0.883484
-1.20697,0.88501
-1.18713,0.88501
-1.1673,0.886536
-1.15204,0.88501
-1.13373,0.88501
-1.12,0.88501
-1.10931,0.883484
-1.09406,0.88501
-1.08185,0.88501
-1.07117,0.88501
-1.06354,0.88501
-1.05438,0.88501
-1.04675,0.88501
-1.04218,0.88501
-1.03455,0.88501
-1.03455,0.886536
-1.02997,0.881958
-1.02692,0.88501
-1.02539,0.886536
-1.02234,0.883484
-1.02234,0.883484
-1.02234,0.883484
-1.02234,0.88501
-1.01929,0.883484
-1.02081,0.881958
-1.02234,0.88501
-1.02081,0.881958
-1.01776,0.88501
-1.02081,0.88501
-1.02386,0.881958
-1.02386,0.881958
-1.02692,0.883484
-1.02539,0.880432
-1.02844,0.883484
-1.03302,0.881958
-1.03455,0.880432
-1.04065,0.883484
-1.0498,0.88501
-1.05591,0.88501
-1.05591,0.881958
-1.06354,0.883484
-1.06659,0.88501
-1.07269,0.883484
-1.0788,0.88501
-1.08643,0.881958
-1.09253,0.880432
-1.09863,0.881958
-1.10321,0.881958
-1.11237,0.881958
-1.11694,0.880432
-1.12457,0.881958
-1.12762,0.880432
-1.13068,0.881958
-1.13983,0.881958
-1.14136,0.880432
-1.14594,0.881958
-1.14899,0.880432
-1.15204,0.880432
-1.15662,0.881958
-1.15662,0.881958
-1.15967,0.880432
-1.15967,0.878906
-1.15967,0.881958
-1.16272,0.880432
-1.16119,0.880432
-1.15967,0.881958
-1.16272,0.881958
-1.16119,0.880432
-1.15967,0.881958
-1.16425,0.880432
-1.16425,0.87738
-1.16272,0.880432
-1.15967,0.881958
-1.16119,0.880432
-1.16119,0.878906
-1.1673,0.881958
-1.16577,0.878906
-1.1673,0.880432
-1.17188,0.883484
-1.1734,0.881958
-1.17645,0.87738
-1.17798,0.880432
-1.18408,0.881958
-1.18561,0.880432
-1.18866,0.878906
-1.19171,0.881958
-1.19781,0.880432
-1.19934,0.881958
-1.20697,0.880432
-1.21155,0.880432
-1.2207,0.880432
-1.22375,0.881958
-1.23138,0.881958
-1.23901,0.881958
-1.24512,0.880432
-1.25122,0.881958
-1.26038,0.880432
-1.26801,0.883484
-1.28021,0.881958
-1.28479,0.878906
-1.29852,0.880432
-1.30768,0.880432
-1.31378,0.880432
-1.32446,0.880432
-1.33514,0.878906
-1.3443,0.880432
-1.35498,0.878906
-1.36719,0.881958
-1.37939,0.880432
-1.38702,0.880432
-1.39618,0.880432
-1.40839,0.881958
-1.41907,0.880432
-1.43127,0.881958
-1.44043,0.878906
-1.45264,0.883484
-1.46484,0.881958
-1.474,0.883484
-1.48163,0.880432
-1.49536,0.875854
-1.50604,0.880432
-1.51367,0.881958
-1.5274,0.880432
-1.53809,0.881958
-1.54419,0.881958
-1.5564,0.881958
-1.5686,0.881958
-1.57471,0.883484
-1.58691,0.881958
-1.59607,0.878906
-1.60675,0.880432
-1.61743,0.881958
-1.62659,0.878906
-1.63574,0.88501
-1.64642,0.883484
-1.651,0.878906
-1.66168,0.880432
-1.67084,0.881958
-1.68304,0.883484
-1.69067,0.880432
-1.70135,0.880432
-1.70441,0.880432
-1.71509,0.88501
-1.72272,0.881958
-1.7334,0.880432
-1.74103,0.881958
-1.75018,0.883484
-1.75934,0.881958
-1.76697,0.883484
-1.7746,0.880432
-1.78528,0.880432
-1.79138,0.878906
-1.80359,0.88501
-1.81122,0.880432
-1.8158,0.880432
-1.82495,0.88501
-1.83105,0.883484
-1.84174,0.88501
-1.84937,0.881958
-1.85547,0.883484
-1.86462,0.88501
-1.87378,0.881958
-1.87531,0.881958
-1.88293,0.886536
-1.89056,0.880432
-1.89972,0.883484
-1.9043,0.883484
-1.91345,0.88501
-1.92413,0.881958
-1.92719,0.881958
-1.93481,0.883484
-1.94092,0.883484
-1.94855,0.883484
-1.95618,0.883484
-1.96533,0.88501
-1.97144,0.883484
-1.97754,0.880432
-1.98669,0.883484
-1.99585,0.889587
-2.00348,0.883484
-2.01263,0.883484
-2.01721,0.883484
-2.02637,0.883484
-2.03552,0.88501
-2.04163,0.88501
-2.04926,0.88501
-2.05994,0.88501
-2.06757,0.88501
-2.07672,0.886536
-2.08588,0.883484
-2.09808,0.881958
-2.10266,0.889587
-2.11334,0.88501
-2.12555,0.883484
-2.13013,0.88501
-2.13776,0.88501
-2.15302,0.883484
-2.16522,0.88501
-2.17285,0.88501
-2.18353,0.881958
-2.19269,0.88501
-2.20032,0.886536
-2.20642,0.886536
-2.21558,0.88501
-2.21558,0.886536
-2.21405,0.88501
-2.20795,0.883484
-2.20337,0.88501
-2.19421,0.889587
-2.17896,0.886536
-2.16064,0.88501
-2.13928,0.886536
-2.10724,0.886536
-2.07825,0.88501
-2.04315,0.88501
-2.01111,0.886536
-1.97449,0.88501
-1.93329,0.889587
-1.89209,0.892639
-1.85394,0.886536
-1.81427,0.889587
-1.77155,0.889587
-1.73035,0.886536
-1.6922,0.891113
-1.65253,0.88501
-1.61133,0.883484
-1.57318,0.88501
-1.53503,0.891113
-1.50146,0.889587
-1.4679,0.889587
-1.4328,0.886536
-1.40228,0.889587
-1.37024,0.889587
-1.34125,0.891113
-1.31683,0.88501
-1.28937,0.889587
-1.27106,0.889587
-1.24512,0.889587
-1.22681,0.892639
-1.20544,0.889587
-1.19171,0.891113
-1.17645,0.889587
-1.16119,0.886536
-1.15051,0.891113
-1.13678,0.889587
-1.12762,0.883484
-1.11542,0.886536
-1.10779,0.889587
-1.10016,0.891113
-1.09253,0.88501
-1.08643,0.886536
-1.0788,0.891113
-1.07422,0.891113
-1.06964,0.894165
-1.06812,0.892639
-1.06506,0.889587
-1.06049,0.891113
-1.06201,0.891113
-1.05896,0.895691
-1.05896,0.886536
-1.06049,0.891113
-1.06049,0.891113
-1.06354,0.891113
-1.06354,0.892639
-1.06506,0.892639
-1.06354,0.889587
-1.06659,0.891113
-1.06812,0.891113
-1.07422,0.892639
-1.07727,0.889587
-1.0788,0.891113
-1.0849,0.886536
-1.091,0.892639
-1.09558,0.894165
-1.10016,0.886536
-1.10779,0.891113
-1.11542,0.891113
-1.12152,0.891113
-1.12762,0.895691
-1.1322,0.889587
-1.13678,0.889587
-1.14441,0.891113
-1.15051,0.895691
-1.15662,0.894165
-1.16119,0.891113
-1.16577,0.892639
-1.17188,0.892639
-1.17645,0.892639
-1.1795,0.895691
-1.18256,0.891113
-1.18713,0.891113
-1.18713,0.891113
-1.19324,0.892639
-1.19476,0.894165
-1.19781,0.891113
-1.19934,0.891113
-1.19934,0.894165
-1.20697,0.894165
-1.20697,0.897217
-1.2085,0.892639
-1.20697,0.894165
-1.20697,0.886536
-1.20697,0.894165
-1.21002,0.894165
-1.21002,0.889587
-1.21002,0.894165
-1.20697,0.894165
-1.21002,0.892639
-1.21307,0.895691
-1.21155,0.891113
-1.2146,0.894165
-1.2146,0.892639
-1.2146,0.894165
-1.21765,0.895691
-1.22223,0.892639
-1.22223,0.894165
-1.22528,0.892639
-1.22833,0.894165
-1.23444,0.895691
-1.23749,0.894165
-1.24054,0.891113
-1.24359,0.891113
-1.24664,0.894165
-1.25122,0.892639
-1.2558,0.892639
-1.2619,0.894165
-1.26648,0.894165
-1.27258,0.895691
-1.27869,0.897217
-1.28021,0.894165
-1.28937,0.892639
-1.29547,0.894165
-1.30157,0.895691
-1.30768,0.895691
-1.31226,0.894165
-1.31989,0.892639
-1.32599,0.894165
-1.33362,0.898743
-1.34277,0.894165
-1.34888,0.894165
-1.35498,0.892639
-1.36261,0.895691
-1.37634,0.892639
-1.38092,0.895691
-1.39008,0.894165
-1.39923,0.894165
-1.40991,0.894165
-1.42212,0.898743
-1.42975,0.895691
-1.43585,0.892639
-1.44653,0.895691
-1.45569,0.894165
-1.46637,0.897217
-1.47552,0.894165
-1.48468,0.892639
-1.49689,0.891113
-1.50452,0.894165
-1.51215,0.895691
-1.52283,0.895691
-1.53503,0.894165
-1.54419,0.892639
-1.55487,0.891113
-1.5625,0.895691
-1.5686,0.897217
-1.57776,0.892639
-1.58691,0.897217
-1.59454,0.894165
-1.60217,0.892639
-1.61591,0.895691
-1.62354,0.895691
-1.62964,0.894165
-1.63879,0.892639
-1.64642,0.895691
-1.65253,0.895691
-1.65863,0.894165
-1.66931,0.891113
-1.67389,0.892639
-1.68457,0.895691
-1.6861,0.895691
-1.69678,0.891113
-1.70288,0.894165
-1.71051,0.895691
-1.71814,0.892639
-1.72272,0.894165
-1.73035,0.891113
-1.73645,0.892639
-1.74561,0.895691
-1.75018,0.897217
-1.75781,0.892639
-1.76392,0.894165
-1.76849,0.894165
-1.78375,0.894165
-1.78528,0.894165
-1.79138,0.897217
-1.80054,0.892639
-1.80969,0.897217
-1.8158,0.894165
-1.8219,0.895691
-1.82648,0.892639
-1.83716,0.892639
-1.84326,0.891113
-1.84937,0.894165
-1.85852,0.892639
-1.8631,0.897217
-1.87531,0.894165
-1.88141,0.892639
-1.88599,0.894165
-1.89514,0.894165
-1.9043,0.895691
-1.90887,0.892639
-1.91803,0.894165
-1.92261,0.891113
-1.93176,0.895691
-1.94244,0.895691
-1.9455,0.889587
-1.95618,0.892639
-1.96381,0.892639
-1.96838,0.894165
-1.97906,0.892639
-1.98822,0.894165
-1.99432,0.889587
-2.005,0.891113
-2.01416,0.894165
-2.02179,0.891113
-2.03247,0.891113
-2.0401,0.894165
-2.04926,0.891113
-2.05994,0.892639
-2.07062,0.895691
-2.07977,0.892639
-2.08893,0.894165
-2.09808,0.891113
-2.10266,0.891113
-2.10876,0.891113
-2.11029,0.889587
-2.11029,0.892639
-2.10724,0.891113
-2.10114,0.894165
-2.09045,0.894165
-2.0813,0.892639
-2.06451,0.892639
-2.04468,0.886536
-2.01874,0.891113
-1.98975,0.894165
-1.96228,0.892639
-1.92719,0.891113
-1.89972,0.889587
-1.8631,0.889587
-1.82343,0.892639
-1.78833,0.891113
-1.75018,0.891113
-1.71051,0.892639
-1.67084,0.892639
-1.63269,0.894165
-1.59302,0.889587
-1.55792,0.886536
-1.51672,0.892639
-1.4801,0.892639
-1.44348,0.891113
-1.40839,0.889587
-1.37634,0.891113
-1.3443,0.889587
-1.30768,0.891113
-1.27869,0.891113
-1.25427,0.889587
-1.22833,0.889587
-1.20697,0.891113
-1.18561,0.891113
-1.16119,0.892639
-1.14594,0.886536
-1.12762,0.891113
-1.10779,0.886536
-1.09406,0.889587
-1.08032,0.891113
-1.06659,0.891113
-1.05438,0.883484
-1.04523,0.891113
-1.03302,0.889587
-1.02386,0.891113
-1.01776,0.886536
-1.01318,0.886536
-1.00403,0.886536
-1.00098,0.889587
-0.993347,0.886536
-0.993347,0.891113
-0.990295,0.889587
-0.98877,0.886536
-0.990295,0.886536
-0.982666,0.889587
-0.982666,0.886536
-0.979614,0.88501
-0.976563,0.88501
-0.979614,0.889587
-0.975037,0.891113
-0.978088,0.886536
-0.978088,0.886536
-0.984192,0.886536
-0.985718,0.889587
-0.990295,0.886536
-0.990295,0.886536
-0.993347,0.886536
-0.999451,0.88501
-1.00403,0.886536
-1.00555,0.889587
-1.01318,0.88501
-1.01776,0.886536
-1.02386,0.886536
-1.02844,0.891113
-1.0376,0.889587
-1.04218,0.88501
-1.04218,0.889587
-1.05438,0.883484
-1.05743,0.886536
-1.06354,0.88501
-1.06659,0.88501
-1.07269,0.886536
-1.07727,0.88501
-1.08185,0.889587
-1.0849,0.886536
-1.091,0.883484
-1.09253,0.88501
-1.09711,0.886536
-1.10016,0.886536
-1.10168,0.889587
-1.10321,0.886536
-1.10474,0.889587
-1.10779,0.886536
-1.10779,0.889587
-1.10474,0.886536
-1.10779,0.881958
-1.10931,0.886536
-1.10931,0.881958
-1.10779,0.886536
-1.10779,0.886536
-1.10931,0.886536
-1.10779,0.883484
-1.10779,0.88501
-1.10931,0.889587
-1.10321,0.891113
-1.10779,0.88501
-1.10474,0.88501
-1.10474,0.886536
-1.10779,0.88501
-1.10931,0.88501
-1.11237,0.88501
-1.11389,0.883484
-1.11694,0.883484
-1.12152,0.88501
-1.12457,0.886536
-1.12915,0.886536
-1.1322,0.883484
-1.14136,0.88501
-1.14441,0.88501
-1.14899,0.886536
-1.15356,0.88501
-1.15967,0.88501
-1.1673,0.886536
-1.17493,0.886536
-1.18256,0.889587
-1.18866,0.88501
-1.19476,0.88501
-1.20544,0.88501
-1.21155,0.88501
-1.21765,0.886536
-1.22375,0.88501
-1.23596,0.88501
-1.24207,0.88501
-1.25122,0.886536
-1.25885,0.891113
-1.26648,0.886536
-1.27716,0.88501
-1.28632,0.883484
-1.29852,0.886536
-1.30615,0.88501
-1.31683,0.886536
-1.32904,0.88501
-1.33514,0.88501
-1.3443,0.886536
-1.35498,0.886536
-1.36719,0.88501
-1.37634,0.883484
-1.38702,0.88501
-1.39465,0.881958
-1.40686,0.88501
-1.41449,0.88501
-1.42822,0.88501
-1.43433,0.883484
-1.44348,0.886536
-1.45721,0.88501
-1.46942,0.881958
-1.47705,0.886536
-1.48926,0.883484
-1.49689,0.88501
-1.50604,0.891113
-1.5152,0.88501
-1.5274,0.88501
-1.53351,0.883484
-1.54419,0.889587
-1.55334,0.88501
-1.56555,0.88501
-1.57471,0.88501
-1.58234,0.886536
-1.59149,0.88501
-1.59912,0.889587
-1.60828,0.88501
-1.62354,0.88501
-1.62964,0.881958
-1.63727,0.88501
-1.64795,0.889587
-1.65558,0.886536
-1.66779,0.886536
-1.67236,0.886536
-1.68304,0.889587
-1.69067,0.886536
-1.6983,0.88501
-1.70898,0.886536
-1.71509,0.886536
-1.72424,0.886536
-1.7334,0.889587
-1.74255,0.883484
-1.75018,0.891113
-1.76086,0.886536
-1.76849,0.891113
-1.77917,0.886536
-1.78986,0.886536
-1.79596,0.881958
-1.80817,0.886536
-1.8158,0.892639
-1.82343,0.894165
-1.82953,0.886536
-1.84174,0.886536
-1.84784,0.886536
-1.85852,0.886536
-1.8692,0.889587
-1.87683,0.88501
-1.88293,0.886536
-1.89362,0.886536
-1.9043,0.889587
-1.9104,0.886536
-1.91803,0.88501
-1.93329,0.886536
-1.94092,0.88501
-1.94855,0.889587
-1.95618,0.889587
-1.96533,0.88501
-1.97144,0.886536
-1.98364,0.88501
-1.9928,0.886536
-2.00195,0.891113
-2.00958,0.889587
-2.01874,0.889587
-2.02484,0.88501
-2.03247,0.891113
-2.04163,0.886536
-2.05231,0.889587
-2.05841,0.889587
-2.06757,0.88501
-2.0752,0.891113
-2.08282,0.891113
-2.09351,0.88501
-2.10114,0.88501
-2.10724,0.88501
-2.12097,0.891113
-2.1286,0.889587
-2.13623,0.889587
-2.14691,0.886536
-2.15912,0.88501
-2.16675,0.889587
-2.18048,0.889587
-2.18811,0.891113
-2.20032,0.886536
-2.21405,0.889587
-2.22321,0.889587
-2.23083,0.889587
-2.24304,0.889587
-2.25525,0.88501
-2.2583,0.88501
-2.26898,0.889587
-2.27051,0.891113
-2.27051,0.889587
-2.26898,0.883484
-2.2644,0.886536
-2.2522,0.886536
-2.24152,0.889587
-2.22473,0.889587
-2.20184,0.883484
-2.17896,0.88501
-2.14691,0.891113
-2.11945,0.889587
-2.08282,0.889587
-2.0462,0.889587
-2.00958,0.88501
-1.96991,0.886536
-1.92566,0.891113
-1.88751,0.891113
-1.84479,0.886536
-1.80511,0.88501
-1.76086,0.891113
-1.71967,0.889587
-1.68457,0.886536
-1.64032,0.88501
-1.60217,0.886536
-1.56555,0.891113
-1.52588,0.886536
-1.49078,0.892639
-1.45721,0.886536
-1.42517,0.889587
-1.39618,0.891113
-1.36719,0.891113
-1.33972,0.891113
-1.31073,0.889587
-1.29242,0.886536
-1.26801,0.891113
-1.24664,0.891113
-1.23138,0.889587
-1.2146,0.883484
-1.19476,0.889587
-1.18408,0.886536
-1.17188,0.886536
-1.15814,0.891113
-1.15204,0.883484
-1.13678,0.886536
-1.13373,0.891113
-1.12457,0.891113
-1.11847,0.886536
-1.11084,0.886536
-1.10474,0.883484
-1.10016,0.891113
-1.09711,0.891113
-1.09863,0.892639
-1.09253,0.88501
-1.09253,0.883484
-1.08948,0.88501
-1.08948,0.889587
-1.08643,0.889587
-1.08337,0.886536
-1.0849,0.883484
-1.08032,0.88501
-1.08185,0.889587
-1.08337,0.892639
-1.0849,0.886536
-1.08185,0.883484
-1.08795,0.889587
-1.08795,0.88501
-1.08948,0.889587
-1.091,0.88501
-1.09711,0.889587
-1.09711,0.889587
-1.10321,0.88501
-1.11084,0.886536
-1.11237,0.88501
-1.11694,0.88501
-1.12152,0.886536
-1.12762,0.88501
-1.12915,0.886536
-1.13525,0.886536
-1.14288,0.88501
-1.14746,0.886536
-1.15204,0.886536
-1.15967,0.891113
-1.1673,0.886536
-1.17188,0.883484
-1.17645,0.88501
-1.18256,0.88501
-1.18713,0.891113
-1.19324,0.881958
-1.19781,0.883484
-1.20087,0.88501
-1.20697,0.88501
-1.21307,0.889587
-1.2146,0.881958
-1.21765,0.883484
-1.2207,0.883484
-1.22375,0.889587
-1.22681,0.889587
-1.22986,0.883484
-1.23138,0.883484
-1.22986,0.883484
-1.23596,0.886536
-1.23749,0.886536
-1.23901,0.886536
-1.23901,0.883484
-1.24054,0.883484
-1.24359,0.886536
-1.24359,0.891113
-1.24359,0.878906
-1.24817,0.880432
-1.25275,0.881958
-1.25427,0.886536
-1.25732,0.88501
-1.25885,0.88501
-1.2619,0.881958
-1.26343,0.883484
-1.26953,0.88501
-1.27258,0.886536
-1.27869,0.881958
-1.28021,0.883484
-1.28326,0.878906
-1.28937,0.88501
-1.29547,0.886536
-1.3031,0.878906
-1.30768,0.881958
-1.31226,0.883484
-1.31989,0.886536
-1.32294,0.886536
-1.33667,0.881958
-1.34125,0.883484
-1.34583,0.883484
-1.35803,0.88501
-1.36261,0.88501
-1.37024,0.881958
-1.37787,0.881958
-1.38397,0.88501
-1.39465,0.883484
-1.40228,0.88501
-1.41144,0.883484
-1.42059,0.880432
-1.43127,0.886536
-1.44348,0.881958
-1.44806,0.88501
-1.46332,0.881958
-1.47247,0.881958
-1.4801,0.88501
-1.49231,0.88501
-1.50146,0.883484
-1.51367,0.881958
-1.52283,0.88501
-1.53046,0.88501
-1.54114,0.881958
-1.55487,0.88501
-1.5625,0.878906
-1.57013,0.880432
-1.57928,0.889587
-1.58997,0.88501
-1.59912,0.883484
-1.61133,0.881958
-1.62201,0.880432
-1.63116,0.88501
-1.63727,0.883484
-1.651,0.883484
-1.6571,0.883484
-1.66473,0.881958
-1.67999,0.883484
-1.68762,0.88501
-1.6983,0.881958
-1.70288,0.88501
-1.71509,0.881958
-1.72424,0.883484
-1.73187,0.886536
-1.73645,0.881958
-1.74713,0.881958
-1.75476,0.883484
-1.76086,0.883484
-1.77307,0.883484
-1.78223,0.881958
-1.78986,0.880432
-1.79443,0.883484
-1.80664,0.881958
-1.81122,0.883484
-1.82343,0.880432
-1.83258,0.881958
-1.83868,0.87738
-1.84784,0.881958
-1.85242,0.883484
-1.86005,0.881958
-1.87073,0.880432
-1.87836,0.883484
-1.88599,0.886536
-1.89514,0.883484
-1.90277,0.881958
-1.91193,0.881958
-1.92261,0.881958
-1.92719,0.881958
-1.93787,0.883484
-1.94702,0.883484
-1.95007,0.880432
-1.95923,0.883484
-1.96686,0.881958
-1.97906,0.88501
-1.98669,0.881958
-1.99585,0.878906
-1.9989,0.880432
-2.01111,0.880432
-2.01721,0.881958
-2.02637,0.881958
-2.034,0.880432
-2.0401,0.878906
-2.0462,0.883484
-2.05688,0.88501
-2.06604,0.880432
-2.0752,0.88501
-2.0813,0.883484
-2.08893,0.881958
-2.09656,0.88501
-2.10266,0.881958
-2.11334,0.881958
-2.1225,0.881958
-2.13013,0.881958
-2.1347,0.883484
-2.14539,0.881958
-2.15454,0.880432
-2.16522,0.880432
-2.17285,0.88501
-2.18506,0.88501
-2.19116,0.883484
-2.20184,0.881958
-2.2171,0.883484
-2.22626,0.88501
-2.23541,0.883484
-2.24762,0.883484
-2.25525,0.878906
-2.26746,0.881958
-2.27509,0.88501
-2.28424,0.883484
-2.29034,0.881958
-2.29645,0.881958
-2.29797,0.881958
-2.29797,0.883484
-2.29187,0.880432
-2.28577,0.880432
-2.27356,0.883484
-2.25677,0.881958
-2.23694,0.883484
-2.22015,0.883484
-2.19421,0.88501
-2.16522,0.881958
-2.1347,0.881958
-2.09961,0.883484
-2.06604,0.88501
-2.02637,0.881958
-1.99585,0.881958
-1.95313,0.880432
-1.91498,0.88501
-1.87683,0.881958
-1.84021,0.881958
-1.79596,0.883484
-1.75781,0.881958
-1.72119,0.883484
-1.6861,0.886536
-1.64948,0.883484
-1.61438,0.880432
-1.58386,0.881958
-1.55334,0.880432
-1.52435,0.883484
-1.49689,0.883484
-1.4679,0.880432
-1.44348,0.880432
-1.41754,0.881958
-1.39923,0.881958
-1.37787,0.883484
-1.35803,0.878906
-1.34277,0.880432
-1.32446,0.880432
-1.31073,0.881958
-1.29395,0.883484
-1.28326,0.881958
-1.27563,0.880432
-1.26648,0.883484
-1.25732,0.883484
-1.25427,0.880432
-1.24817,0.880432
-1.24207,0.881958
-1.23749,0.881958
-1.23444,0.883484
-1.22986,0.883484
-1.22681,0.878906
-1.22681,0.880432
-1.22681,0.881958
-1.22375,0.880432
-1.22223,0.880432
-1.2207,0.880432
-1.2207,0.881958
-1.22223,0.881958
-1.21918,0.883484
-1.22223,0.881958
-1.22528,0.881958
-1.22528,0.880432
-1.22528,0.886536
-1.22681,0.88501
-1.23138,0.880432
-1.23596,0.878906
-1.23901,0.880432
-1.24359,0.881958
-1.24969,0.881958
-1.24969,0.881958
-1.25732,0.878906
-1.26343,0.881958
-1.26953,0.881958
-1.27411,0.880432
-1.27869,0.881958
-1.28784,0.881958
-1.29547,0.880432
-1.3031,0.881958
-1.30768,0.883484
-1.31531,0.881958
-1.32141,0.880432
-1.33057,0.878906
-1.33209,0.880432
-1.33972,0.880432
-1.34277,0.881958
-1.35193,0.878906
-1.35803,0.883484
-1.36108,0.880432
-1.37024,0.880432
-1.36871,0.881958
-1.37787,0.878906
-1.37939,0.87738
-1.38092,0.881958
-1.38702,0.881958
-1.39008,0.880432
-1.39313,0.878906
-1.39771,0.881958
-1.39923,0.880432
-1.40076,0.883484
-1.40381,0.880432
-1.40533,0.880432
-1.40686,0.880432
-1.40686,0.881958
-1.41144,0.881958
-1.41144,0.880432
-1.41449,0.878906
-1.41602,0.878906
-1.42212,0.878906
-1.42517,0.881958
-1.42822,0.880432
-1.4328,0.880432
-1.43585,0.875854
-1.44043,0.878906
-1.44043,0.881958
-1.44501,0.880432
-1.44958,0.880432
-1.45569,0.880432
-1.45721,0.878906
-1.46637,0.880432
-1.47095,0.878906
-1.47858,0.878906
-1.48315,0.881958
-1.49078,0.880432
-1.49841,0.880432
-1.50604,0.880432
-1.51367,0.878906
-1.52283,0.875854
-1.52893,0.878906
-1.53656,0.87738
-1.54419,0.878906
-1.5564,0.875854
-1.56555,0.87738
-1.5686,0.878906
-1.58386,0.881958
-1.59302,0.878906
-1.60065,0.87738
-1.61438,0.880432
-1.62201,0.880432
-1.63269,0.880432
-1.64185,0.875854
-1.65253,0.87738
-1.66321,0.87738
-1.67084,0.87738
-1.68457,0.880432
-1.6922,0.87738
-1.70288,0.878906
-1.71661,0.875854
-1.72424,0.87738
-1.73492,0.880432
-1.74713,0.875854
-1.75934,0.875854
-1.76697,0.87738
-1.77917,0.875854
-1.78833,0.87738
-1.79901,0.874329
-1.81122,0.87738
-1.82343,0.878906
-1.83105,0.878906
-1.84479,0.880432
-1.85547,0.87738
-1.8631,0.875854
-1.87531,0.875854
-1.88446,0.878906
-1.89209,0.878906
-1.9043,0.874329
-1.91193,0.874329
-1.92261,0.87738
-1.93329,0.878906
-1.93939,0.880432
-1.94855,0.875854
-1.9577,0.87738
-1.96991,0.874329
-1.97754,0.87738
-1.98669,0.875854
-1.9989,0.875854
-2.005,0.87738
-2.01416,0.874329
-2.02484,0.875854
-2.03247,0.880432
-2.04163,0.874329
-2.05078,0.874329
-2.05383,0.87738
-2.06451,0.875854
-2.07214,0.878906
-2.0813,0.874329
-2.08893,0.872803
-2.09808,0.875854
-2.10724,0.87738
-2.11334,0.875854
-2.12555,0.875854
-2.13013,0.874329
-2.14081,0.875854
-2.14691,0.875854
-2.15607,0.87738
-2.1637,0.874329
-2.17438,0.874329
-2.17896,0.874329
-2.18506,0.875854
-2.19116,0.875854
-2.19879,0.874329
-2.20795,0.875854
-2.21863,0.874329
-2.22321,0.874329
-2.23083,0.875854
-2.23694,0.869751
-2.24304,0.875854
-2.25067,0.87738
-2.25983,0.875854
-2.2644,0.875854
-2.27203,0.872803
-2.27966,0.874329
-2.28729,0.875854
-2.29492,0.874329
-2.29645,0.875854
-2.3056,0.872803
-2.31323,0.874329
-2.32086,0.875854
-2.32849,0.874329
-2.33307,0.874329
-2.34375,0.874329
-2.35138,0.871277
-2.35748,0.872803
-2.37427,0.875854
-2.38037,0.87738
-2.39105,0.871277
-2.39868,0.874329
-2.40479,0.875854
-2.41852,0.872803
-2.42615,0.872803
-2.43835,0.874329
-2.44904,0.871277
-2.45361,0.872803
-2.46735,0.872803
-2.4765,0.875854
-2.48413,0.871277
-2.49634,0.874329
-2.50549,0.872803
-2.5116,0.875854
-2.51465,0.872803
-2.51465,0.874329
-2.5116,0.872803
-2.50854,0.872803
-2.49939,0.872803
-2.48413,0.875854
-2.4704,0.868225
-2.44904,0.872803
-2.4231,0.875854
-2.3941,0.872803
-2.36359,0.872803
-2.32849,0.869751
-2.2934,0.874329
-2.25677,0.871277
-2.22168,0.874329
-2.18353,0.874329
-2.14539,0.874329
-2.10724,0.872803
-2.06451,0.872803
-2.02179,0.871277
-1.98517,0.871277
-1.9455,0.872803
-1.9104,0.872803
-1.87073,0.875854
-1.83868,0.872803
-1.79749,0.872803
-1.76239,0.872803
-1.73187,0.872803
-1.70288,0.874329
-1.67236,0.871277
-1.64948,0.871277
-1.62506,0.871277
-1.59912,0.872803
-1.57623,0.872803
-1.55334,0.872803
-1.53351,0.869751
-1.51672,0.871277
-1.50452,0.869751
-1.49078,0.875854
-1.47552,0.872803
-1.46332,0.874329
-1.45569,0.874329
-1.44653,0.871277
-1.43738,0.872803
-1.43433,0.871277
-1.42975,0.871277
-1.42822,0.871277
-1.41907,0.869751
-1.41602,0.874329
-1.41602,0.871277
-1.41144,0.875854
-1.41144,0.874329
-1.41144,0.869751
-1.40991,0.871277
-1.40533,0.869751
-1.41144,0.872803
-1.41144,0.869751
-1.41144,0.871277
-1.40991,0.871277
-1.41602,0.872803
-1.41296,0.868225
-1.42059,0.871277
-1.42059,0.871277
-1.42517,0.871277
-1.42975,0.872803
-1.43433,0.871277
-1.44196,0.871277
-1.44501,0.868225
-1.44958,0.872803
-1.45721,0.871277
-1.46484,0.872803
-1.46942,0.872803
-1.47858,0.868225
-1.48926,0.871277
-1.49384,0.874329
-1.50299,0.872803
-1.50757,0.869751
-1.51367,0.871277
-1.51978,0.871277
-1.52893,0.871277
-1.53656,0.874329
-1.53961,0.872803
-1.54419,0.872803
-1.55029,0.872803
-1.5564,0.872803
-1.55945,0.87738
-1.56708,0.872803
-1.56555,0.869751
-1.57013,0.874329
-1.57166,0.869751
-1.57318,0.874329
-1.57471,0.872803
-1.57471,0.872803
-1.57623,0.872803
-1.57776,0.875854
-1.57928,0.872803
-1.57776,0.872803
-1.57776,0.869751
-1.57928,0.872803
-1.57776,0.871277
-1.57928,0.874329
-1.57776,0.871277
-1.57776,0.869751
-1.58234,0.872803
-1.58386,0.872803
-1.58386,0.874329
-1.58386,0.872803
-1.58539,0.872803
-1.58539,0.872803
-1.58691,0.872803
-1.58844,0.872803
-1.58997,0.872803
-1.59149,0.874329
-1.59454,0.872803
-1.60065,0.875854
-1.5976,0.874329
-1.60522,0.874329
-1.6098,0.871277
-1.61438,0.874329
-1.62048,0.872803
-1.62659,0.874329
-1.63116,0.872803
-1.63574,0.874329
-1.64337,0.872803
-1.64948,0.871277
-1.6571,0.871277
-1.66473,0.874329
-1.67389,0.871277
-1.68304,0.872803
-1.69067,0.872803
-1.69983,0.874329
-1.70898,0.871277
-1.71814,0.874329
-1.72882,0.874329
-1.73645,0.872803
-1.74561,0.872803
-1.75629,0.871277
-1.76392,0.872803
-1.77612,0.874329
-1.78528,0.874329
-1.79749,0.875854
-1.80817,0.874329
-1.81732,0.871277
-1.82648,0.875854
-1.83868,0.875854
-1.84631,0.875854
-1.85852,0.871277
-1.8692,0.872803
-1.87683,0.87738
-1.88904,0.874329
-1.90125,0.872803
-1.91193,0.875854
-1.91956,0.872803
-1.93329,0.875854
-1.93939,0.874329
-1.94702,0.875854
-1.95313,0.872803
-1.96533,0.872803
-1.97449,0.872803
-1.98364,0.872803
-1.99585,0.874329
-2.00348,0.872803
-2.01569,0.872803
-2.02026,0.87738
-2.02942,0.87738
-2.03857,0.875854
-2.04926,0.874329
-2.05688,0.874329
-2.06604,0.874329
-2.07214,0.875854
-2.07977,0.878906
-2.08588,0.872803
-2.09808,0.872803
-2.10266,0.875854
-2.11182,0.87738
-2.11945,0.878906
-2.12555,0.871277
-2.13318,0.87738
-2.13928,0.878906
-2.14691,0.875854
-2.15759,0.881958
-2.1637,0.871277
-2.17133,0.874329
-2.17743,0.875854
-2.18353,0.875854
-2.19421,0.880432
-2.20032,0.872803
-2.20642,0.875854
-2.21558,0.875854
-2.22321,0.87738
-2.23236,0.87738
-2.23846,0.874329
-2.24304,0.878906
-2.25372,0.87738
-2.26288,0.878906
-2.27051,0.881958
-2.28119,0.872803
-2.28882,0.87738
-2.29645,0.875854
-2.30408,0.878906
-2.31476,0.875854
-2.32239,0.875854
-2.32849,0.880432
-2.33765,0.878906
-2.34985,0.87738
-2.35748,0.878906
-2.36664,0.874329
-2.37579,0.878906
-2.3819,0.881958
-2.388,0.878906
-2.3941,0.881958
-2.39716,0.874329
-2.40173,0.880432
-2.40173,0.878906
-2.39868,0.880432
-2.39105,0.883484
-2.3819,0.875854
-2.36664,0.878906
-2.35138,0.883484
-2.33154,0.881958
-2.30408,0.881958
-2.27509,0.875854
-2.24762,0.87738
-2.21405,0.883484
-2.1759,0.883484
-2.13928,0.881958
-2.09961,0.875854
-2.06146,0.880432
-2.02484,0.883484
-1.98212,0.881958
-1.94397,0.881958
-1.90277,0.87738
-1.8631,0.878906
-1.828,0.883484
-1.78528,0.880432
-1.75171,0.883484
-1.71509,0.87738
-1.67999,0.881958
-1.64642,0.88501
-1.61743,0.880432
-1.58386,0.881958
-1.55487,0.87738
-1.53046,0.881958
-1.50299,0.886536
-1.47858,0.880432
-1.45569,0.88501
-1.4389,0.87738
-1.41602,0.883484
-1.40076,0.883484
-1.3855,0.88501
-1.36871,0.886536
-1.35345,0.878906
-1.34583,0.883484
-1.33209,0.883484
-1.31836,0.886536
-1.31073,0.883484
-1.30005,0.878906
-1.29395,0.886536
-1.28479,0.883484
-1.28326,0.886536
-1.27716,0.88501
-1.27258,0.87738
-1.26801,0.883484
-1.2619,0.88501
-1.2619,0.886536
-1.2619,0.881958
-1.26038,0.878906
-1.25732,0.881958
-1.2558,0.886536
-1.2558,0.886536
-1.25427,0.889587
-1.25427,0.881958
-1.2558,0.88501
-1.2558,0.891113
-1.25732,0.889587
-1.26038,0.886536
-1.2619,0.88501
-1.26648,0.88501
-1.27106,0.886536
-1.27411,0.88501
-1.27869,0.889587
-1.28326,0.883484
-1.28632,0.886536
-1.29089,0.891113
-1.30005,0.891113
-1.3031,0.886536
-1.30768,0.88501
-1.31531,0.886536
-1.32141,0.889587
-1.32904,0.891113
-1.3382,0.891113
-1.33972,0.881958
-1.34277,0.891113
-1.35193,0.891113
-1.35498,0.889587
-1.36261,0.886536
-1.36566,0.883484
-1.37024,0.889587
-1.37482,0.891113
-1.37787,0.891113
-1.37939,0.892639
-1.38397,0.886536
-1.38397,0.891113
-1.3855,0.889587
-1.38855,0.889587
-1.39313,0.894165
-1.39618,0.88501
-1.39465,0.886536
-1.39618,0.891113
-1.39618,0.892639
-1.39313,0.889587
-1.39618,0.88501
-1.39771,0.889587
-1.39771,0.894165
-1.39923,0.891113
-1.39618,0.894165
-1.39771,0.892639
-1.40076,0.892639
-1.39923,0.894165
-1.40381,0.891113
-1.40228,0.894165
-1.40686,0.891113
-1.41144,0.894165
-1.41144,0.895691
-1.41602,0.894165
-1.41602,0.894165
-1.42059,0.891113
-1.42212,0.891113
-1.42822,0.894165
-1.43127,0.891113
-1.43738,0.891113
-1.44196,0.889587
-1.44653,0.892639
-1.45264,0.892639
-1.45874,0.891113
-1.4679,0.894165
-1.47247,0.894165
-1.47858,0.892639
-1.48773,0.891113
-1.49841,0.892639
-1.50604,0.894165
-1.51367,0.894165
-1.5213,0.892639
-1.53198,0.894165
-1.53656,0.891113
-1.54419,0.894165
-1.5564,0.895691
-1.56555,0.892639
-1.57471,0.894165
-1.58386,0.891113
-1.59149,0.895691
-1.60217,0.895691
-1.61133,0.891113
-1.61896,0.892639
-1.62811,0.891113
-1.64032,0.894165
-1.64948,0.897217
-1.65863,0.892639
-1.66931,0.894165
-1.67847,0.894165
-1.6861,0.894165
-1.69525,0.894165
-1.70441,0.892639
-1.71661,0.891113
-1.72577,0.892639
-1.7334,0.894165
-1.74408,0.895691
-1.75171,0.892639
-1.76239,0.894165
-1.77155,0.895691
-1.78375,0.897217
-1.78986,0.894165
-1.79901,0.892639
-1.80664,0.894165
-1.8158,0.892639
-1.82343,0.895691
-1.83563,0.897217
-1.84326,0.892639
-1.85394,0.894165
-1.86005,0.892639
-1.87225,0.894165
-1.87836,0.897217
-1.89056,0.892639
-1.89972,0.895691
-1.90887,0.894165
-1.9165,0.897217
-1.92413,0.895691
-1.93329,0.894165
-1.94092,0.897217
-1.95007,0.894165
-1.9577,0.897217
-1.96686,0.898743
-1.97296,0.892639
-1.97906,0.892639
-1.98669,0.895691
-1.99585,0.895691
-2.00348,0.900269
-2.00653,0.892639
-2.01874,0.892639
-2.02789,0.894165
-2.03247,0.897217
-2.0401,0.895691
-2.04773,0.891113
-2.05841,0.894165
-2.06299,0.894165
-2.07214,0.894165
-2.0813,0.898743
-2.09045,0.892639
-2.09808,0.895691
-2.10266,0.894165
-2.11029,0.891113
-2.11945,0.895691
-2.13013,0.892639
-2.13928,0.897217
-2.14539,0.894165
-2.15454,0.895691
-2.16522,0.898743
-2.16827,0.892639
-2.18048,0.892639
-2.18658,0.891113
-2.19421,0.894165
-2.2049,0.897217
-2.211,0.892639
-2.22015,0.892639
-2.22473,0.892639
-2.23389,0.895691
-2.24304,0.898743
-2.24915,0.892639
-2.25983,0.894165
-2.26288,0.895691
-2.27356,0.895691
-2.28271,0.895691
-2.28882,0.894165
-2.2995,0.894165
-2.31018,0.891113
-2.32086,0.897217
-2.33002,0.898743
-2.33765,0.891113
-2.35138,0.894165
-2.36206,0.894165
-2.37274,0.894165
-2.38037,0.898743
-2.38953,0.889587
-2.39716,0.892639
-2.40784,0.892639
-2.41241,0.894165
-2.41699,0.898743
-2.42004,0.891113
-2.41852,0.894165
-2.41699,0.889587
-2.40631,0.895691
-2.39563,0.895691
-2.3819,0.889587
-2.36053,0.894165
-2.3407,0.892639
-2.31171,0.895691
-2.28119,0.897217
-2.24915,0.889587
-2.21405,0.891113
-2.17285,0.892639
-2.13928,0.891113
-2.09503,0.895691
-2.05688,0.892639
-2.01569,0.891113
-1.97296,0.892639
-1.93024,0.897217
-1.88904,0.895691
-1.84937,0.889587
-1.80969,0.891113
-1.76697,0.891113
-1.73035,0.892639
-1.69373,0.894165
-1.65558,0.892639
-1.62048,0.892639
-1.58539,0.892639
-1.55182,0.894165
-1.52283,0.894165
-1.49689,0.889587
-1.46637,0.889587
-1.43738,0.889587
-1.41449,0.894165
-1.39771,0.891113
-1.37482,0.891113
-1.35498,0.894165
-1.3382,0.891113
-1.32141,0.895691
-1.30463,0.892639
-1.29089,0.886536
-1.28174,0.894165
-1.26801,0.892639
-1.2558,0.891113
-1.24664,0.891113
-1.23901,0.886536
-1.23138,0.889587
-1.22375,0.889587
-1.21765,0.889587
-1.21307,0.889587
-1.21002,0.889587
-1.20392,0.891113
-1.20087,0.886536
-1.19476,0.891113
-1.19324,0.886536
-1.18866,0.889587
-1.18713,0.889587
-1.18561,0.895691
-1.18256,0.889587
-1.1795,0.891113
-1.18103,0.886536
-1.1795,0.891113
-1.17493,0.886536
-1.17798,0.892639
-1.17798,0.891113
-1.18408,0.889587
-1.18256,0.886536
-1.18713,0.886536
-1.19019,0.889587
-1.19324,0.891113
-1.19629,0.886536
-1.19781,0.891113
-1.20392,0.886536
-1.2085,0.886536
-1.21155,0.886536
-1.21918,0.886536
-1.22223,0.886536
-1.22375,0.889587
-1.23138,0.891113
-1.23749,0.889587
-1.24512,0.88501
-1.24817,0.886536
-1.25275,0.886536
-1.25427,0.889587
-1.25732,0.889587
-1.2619,0.886536
-1.26343,0.88501
-1.26801,0.886536
-1.26953,0.88501
-1.26953,0.88501
-1.27411,0.88501
-1.27869,0.883484
-1.27716,0.886536
-1.27716,0.88501
-1.27869,0.88501
-1.28021,0.883484
-1.27716,0.883484
-1.27563,0.886536
-1.28021,0.88501
-1.27869,0.883484
-1.28021,0.883484
-1.27869,0.88501
-1.28326,0.889587
-1.28174,0.88501
-1.28479,0.88501
-1.28326,0.88501
-1.28326,0.88501
-1.28632,0.883484
-1.28479,0.883484
-1.28784,0.883484
-1.28937,0.883484
-1.29089,0.881958
-1.29242,0.883484
-1.29089,0.88501
-1.29395,0.881958
-1.29547,0.881958
-1.30157,0.883484
-1.30463,0.88501
-1.30768,0.88501
-1.31226,0.883484
-1.31378,0.88501
-1.31989,0.883484
-1.32294,0.881958
-1.33057,0.88501
-1.33514,0.883484
-1.3382,0.881958
-1.34735,0.883484
-1.34888,0.883484
-1.36108,0.881958
-1.36566,0.883484
-1.37329,0.880432
-1.38092,0.883484
-1.38855,0.881958
-1.39465,0.883484
-1.40686,0.878906
-1.41449,0.878906
-1.41907,0.881958
-1.43127,0.881958
-1.4389,0.881958
-1.44806,0.880432
-1.45569,0.878906
-1.46484,0.881958
-1.474,0.881958
-1.48315,0.883484
-1.49231,0.881958
-1.50452,0.881958
-1.51062,0.881958
-1.5213,0.883484
-1.53198,0.881958
-1.54114,0.878906
-1.54724,0.880432
-1.55945,0.880432
-1.56708,0.87738
-1.57318,0.880432
-1.58691,0.881958
-1.59454,0.878906
-1.6037,0.880432
-1.61133,0.878906
-1.62201,0.881958
-1.63116,0.878906
-1.64185,0.87738
-1.64948,0.881958
-1.6571,0.87738
-1.66931,0.881958
-1.68152,0.87738
-1.69067,0.878906
-1.6983,0.878906
-1.70441,0.878906
-1.71356,0.880432
-1.72119,0.87738
-1.73035,0.878906
-1.74103,0.87738
-1.74866,0.878906
-1.75629,0.878906
-1.76392,0.878906
-1.77155,0.875854
-1.78223,0.87738
-1.78986,0.878906
-1.79291,0.880432
-1.80359,0.87738
-1.81122,0.875854
-1.81885,0.880432
-1.82495,0.87738
-1.83258,0.878906
-1.83868,0.87738
-1.84326,0.87738
-1.85242,0.878906
-1.86005,0.87738
-1.86768,0.880432
-1.87531,0.878906
-1.87988,0.87738
-1.88904,0.875854
-1.89362,0.878906
-1.90582,0.878906
-1.9104,0.87738
-1.91803,0.87738
-1.92566,0.87738
-1.93329,0.87738
-1.93939,0.881958
-1.94855,0.875854
-1.95465,0.87738
-1.96228,0.878906
-1.97296,0.875854
-1.97906,0.875854
-1.98517,0.872803
-1.9928,0.874329
-2.00653,0.874329
-2.01416,0.87738
-2.02484,0.875854
-2.02942,0.872803
-2.03705,0.872803
-2.04315,0.87738
-2.05231,0.872803
-2.06299,0.875854
-2.06909,0.875854
-2.07825,0.871277
-2.08282,0.87738
-2.09351,0.874329
-2.09961,0.878906
-2.10876,0.869751
-2.11487,0.871277
-2.1225,0.874329
-2.13165,0.874329
-2.13776,0.875854
-2.14386,0.871277
-2.15607,0.871277
-2.16675,0.875854
-2.17743,0.872803
-2.18658,0.874329
-2.19727,0.869751
-2.20795,0.868225
-2.2171,0.875854
-2.22931,0.871277
-2.23541,0.875854
-2.24609,0.871277
-2.25372,0.868225
-2.2583,0.874329
-2.26135,0.871277
-2.2644,0.875854
-2.26593,0.871277
-2.2644,0.869751
-2.25372,0.874329
-2.24762,0.875854
-2.23541,0.872803
-2.21558,0.871277
-2.19421,0.869751
-2.17133,0.872803
-2.14081,0.871277
-2.11487,0.875854
-2.08282,0.872803
-2.04773,0.869751
-2.00958,0.872803
-1.97296,0.869751
-1.93481,0.875854
-1.89972,0.869751
-1.86005,0.869751
-1.81732,0.872803
-1.7807,0.872803
-1.74103,0.875854
-1.70288,0.872803
-1.66168,0.869751
-1.62659,0.869751
-1.59149,0.869751
-1.55487,0.872803
-1.5213,0.871277
-1.49078,0.869751
-1.46332,0.874329
-1.42975,0.871277
-1.40228,0.871277
-1.37787,0.868225
-1.35498,0.866699
-1.33209,0.869751
-1.3092,0.869751
-1.29395,0.872803
-1.27411,0.868225
-1.2558,0.866699
-1.24359,0.869751
-1.22833,0.871277
-1.21613,0.874329
-1.20544,0.869751
-1.19934,0.869751
-1.18713,0.871277
-1.18256,0.872803
-1.17493,0.871277
-1.16882,0.869751
-1.16272,0.865173
-1.15814,0.871277
-1.16119,0.869751
-1.15356,0.874329
-1.15204,0.869751
-1.14746,0.868225
-1.14746,0.868225
-1.14899,0.869751
-1.14746,0.872803
-1.14746,0.869751
-1.14746,0.865173
-1.15051,0.871277
-1.15051,0.871277
-1.15051,0.872803
-1.15509,0.866699
-1.15814,0.866699
-1.15967,0.869751
-1.16425,0.874329
-1.16882,0.871277
-1.17188,0.868225
-1.17645,0.868225
-1.18561,0.871277
-1.18866,0.868225
-1.19324,0.872803
-1.20392,0.868225
-1.2085,0.869751
-1.21613,0.869751
-1.22223,0.869751
-1.22681,0.869751
-1.23138,0.868225
-1.24054,0.866699
-1.24664,0.868225
-1.24817,0.869751
-1.25427,0.871277
-1.26038,0.871277
-1.26343,0.868225
-1.26953,0.871277
-1.27258,0.868225
-1.27716,0.872803
-1.28021,0.871277
-1.28326,0.868225
-1.28174,0.868225
-1.28632,0.869751
-1.28784,0.869751
-1.28937,0.869751
-1.29242,0.866699
-1.29242,0.866699
-1.29242,0.871277
-1.29242,0.872803
-1.29547,0.869751
-1.29547,0.866699
-1.29852,0.868225
-1.29852,0.868225
-1.30005,0.871277
-1.30005,0.868225
-1.30157,0.865173
-1.3031,0.866699
-1.30615,0.869751
-1.30463,0.869751
-1.30768,0.866699
-1.31073,0.866699
-1.31073,0.869751
-1.31531,0.868225
-1.31378,0.871277
-1.31836,0.866699
-1.32141,0.866699
-1.32904,0.871277
-1.33209,0.868225
-1.33514,0.869751
-1.34125,0.868225
-1.3443,0.865173
-1.34888,0.868225
-1.35498,0.868225
-1.36108,0.871277
-1.36566,0.868225
-1.37329,0.865173
-1.37787,0.869751
-1.38702,0.868225
-1.39465,0.872803
-1.40228,0.866699
-1.40991,0.865173
-1.42059,0.871277
-1.4267,0.866699
-1.43738,0.871277
-1.44958,0.865173
-1.46027,0.865173
-1.46942,0.865173
-1.4801,0.868225
-1.48926,0.871277
-1.49994,0.868225
-1.51062,0.865173
-1.5213,0.868225
-1.53198,0.868225
-1.54266,0.869751
-1.55334,0.865173
-1.56403,0.865173
-1.57471,0.866699
-1.58844,0.868225
-1.60065,0.868225
-1.61591,0.869751
-1.62354,0.863647
-1.63574,0.866699
-1.64642,0.868225
-1.6571,0.868225
-1.66626,0.865173
-1.67389,0.865173
-1.68915,0.868225
-1.69983,0.866699
-1.71204,0.868225
-1.71967,0.868225
-1.73035,0.865173
-1.74103,0.868225
-1.74866,0.868225
-1.76086,0.868225
-1.76849,0.868225
-1.7807,0.865173
-1.79138,0.866699
-1.79749,0.866699
-1.80817,0.865173
-1.81732,0.865173
-1.82648,0.862122
-1.83258,0.868225
-1.84174,0.866699
-1.84937,0.866699
-1.85852,0.869751
-1.86768,0.865173
-1.87531,0.866699
-1.88599,0.865173
-1.89514,0.869751
-1.90125,0.866699
-1.91193,0.865173
-1.92108,0.869751
-1.93329,0.868225
-1.93787,0.866699
-1.9455,0.866699
-1.9516,0.865173
-1.96228,0.868225
-1.96991,0.866699
-1.97754,0.868225
-1.98517,0.865173
-1.99738,0.857544
-2.00195,0.866699
-2.01263,0.866699
-2.01721,0.869751
-2.02789,0.868225
-2.034,0.862122
-2.03705,0.865173
-2.04468,0.866699
-2.05078,0.865173
-2.05841,0.866699
-2.07062,0.866699
-2.07367,0.863647
-2.08282,0.866699
-2.09045,0.866699
-2.09808,0.865173
-2.10724,0.862122
-2.11334,0.863647
-2.1225,0.866699
-2.12708,0.865173
-2.13623,0.863647
-2.14233,0.862122
-2.15454,0.862122
-2.16064,0.865173
-2.17133,0.865173
-2.17743,0.865173
-2.18811,0.863647
-2.19879,0.865173
-2.2049,0.865173
-2.2171,0.868225
-2.22473,0.865173
-2.23236,0.863647
-2.24304,0.863647
-2.25677,0.865173
-2.26288,0.866699
-2.27203,0.866699
-2.28271,0.862122
-2.29492,0.863647
-2.30255,0.862122
-2.31323,0.863647
-2.32544,0.863647
-2.33307,0.862122
-2.34222,0.866699
-2.34985,0.863647
-2.36053,0.865173
-2.36969,0.863647
-2.37885,0.863647
-2.38953,0.865173
-2.39563,0.863647
-2.40784,0.865173
-2.41547,0.863647
-2.42462,0.860596
-2.4353,0.865173
-2.44446,0.865173
-2.45209,0.865173
-2.46277,0.865173
-2.47345,0.860596
-2.48413,0.863647
-2.49481,0.865173
-2.50397,0.865173
-2.5177,0.863647
-2.5238,0.857544
-2.53754,0.860596
-2.54364,0.862122
-2.55127,0.863647
-2.55737,0.862122
-2.56348,0.857544
-2.56195,0.862122
-2.56348,0.860596
-2.55585,0.863647
-2.54669,0.863647
-2.53448,0.860596
-2.51312,0.860596
-2.49023,0.862122
-2.46429,0.860596
-2.4353,0.860596
-2.40479,0.860596
-2.36664,0.862122
-2.32849,0.865173
-2.28882,0.863647
-2.24304,0.862122
-2.20184,0.856018
-2.16064,0.862122
-2.11334,0.857544
-2.06909,0.863647
-2.02484,0.862122
-1.97906,0.856018
-1.93329,0.857544
-1.88904,0.860596
-1.84631,0.863647
-1.80511,0.862122
-1.76392,0.857544
-1.72424,0.862122
-1.68762,0.863647
-1.64795,0.862122
-1.61438,0.857544
-1.57776,0.857544
-1.54572,0.860596
-1.5152,0.857544
-1.48926,0.863647
-1.46332,0.860596
-1.43738,0.856018
-1.41754,0.856018
-1.39618,0.860596
-1.37634,0.857544
-1.35651,0.860596
-1.34277,0.857544
-1.32599,0.860596
-1.31226,0.862122
-1.30005,0.862122
-1.28937,0.862122
-1.27716,0.857544
-1.26648,0.860596
-1.25885,0.860596
-1.24969,0.863647
-1.24512,0.860596
-1.23901,0.856018
-1.23596,0.856018
-1.23138,0.857544
-1.22681,0.862122
-1.22375,0.862122
-1.2207,0.856018
-1.2207,0.856018
-1.21918,0.854492
-1.2146,0.862122
-1.2146,0.856018
-1.2146,0.854492
-1.21155,0.857544
-1.21307,0.857544
-1.21307,0.862122
-1.21613,0.860596
-1.21307,0.857544
-1.21307,0.857544
-1.21765,0.856018
-1.21918,0.863647
-1.22681,0.857544
-1.22681,0.854492
-1.23138,0.856018
-1.23749,0.860596
-1.24359,0.857544
-1.25122,0.860596
-1.25427,0.856018
-1.26038,0.857544
-1.26343,0.860596
-1.26801,0.860596
-1.27716,0.860596
-1.28479,0.856018
-1.29089,0.857544
-1.29395,0.856018
-1.30463,0.862122
-1.30615,0.857544
-1.3092,0.854492
-1.31683,0.856018
-1.31683,0.857544
-1.32294,0.860596
-1.32599,0.860596
-1.33057,0.854492
-1.33514,0.854492
-1.33667,0.857544
-1.3382,0.857544
-1.34125,0.860596
-1.33972,0.854492
-1.34125,0.856018
-1.34735,0.854492
-1.3504,0.856018
-1.34735,0.854492
-1.34735,0.852966
-1.34888,0.862122
-1.34888,0.856018
-1.3504,0.860596
-1.35193,0.856018
-1.35193,0.852966
-1.35193,0.854492
-1.35345,0.856018
-1.35498,0.862122
-1.35651,0.856018
-1.35651,0.85144
-1.36566,0.854492
-1.36414,0.854492
-1.36566,0.860596
-1.37024,0.854492
-1.37329,0.852966
-1.37482,0.854492
-1.38245,0.857544
-1.3855,0.857544
-1.39008,0.854492
-1.39771,0.854492
-1.40381,0.854492
-1.40839,0.854492
-1.41602,0.860596
-1.42517,0.856018
-1.43127,0.85144
-1.44043,0.856018
-1.44196,0.860596
-1.45111,0.854492
-1.46484,0.857544
-1.47247,0.854492
-1.47705,0.857544
-1.48926,0.857544
-1.50146,0.854492
-1.50604,0.854492
-1.51672,0.854492
-1.52588,0.852966
-1.53656,0.856018
-1.54724,0.860596
-1.5564,0.856018
-1.56555,0.85144
-1.57471,0.854492
-1.58386,0.856018
-1.59607,0.857544
-1.60217,0.854492
-1.6098,0.852966
-1.62354,0.854492
-1.63574,0.854492
-1.64795,0.856018
-1.65558,0.854492
-1.66626,0.852966
-1.67694,0.857544
-1.6861,0.857544
-1.69678,0.856018
-1.70441,0.856018
-1.71356,0.852966
-1.72577,0.856018
-1.7334,0.852966
-1.74255,0.856018
-1.75171,0.854492
-1.76239,0.849915
-1.76849,0.854492
-1.78223,0.856018
-1.79138,0.856018
-1.80054,0.854492
-1.81122,0.852966
-1.82037,0.856018
-1.82953,0.856018
-1.83716,0.860596
-1.84479,0.856018
-1.85242,0.85144
-1.86005,0.856018
-1.87378,0.852966
-1.87836,0.860596
-1.88904,0.854492
-1.89514,0.852966
-1.90582,0.854492
-1.91345,0.856018
-1.91956,0.857544
-1.93176,0.856018
-1.93634,0.849915
-1.94702,0.856018
-1.9516,0.856018
-1.95618,0.857544
-1.96991,0.856018
-1.97296,0.856018
-1.98212,0.857544
-1.98975,0.857544
-1.99738,0.857544
-2.00653,0.856018
-2.01416,0.85144
-2.02179,0.854492
-2.02942,0.857544
-2.03552,0.862122
-2.04468,0.856018
-2.05383,0.854492
-2.05841,0.856018
-2.06604,0.856018
-2.06909,0.862122
-2.07825,0.856018
-2.08588,0.854492
-2.09503,0.856018
-2.10114,0.860596
-2.11029,0.860596
-2.11487,0.862122
-2.12708,0.857544
-2.13318,0.862122
-2.13776,0.860596
-2.14844,0.860596
-2.15759,0.857544
-2.1637,0.857544
-2.17285,0.862122
-2.1759,0.863647
-2.18811,0.865173
-2.19421,0.860596
-2.20184,0.860596
-2.20795,0.862122
-2.2171,0.862122
-2.22473,0.865173
-2.23389,0.857544
-2.23846,0.863647
-2.24762,0.863647
-2.25525,0.862122
-2.25983,0.863647
-2.26746,0.863647
-2.27814,0.860596
-2.28729,0.865173
-2.2934,0.866699
-2.29797,0.865173
-2.30713,0.862122
-2.31628,0.862122
-2.32391,0.865173
-2.33154,0.863647
-2.34222,0.868225
-2.34985,0.866699
-2.35748,0.865173
-2.36664,0.866699
-2.37579,0.868225
-2.38647,0.868225
-2.38953,0.868225
-2.40479,0.865173
-2.41089,0.868225
-2.42004,0.868225
-2.42767,0.869751
-2.44293,0.865173
-2.45056,0.865173
-2.45819,0.869751
-2.46887,0.868225
-2.47498,0.869751
-2.4826,0.869751
-2.48718,0.865173
-2.49023,0.868225
-2.49023,0.871277
-2.49176,0.872803
-2.48718,0.869751
-2.4765,0.868225
-2.46429,0.869751
-2.45056,0.871277
-2.42615,0.872803
-2.40479,0.869751
-2.37579,0.869751
-2.34375,0.871277
-2.31171,0.872803
-2.26898,0.875854
-2.23236,0.874329
-2.19269,0.869751
-2.15454,0.871277
-2.11182,0.874329
-2.07062,0.875854
-2.02637,0.871277
-1.98517,0.872803
-1.94244,0.872803
-1.90277,0.874329
-1.8631,0.87738
-1.81885,0.874329
-1.78223,0.874329
-1.74408,0.87738
-1.70593,0.87738
-1.66626,0.87738
-1.63574,0.875854
-1.60217,0.875854
-1.57166,0.874329
-1.54266,0.875854
-1.5152,0.880432
-1.48926,0.878906
-1.46637,0.87738
-1.44043,0.87738
-1.42212,0.878906
-1.40533,0.878906
-1.38855,0.87738
-1.37177,0.87738
-1.36108,0.875854
-1.34888,0.878906
-1.33362,0.878906
-1.32446,0.87738
-1.31531,0.875854
-1.31073,0.881958
-1.30157,0.881958
-1.29547,0.881958
-1.29089,0.883484
-1.28937,0.87738
-1.28632,0.880432
-1.28326,0.881958
-1.28174,0.883484
-1.27869,0.881958
-1.27563,0.881958
-1.28021,0.883484
-1.27869,0.88501
-1.28021,0.886536
-1.28021,0.883484
-1.28174,0.883484
-1.28479,0.88501
-1.28632,0.883484
-1.28784,0.889587
-1.29547,0.88501
-1.29547,0.881958
-1.30615,0.883484
-1.31226,0.886536
-1.31836,0.891113
-1.32446,0.883484
-1.33209,0.88501
-1.33972,0.889587
-1.3443,0.891113
-1.35498,0.886536
-1.36261,0.891113
-1.36871,0.889587
-1.37787,0.889587
-1.37939,0.891113
-1.38855,0.892639
-1.39618,0.889587
-1.40076,0.886536
-1.40533,0.891113
-1.41144,0.892639
-1.41754,0.891113
-1.42212,0.892639
-1.43127,0.889587
-1.43127,0.886536
-1.43433,0.892639
-1.4389,0.892639
-1.44043,0.892639
-1.44196,0.891113
-1.44348,0.892639
-1.44348,0.895691
-1.44501,0.895691
-1.44653,0.891113
-1.44653,0.889587
-1.44958,0.891113
-1.44653,0.892639
-1.44806,0.898743
-1.44653,0.892639
-1.44653,0.892639
-1.44501,0.894165
-1.44348,0.892639
-1.44501,0.897217
-1.44501,0.900269
-1.44348,0.891113
-1.44348,0.897217
-1.44348,0.898743
-1.44501,0.898743
-1.44653,0.894165
-1.44501,0.894165
-1.44653,0.898743
-1.45111,0.897217
-1.45111,0.901794
-1.45721,0.898743
-1.46179,0.895691
-1.46332,0.901794
-1.46637,0.898743
-1.47095,0.900269
-1.47705,0.898743
-1.48468,0.895691
-1.48926,0.900269
-1.49536,0.897217
-1.49994,0.900269
-1.50909,0.900269
-1.5152,0.898743
-1.5213,0.900269
-1.53046,0.900269
-1.53809,0.904846
-1.54266,0.900269
-1.55487,0.900269
-1.5625,0.900269
-1.56708,0.900269
-1.57928,0.904846
-1.59149,0.900269
-1.60217,0.897217
-1.6098,0.900269
-1.62048,0.901794
-1.63116,0.906372
-1.63879,0.90332
-1.65405,0.900269
-1.66168,0.90332
-1.67084,0.90332
-1.68152,0.906372
-1.69373,0.901794
-1.69983,0.900269
-1.71661,0.904846
-1.72272,0.904846
-1.73645,0.907898
-1.74713,0.90332
-1.75781,0.906372
-1.76849,0.906372
-1.7807,0.904846
-1.78986,0.907898
-1.79901,0.906372
-1.81274,0.901794
-1.82037,0.906372
-1.83105,0.906372
-1.84174,0.907898
-1.85089,0.906372
-1.86005,0.90332
-1.87073,0.904846
-1.87988,0.90332
-1.88904,0.909424
-1.90125,0.904846
-1.91193,0.904846
-1.91956,0.906372
-1.93329,0.907898
-1.94092,0.909424
-1.94702,0.907898
-1.95618,0.904846
-1.96533,0.906372
-1.97296,0.907898
-1.98364,0.909424
-1.98975,0.91095
-1.99738,0.909424
-2.005,0.907898
-2.01263,0.907898
-2.02179,0.909424
-2.03247,0.909424
-2.03705,0.906372
-2.04468,0.91095
-2.05383,0.907898
-2.06146,0.91095
-2.06909,0.907898
-2.07825,0.909424
-2.08588,0.909424
-2.09351,0.909424
-2.09961,0.91095
-2.10876,0.912476
-2.11639,0.906372
-2.12402,0.907898
-2.13318,0.909424
-2.13928,0.912476
-2.14691,0.91095
-2.15607,0.907898
-2.16522,0.91095
-2.17285,0.914001
-2.18048,0.914001
-2.19116,0.914001
-2.19727,0.909424
-2.20337,0.912476
-2.211,0.91095
-2.21863,0.91095
-2.22931,0.912476
-2.23541,0.909424
-2.24762,0.91095
-2.2522,0.912476
-2.26135,0.914001
-2.26898,0.912476
-2.27966,0.909424
-2.28729,0.912476
-2.29492,0.91095
-2.30408,0.912476
-2.31171,0.914001
-2.32239,0.91095
-2.33002,0.915527
-2.3407,0.91095
-2.35138,0.914001
-2.35901,0.912476
-2.36511,0.912476
-2.37732,0.91095
-2.38495,0.914001
-2.39258,0.912476
-2.39868,0.91095
-2.41241,0.909424
-2.41852,0.912476
-2.43073,0.914001
-2.44293,0.915527
-2.45361,0.912476
-2.46124,0.91095
-2.47345,0.915527
-2.4826,0.912476
-2.49329,0.915527
-2.50397,0.914001
-2.5177,0.91095
-2.52533,0.915527
-2.53296,0.912476
-2.54364,0.915527
-2.54669,0.918579
-2.54822,0.909424
-2.54974,0.912476
-2.54822,0.915527
-2.54211,0.912476
-2.53448,0.914001
-2.52075,0.914001
-2.50549,0.912476
-2.4826,0.914001
-2.45361,0.915527
-2.42462,0.914001
-2.38953,0.912476
-2.35291,0.912476
-2.31934,0.915527
-2.27509,0.918579
-2.23083,0.915527
-2.18964,0.912476
-2.14539,0.912476
-2.09961,0.915527
-2.05688,0.915527
-2.00958,0.912476
-1.96381,0.912476
-1.92108,0.912476
-1.87378,0.915527
-1.82953,0.915527
-1.78833,0.914001
-1.74561,0.914001
-1.70288,0.918579
-1.66321,0.914001
-1.62659,0.920105
-1.58997,0.912476
-1.55945,0.912476
-1.52435,0.915527
-1.48926,0.914001
-1.46179,0.918579
-1.42975,0.912476
-1.40839,0.914001
-1.38397,0.915527
-1.36414,0.914001
-1.34277,0.915527
-1.32446,0.914001
-1.30615,0.909424
-1.28784,0.914001
-1.27106,0.914001
-1.25732,0.918579
-1.24817,0.914001
-1.23901,0.912476
-1.22681,0.915527
-1.21613,0.914001
-1.2085,0.918579
-1.19934,0.914001
-1.19019,0.912476
-1.18713,0.914001
-1.1795,0.914001
-1.1734,0.918579
-1.17188,0.915527
-1.16577,0.912476
-1.15814,0.915527
-1.15814,0.915527
-1.15662,0.915527
-1.15051,0.914001
-1.15051,0.912476
-1.14594,0.915527
-1.14594,0.915527
-1.14441,0.915527
-1.14288,0.915527
-1.14288,0.912476
-1.14594,0.914001
-1.14441,0.912476
-1.14899,0.915527
-1.15051,0.914001
-1.15814,0.912476
-1.16272,0.914001
-1.1673,0.915527
-1.1734,0.915527
-1.17798,0.912476
-1.18256,0.912476
-1.18408,0.914001
-1.18713,0.914001
-1.19629,0.915527
-1.19934,0.909424
-1.20544,0.909424
-1.21002,0.912476
-1.21613,0.914001
-1.2207,0.915527
-1.22528,0.91095
-1.23138,0.909424
-1.23749,0.914001
-1.24054,0.912476
-1.24359,0.914001
-1.25122,0.914001
-1.25275,0.91095
-1.25732,0.912476
-1.25885,0.91095
-1.2619,0.915527
-1.26648,0.91095
-1.26801,0.91095
-1.27106,0.912476
-1.27106,0.91095
-1.27106,0.914001
-1.27411,0.912476
-1.27563,0.91095
-1.27563,0.912476
-1.27716,0.912476
-1.27716,0.912476
-1.27869,0.912476
-1.28021,0.909424
-1.28174,0.91095
-1.28326,0.914001
-1.28479,0.915527
-1.28479,0.91095
-1.28632,0.909424
-1.29089,0.91095
-1.29089,0.909424
-1.29395,0.912476
-1.29242,0.91095
-1.30005,0.909424
-1.3031,0.914001
-1.30463,0.914001
-1.3092,0.91095
-1.31226,0.909424
-1.31989,0.909424
-1.32294,0.912476
-1.33057,0.91095
-1.33057,0.912476
-1.33667,0.909424
-1.33972,0.907898
-1.34583,0.91095
-1.34888,0.91095
-1.35651,0.91095
-1.36414,0.907898
-1.36871,0.909424
-1.37787,0.91095
-1.38397,0.907898
-1.39465,0.914001
-1.39923,0.909424
-1.41296,0.909424
-1.41907,0.91095
-1.42975,0.909424
-1.4389,0.912476
-1.44806,0.907898
-1.45874,0.906372
-1.46942,0.909424
-1.47705,0.909424
-1.49078,0.907898
-1.49689,0.907898
-1.51215,0.906372
-1.51672,0.907898
-1.52588,0.907898
-1.54114,0.914001
-1.55182,0.907898
-1.56097,0.906372
-1.57013,0.909424
-1.57928,0.907898
-1.58997,0.909424
-1.60217,0.906372
-1.61438,0.904846
-1.62354,0.906372
-1.63422,0.906372
-1.64337,0.907898
-1.65253,0.904846
-1.66626,0.904846
-1.67847,0.909424
-1.6861,0.90332
-1.6922,0.91095
-1.70135,0.904846
-1.71356,0.904846
-1.72424,0.907898
-1.7334,0.909424
-1.74561,0.907898
-1.75323,0.90332
-1.76239,0.90332
-1.77155,0.906372
-1.7807,0.904846
-1.78986,0.904846
-1.79901,0.901794
-1.81122,0.90332
-1.81732,0.906372
-1.82953,0.901794
-1.83868,0.906372
-1.84631,0.904846
-1.85699,0.901794
-1.86768,0.904846
-1.87531,0.90332
-1.88141,0.906372
-1.89209,0.90332
-1.90125,0.901794
-1.9104,0.904846
-1.91803,0.906372
-1.92413,0.90332
-1.93634,0.898743
-1.94092,0.901794
-1.94702,0.90332
-1.9577,0.90332
-1.96533,0.907898
-1.97449,0.901794
-1.98212,0.901794
-1.9928,0.90332
-2.00043,0.90332
-2.00958,0.90332
-2.02179,0.898743
-2.02637,0.901794
-2.03552,0.901794
-2.04773,0.904846
-2.05383,0.904846
-2.06146,0.898743
-2.07214,0.900269
-2.07977,0.901794
-2.09351,0.90332
-2.10114,0.90332
-2.11029,0.901794
-2.11639,0.898743
-2.12708,0.90332
-2.13318,0.901794
-2.14233,0.901794
-2.15454,0.901794
-2.1637,0.900269
-2.17285,0.901794
-2.18353,0.900269
-2.18964,0.901794
-2.19879,0.898743
-2.20947,0.900269
-2.2171,0.898743
-2.22473,0.900269
-2.23083,0.900269
-2.24152,0.897217
-2.25067,0.898743
-2.25677,0.898743
-2.26593,0.898743
-2.27356,0.904846
-2.28577,0.897217
-2.29492,0.898743
-2.30255,0.900269
-2.30713,0.895691
-2.31934,0.898743
-2.32849,0.897217
-2.33765,0.897217
-2.34833,0.898743
-2.35901,0.900269
-2.36664,0.898743
-2.37427,0.895691
-2.38342,0.898743
-2.39258,0.898743
-2.39868,0.897217
-2.40631,0.897217
-2.40784,0.897217
-2.40784,0.895691
-2.40631,0.898743
-2.40173,0.895691
-2.39105,0.897217
-2.37885,0.894165
-2.36206,0.894165
-2.34375,0.897217
-2.31781,0.895691
-2.29187,0.895691
-2.26135,0.891113
-2.22778,0.895691
-2.19269,0.898743
-2.15607,0.895691
-2.11334,0.895691
-2.07825,0.894165
-2.03552,0.895691
-1.98975,0.894165
-1.95007,0.895691
-1.90582,0.895691
-1.8631,0.891113
-1.8219,0.895691
-1.7807,0.894165
-1.7334,0.894165
-1.6922,0.895691
-1.65558,0.894165
-1.61896,0.894165
-1.57928,0.895691
-1.54724,0.894165
-1.51367,0.894165
-1.4801,0.892639
-1.45569,0.891113
-1.42212,0.894165
-1.39771,0.894165
-1.37177,0.892639
-1.34583,0.886536
-1.32599,0.892639
-1.30615,0.892639
-1.29089,0.889587
-1.26953,0.895691
-1.2558,0.889587
-1.24512,0.891113
-1.22833,0.894165
-1.21918,0.891113
-1.2085,0.891113
-1.19934,0.886536
-1.19324,0.889587
-1.18561,0.891113
-1.17798,0.891113
-1.1734,0.891113
-1.1673,0.886536
-1.16119,0.889587
-1.15967,0.892639
-1.15509,0.891113
-1.15204,0.894165
-1.14899,0.886536
-1.14441,0.891113
-1.14288,0.891113
-1.14136,0.889587
-1.13983,0.891113
-1.14441,0.889587
-1.13983,0.889587
-1.13678,0.886536
-1.13678,0.894165
-1.14136,0.891113
-1.13983,0.891113
-1.13983,0.886536
-1.14746,0.889587
-1.14594,0.889587
-1.15356,0.891113
-1.15662,0.889587
-1.16119,0.88501
-1.16577,0.891113
-1.1734,0.889587
-1.17493,0.892639
-1.18256,0.889587
-1.18866,0.88501
-1.19324,0.889587
-1.19934,0.886536
-1.20544,0.889587
-1.21155,0.88501
-1.21765,0.881958
-1.2207,0.889587
-1.22681,0.889587
-1.23444,0.889587
-1.24207,0.891113
-1.24359,0.88501
-1.24664,0.886536
-1.25122,0.886536
-1.25122,0.886536
-1.25732,0.889587
-1.2619,0.886536
-1.26648,0.886536
-1.26343,0.88501
-1.26953,0.891113
-1.26953,0.889587
-1.27411,0.883484
-1.27563,0.886536
-1.27563,0.886536
-1.27869,0.891113
-1.27563,0.88501
-1.27716,0.88501
-1.27869,0.886536
-1.27563,0.88501
-1.27869,0.889587
-1.27869,0.886536
-1.27716,0.881958
-1.28174,0.889587
-1.28174,0.886536
-1.28479,0.88501
-1.28632,0.88501
-1.28784,0.883484
-1.29089,0.886536
-1.29547,0.88501
-1.30005,0.889587
-1.30157,0.889587
-1.30463,0.881958
-1.3092,0.886536
-1.31073,0.88501
-1.31836,0.886536
-1.32446,0.889587
-1.33209,0.88501
-1.33514,0.88501
-1.3443,0.88501
-1.34888,0.889587
-1.35345,0.889587
-1.36261,0.878906
-1.37024,0.886536
-1.37634,0.883484
-1.38397,0.88501
-1.39465,0.88501
-1.40533,0.886536
-1.40991,0.886536
-1.41907,0.883484
-1.42975,0.88501
-1.44043,0.891113
-1.44806,0.883484
-1.46179,0.88501
-1.47095,0.88501
-1.47705,0.886536
-1.49384,0.889587
-1.50146,0.88501
-1.5152,0.886536
-1.5274,0.883484
-1.53351,0.88501
-1.55029,0.889587
-1.5625,0.883484
-1.57013,0.886536
-1.57928,0.886536
-1.58997,0.88501
-1.59912,0.886536
-1.61438,0.88501
-1.62506,0.88501
-1.63269,0.883484
-1.64337,0.889587
-1.65405,0.886536
-1.66168,0.883484
-1.66931,0.886536
-1.67999,0.886536
-1.69067,0.886536
-1.70135,0.891113
-1.71509,0.883484
-1.72119,0.88501
-1.73035,0.88501
-1.73798,0.889587
-1.74561,0.891113
-1.75323,0.881958
-1.76544,0.889587
-1.7746,0.88501
-1.78375,0.891113
-1.78986,0.891113
-1.79749,0.88501
-1.80817,0.889587
-1.81427,0.886536
-1.82037,0.886536
-1.83105,0.886536
-1.84174,0.883484
-1.84937,0.886536
-1.85394,0.883484
-1.86462,0.886536
-1.87225,0.891113
-1.88141,0.881958
-1.88599,0.889587
-1.89362,0.886536
-1.9043,0.889587
-1.9104,0.892639
-1.91803,0.886536
-1.92566,0.886536
-1.93481,0.886536
-1.94244,0.886536
-1.95007,0.891113
-1.9577,0.88501
-1.96381,0.886536
-1.97449,0.88501
-1.97906,0.891113
-1.98975,0.895691
-1.99738,0.886536
-2.005,0.886536
-2.01111,0.886536
-2.02026,0.889587
-2.03094,0.891113
-2.04163,0.88501
-2.0462,0.889587
-2.05841,0.886536
-2.06604,0.889587
-2.0752,0.892639
-2.08282,0.880432
-2.09656,0.889587
-2.10266,0.889587
-2.11182,0.891113
-2.12555,0.891113
-2.13623,0.88501
-2.14691,0.891113
-2.15607,0.891113
-2.16675,0.889587
-2.17896,0.891113
-2.19116,0.889587
-2.20032,0.886536
-2.21405,0.891113
-2.22168,0.891113
-2.23236,0.889587
-2.24609,0.889587
-2.25525,0.892639
-2.26593,0.889587
-2.27356,0.891113
-2.28424,0.891113
-2.29187,0.883484
-2.29492,0.892639
-2.30255,0.891113
-2.3056,0.891113
-2.3056,0.892639
-2.30255,0.886536
-2.29797,0.891113
-2.28577,0.891113
-2.27203,0.891113
-2.25525,0.895691
-2.23236,0.886536
-2.20947,0.886536
-2.18658,0.889587
-2.15454,0.892639
-2.12555,0.889587
-2.09503,0.889587
-2.05841,0.891113
-2.02179,0.891113
-1.98822,0.891113
-1.94855,0.892639
-1.91193,0.891113
-1.87683,0.889587
-1.84174,0.894165
-1.80359,0.889587
-1.77155,0.891113
-1.7334,0.886536
-1.70288,0.891113
-1.66626,0.889587
-1.63574,0.892639
-1.60675,0.891113
-1.57776,0.88501
-1.55182,0.891113
-1.52893,0.889587
-1.50299,0.891113
-1.48163,0.889587
-1.46332,0.886536
-1.44348,0.892639
-1.42822,0.891113
-1.41144,0.891113
-1.39771,0.891113
-1.38702,0.892639
-1.37787,0.892639
-1.36566,0.889587
-1.35803,0.892639
-1.35193,0.889587
-1.34888,0.889587
-1.3443,0.892639
-1.33972,0.891113
-1.33514,0.892639
-1.33209,0.891113
-1.32904,0.891113
-1.32904,0.891113
-1.33057,0.891113
-1.33057,0.88501
-1.32904,0.889587
-1.33209,0.886536
-1.33057,0.889587
-1.33209,0.892639
-1.33667,0.894165
-1.3382,0.891113
-1.34125,0.891113
-1.34277,0.891113
-1.34583,0.892639
-1.3504,0.889587
-1.35345,0.886536
-1.36414,0.889587
-1.36566,0.891113
-1.37329,0.886536
-1.38092,0.894165
-1.38702,0.886536
-1.39618,0.889587
-1.40533,0.892639
-1.40991,0.892639
-1.41907,0.891113
-1.42822,0.889587
-1.43585,0.889587
-1.44653,0.889587
-1.45721,0.892639
-1.46179,0.895691
-1.46942,0.889587
-1.47705,0.891113
-1.48315,0.892639
-1.48926,0.892639
-1.49231,0.892639
-1.50146,0.889587
-1.50604,0.891113
-1.51215,0.892639
-1.51672,0.892639
-1.5213,0.891113
-1.52283,0.88501
-1.52588,0.891113
-1.53046,0.892639
-1.53198,0.889587
-1.53198,0.892639
-1.53351,0.886536
-1.53656,0.889587
-1.53809,0.891113
-1.53503,0.891113
-1.53809,0.891113
-1.53961,0.88501
-1.53961,0.88501
-1.54114,0.892639
-1.54266,0.889587
-1.54419,0.889587
-1.54266,0.886536
-1.54572,0.88501
-1.55029,0.889587
-1.55334,0.891113
-1.55182,0.891113
-1.55487,0.883484
-1.5564,0.889587
-1.55945,0.886536
-1.56555,0.891113
-1.56555,0.891113
-1.57166,0.88501
-1.57776,0.891113
-1.58386,0.889587
-1.58844,0.891113
-1.59302,0.889587
-1.59912,0.880432
-1.60828,0.88501
-1.61438,0.891113
-1.62201,0.892639
-1.62811,0.886536
-1.63879,0.883484
-1.64795,0.886536
-1.65405,0.891113
-1.66168,0.886536
-1.66931,0.891113
-1.68152,0.883484
-1.68915,0.886536
-1.69983,0.886536
-1.70135,0.886536
-1.71356,0.886536
-1.72424,0.883484
-1.7334,0.889587
-1.74561,0.891113
-1.75323,0.891113
-1.76544,0.891113
-1.77612,0.88501
-1.7868,0.88501
-1.79749,0.889587
-1.80511,0.891113
-1.8158,0.892639
-1.82648,0.881958
-1.83563,0.889587
-1.84631,0.886536
-1.85547,0.886536
-1.8631,0.889587
-1.87836,0.883484
-1.88446,0.886536
-1.89819,0.886536
-1.90277,0.886536
-1.91345,0.889587
-1.92108,0.881958
-1.93329,0.88501
-1.9455,0.88501
-1.95313,0.889587
-1.9577,0.889587
-1.97296,0.883484
-1.98059,0.881958
-1.98975,0.886536
-2.00043,0.88501
-2.00806,0.889587
-2.01874,0.881958
-2.02942,0.88501
-2.03857,0.88501
-2.04926,0.886536
-2.05383,0.88501
-2.06757,0.883484
-2.07367,0.886536
-2.0813,0.883484
-2.09198,0.889587
-2.10114,0.889587
-2.10724,0.883484
-2.11334,0.88501
-2.12402,0.886536
-2.13318,0.88501
-2.13776,0.886536
-2.14539,0.880432
-2.15759,0.886536
-2.16217,0.88501
-2.1698,0.88501
-2.17743,0.886536
-2.18658,0.881958
-2.19574,0.883484
-2.20184,0.88501
-2.21405,0.88501
-2.21863,0.886536
-2.22626,0.881958
-2.23541,0.881958
-2.24304,0.88501
-2.2522,0.88501
-2.2583,0.88501
-2.26288,0.88501
-2.27356,0.88501
-2.27814,0.88501
-2.28729,0.883484
-2.28882,0.88501
-2.29492,0.880432
-2.29492,0.883484
-2.29645,0.881958
-2.29492,0.883484
-2.28882,0.886536
-2.28271,0.883484
-2.27203,0.881958
-2.2583,0.883484
-2.24152,0.883484
-2.22168,0.886536
-2.19727,0.881958
-2.1759,0.880432
-2.14539,0.883484
-2.11639,0.883484
-2.08588,0.881958
-2.05231,0.880432
-2.01874,0.881958
-1.98822,0.880432
-1.95007,0.881958
-1.91803,0.881958
-1.87988,0.87738
-1.84479,0.883484
-1.80969,0.881958
-1.77917,0.883484
-1.74408,0.883484
-1.71051,0.880432
-1.67999,0.881958
-1.651,0.886536
-1.62201,0.88501
-1.58997,0.883484
-1.5625,0.881958
-1.54114,0.880432
-1.51672,0.886536
-1.49994,0.883484
-1.47858,0.881958
-1.46179,0.880432
-1.44501,0.880432
-1.42822,0.881958
-1.41449,0.880432
-1.40381,0.883484
-1.39465,0.883484
-1.38092,0.880432
-1.37329,0.881958
-1.36261,0.881958
-1.35498,0.88501
-1.35345,0.881958
-1.3504,0.881958
-1.34277,0.88501
-1.33972,0.883484
-1.33514,0.878906
-1.33667,0.883484
-1.33362,0.878906
-1.33362,0.881958
-1.33209,0.881958
-1.33057,0.881958
-1.32904,0.881958
-1.32904,0.881958
-1.32904,0.883484
-1.33057,0.878906
-1.33057,0.881958
-1.33362,0.881958
-1.33514,0.880432
-1.33514,0.883484
-1.34277,0.880432
-1.34583,0.883484
-1.34735,0.880432
-1.3504,0.87738
-1.35345,0.880432
-1.36261,0.883484
-1.36719,0.883484
-1.37482,0.883484
-1.38092,0.880432
-1.38702,0.878906
-1.39618,0.880432
-1.39771,0.87738
-1.40839,0.878906
-1.41296,0.878906
-1.42212,0.880432
-1.4267,0.880432
-1.4328,0.880432
-1.44043,0.883484
-1.44806,0.881958
-1.45111,0.878906
-1.45874,0.880432
-1.46332,0.880432
-1.47247,0.880432
-1.47247,0.878906
-1.48163,0.883484
-1.48163,0.880432
-1.48926,0.880432
-1.49078,0.880432
-1.49536,0.881958
-1.49689,0.878906
-1.49841,0.883484
-1.50146,0.883484
-1.50299,0.880432
-1.50757,0.880432
-1.50757,0.878906
-1.50909,0.880432
-1.50757,0.880432
-1.51062,0.881958
-1.51062,0.880432
-1.51367,0.878906
-1.51367,0.878906
-1.51672,0.883484
-1.51978,0.878906
-1.52283,0.87738
-1.52588,0.881958
-1.52588,0.881958
-1.53046,0.881958
-1.53198,0.878906
-1.53351,0.878906
-1.53961,0.880432
-1.54266,0.878906
-1.54572,0.880432
-1.55334,0.881958
-1.55945,0.87738
-1.5625,0.880432
-1.5686,0.881958
-1.57166,0.881958
-1.57623,0.87738
-1.58539,0.87738
-1.59302,0.878906
-1.60065,0.878906
-1.60522,0.880432
-1.6098,0.878906
-1.62201,0.878906
-1.62659,0.880432
-1.63727,0.881958
-1.64642,0.881958
-1.65253,0.881958
-1.66168,0.87738
-1.66473,0.878906
-1.67694,0.880432
-1.68457,0.880432
-1.69525,0.878906
-1.70135,0.878906
-1.71509,0.881958
-1.72119,0.880432
-1.7334,0.880432
-1.74408,0.878906
-1.75018,0.880432
-1.76239,0.87738
-1.77307,0.880432
-1.77917,0.881958
-1.78986,0.881958
-1.79901,0.878906
-1.81122,0.880432
-1.81885,0.880432
-1.828,0.87738
-1.84021,0.880432
-1.84937,0.880432
-1.85547,0.878906
-1.86768,0.880432
-1.87836,0.881958
-1.88904,0.878906
-1.89514,0.87738
-1.90277,0.87738
-1.9104,0.878906
-1.92108,0.880432
-1.93024,0.878906
-1.93939,0.87738
-1.9455,0.878906
-1.95313,0.878906
-1.96381,0.880432
-1.97296,0.880432
-1.98212,0.87738
-1.98975,0.878906
-1.9989,0.881958
-2.00806,0.881958
-2.01721,0.875854
-2.02484,0.880432
-2.03094,0.880432
-2.04163,0.881958
-2.04926,0.880432
-2.05383,0.87738
-2.06604,0.87738
-2.07062,0.883484
-2.07825,0.880432
-2.08893,0.881958
-2.09656,0.878906
-2.10419,0.875854
-2.11182,0.878906
-2.11945,0.878906
-2.12555,0.878906
-2.13776,0.880432
-2.14233,0.875854
-2.15302,0.880432
-2.15912,0.878906
-2.16675,0.87738
-2.17438,0.880432
-2.18353,0.878906
-2.19116,0.87738
-2.20032,0.880432
-2.20947,0.881958
-2.2171,0.875854
-2.22473,0.878906
-2.23083,0.87738
-2.23846,0.880432
-2.24915,0.878906
-2.2583,0.878906
-2.26746,0.878906
-2.27509,0.880432
-2.28577,0.878906
-2.29492,0.880432
-2.30255,0.878906
-2.31171,0.87738
-2.32239,0.880432
-2.33002,0.878906
-2.33765,0.878906
-2.34833,0.880432
-2.35748,0.878906
-2.36511,0.87738
-2.36816,0.880432
-2.37732,0.878906
-2.38037,0.880432
-2.38037,0.875854
-2.37732,0.878906
-2.37427,0.881958
-2.36359,0.880432
-2.35443,0.878906
-2.34222,0.878906
-2.32544,0.880432
-2.30255,0.881958
-2.27966,0.878906
-2.2522,0.881958
-2.22473,0.87738
-2.19269,0.881958
-2.16064,0.880432
-2.12402,0.883484
-2.09351,0.87738
-2.05383,0.87738
-2.01874,0.878906
-1.98364,0.880432
-1.94092,0.878906
-1.9043,0.878906
-1.87073,0.87738
-1.83258,0.878906
-1.79749,0.878906
-1.76392,0.878906
-1.73187,0.87738
-1.69983,0.875854
-1.66931,0.875854
-1.63727,0.87738
-1.6098,0.875854
-1.58539,0.87738
-1.5625,0.875854
-1.53809,0.878906
-1.5152,0.878906
-1.49841,0.87738
-1.4801,0.878906
-1.46484,0.878906
-1.44958,0.87738
-1.43738,0.87738
-1.4267,0.880432
-1.41754,0.878906
-1.40839,0.87738
-1.39923,0.875854
-1.39008,0.87738
-1.38702,0.880432
-1.38092,0.875854
-1.37634,0.874329
-1.36871,0.875854
-1.37024,0.878906
-1.36414,0.87738
-1.36108,0.87738
-1.35651,0.875854
-1.35498,0.875854
-1.35345,0.880432
-1.35193,0.878906
-1.35193,0.87738
-1.34888,0.875854
-1.34888,0.878906
-1.3504,0.87738
-1.35193,0.878906
-1.35651,0.87738
-1.35498,0.875854
-1.36108,0.875854
-1.36414,0.878906
-1.36566,0.880432
-1.37024,0.87738
-1.37177,0.87738
-1.37634,0.875854
-1.38092,0.878906
-1.3855,0.875854
-1.39313,0.87738
-1.39465,0.87738
-1.40381,0.875854
-1.40839,0.875854
-1.41602,0.87738
-1.41754,0.87738
-1.42822,0.878906
-1.4328,0.875854
-1.4389,0.878906
-1.44348,0.87738
-1.45569,0.87738
-1.45721,0.874329
-1.46179,0.880432
-1.46637,0.874329
-1.47095,0.878906
-1.47552,0.87738
-1.48163,0.874329
-1.48773,0.875854
-1.49078,0.87738
-1.49536,0.875854
-1.49994,0.874329
-1.50146,0.875854
-1.50604,0.874329
-1.50604,0.878906
-1.50909,0.87738
-1.50909,0.872803
-1.51215,0.872803
-1.51367,0.872803
-1.51215,0.875854
-1.5152,0.87738
-1.51672,0.874329
-1.51978,0.874329
-1.51978,0.87738
-1.52283,0.87738
-1.52283,0.878906
-1.52435,0.874329
-1.53046,0.874329
-1.53046,0.875854
-1.53503,0.87738
-1.53351,0.875854
-1.53809,0.874329
-1.53961,0.874329
-1.54572,0.875854
-1.54724,0.875854
-1.55334,0.87738
-1.55487,0.87738
-1.5625,0.874329
-1.5686,0.875854
-1.57166,0.874329
-1.57776,0.87738
-1.58691,0.875854
-1.59302,0.87738
-1.59607,0.875854
-1.60522,0.875854
-1.61133,0.878906
-1.61896,0.875854
-1.62811,0.874329
-1.63879,0.87738
-1.64337,0.87738
-1.65558,0.87738
-1.66168,0.87738
-1.66779,0.872803
-1.67999,0.874329
-1.68915,0.874329
-1.69678,0.875854
-1.70593,0.875854
-1.71661,0.874329
-1.72424,0.874329
-1.7334,0.875854
-1.74561,0.875854
-1.75476,0.878906
-1.76544,0.875854
-1.77612,0.874329
-1.7868,0.872803
-1.79596,0.874329
-1.80817,0.875854
-1.81885,0.872803
-1.828,0.875854
-1.84021,0.875854
-1.84479,0.878906
-1.86005,0.878906
-1.87225,0.872803
-1.88141,0.871277
-1.89056,0.87738
-1.9043,0.878906
-1.9104,0.875854
-1.92261,0.872803
-1.93481,0.872803
-1.94092,0.87738
-1.95313,0.87738
-1.96381,0.875854
-1.97144,0.874329
-1.97906,0.874329
-1.9928,0.878906
-1.9989,0.87738
-2.00806,0.87738
-2.02026,0.875854
-2.02637,0.87738
-2.03552,0.874329
-2.0462,0.875854
-2.05688,0.875854
-2.06451,0.874329
-2.07214,0.874329
-2.0813,0.87738
-2.09198,0.874329
-2.10114,0.875854
-2.11029,0.874329
-2.12097,0.875854
-2.13165,0.87738
-2.13776,0.875854
-2.14539,0.875854
-2.15607,0.874329
-2.16522,0.872803
-2.17438,0.878906
-2.18353,0.875854
-2.19116,0.878906
-2.20184,0.872803
-2.20947,0.872803
-2.22015,0.875854
-2.22626,0.875854
-2.23541,0.878906
-2.24915,0.872803
-2.24915,0.875854
-2.25983,0.87738
-2.26593,0.87738
-2.27509,0.87738
-2.28424,0.872803
-2.29187,0.872803
-2.30255,0.874329
-2.30713,0.878906
-2.31934,0.87738
-2.32697,0.87738
-2.33612,0.872803
-2.34833,0.87738
-2.35596,0.87738
-2.36359,0.880432
-2.37885,0.872803
-2.388,0.875854
-2.39563,0.87738
-2.40631,0.87738
-2.41699,0.875854
-2.42615,0.872803
-2.4292,0.875854
-2.43988,0.872803
-2.44141,0.875854
-2.44141,0.875854
-2.44141,0.875854
-2.43683,0.871277
-2.42767,0.878906
-2.42157,0.87738
-2.40784,0.87738
-2.38953,0.87738
-2.36664,0.875854
-2.34375,0.875854
-2.32239,0.87738
-2.28882,0.87738
-2.26135,0.872803
-2.22778,0.87738
-2.19727,0.878906
-2.1637,0.878906
-2.1286,0.87738
-2.09198,0.872803
-2.05994,0.874329
-2.02484,0.878906
-1.98975,0.87738
-1.95923,0.875854
-1.92261,0.875854
-1.89056,0.875854
-1.85852,0.87738
-1.82953,0.87738
-1.80054,0.875854
-1.77612,0.875854
-1.75018,0.874329
-1.72272,0.875854
-1.6983,0.880432
-1.67694,0.875854
-1.65863,0.87738
-1.63727,0.874329
-1.62048,0.875854
-1.60675,0.87738
-1.59149,0.874329
-1.57776,0.875854
-1.5686,0.872803
-1.55945,0.878906
-1.55487,0.87738
-1.54266,0.875854
-1.53809,0.875854
-1.53351,0.872803
-1.5274,0.872803
-1.52588,0.878906
-1.52283,0.874329
-1.51672,0.872803
-1.51978,0.874329
-1.51672,0.87738
-1.51215,0.875854
-1.51672,0.874329
-1.5152,0.874329
-1.51672,0.87738
-1.5152,0.87738
-1.51672,0.875854
-1.52283,0.872803
-1.5213,0.875854
-1.52283,0.874329
-1.5274,0.87738
-1.52588,0.875854
-1.53198,0.875854
-1.53198,0.875854
-1.53809,0.878906
-1.53961,0.874329
-1.54572,0.875854
-1.55334,0.875854
-1.55945,0.874329
-1.5686,0.872803
-1.57166,0.875854
-1.57776,0.87738
-1.58844,0.87738
-1.59454,0.872803
-1.6037,0.875854
-1.60828,0.874329
-1.61896,0.875854
-1.62506,0.874329
-1.63269,0.874329
-1.63879,0.875854
-1.64185,0.878906
-1.64795,0.87738
-1.65558,0.875854
-1.65863,0.874329
-1.66321,0.874329
-1.67236,0.878906
-1.67084,0.875854
-1.67389,0.874329
-1.67999,0.872803
-1.68304,0.872803
-1.6861,0.875854
-1.6861,0.874329
-1.6922,0.875854
-1.6922,0.872803
-1.69067,0.872803
-1.69525,0.872803
-1.69373,0.87738
-1.69983,0.874329
-1.6983,0.872803
-1.69983,0.87738
-1.70135,0.87738
-1.69983,0.874329
-1.70288,0.875854
-1.70288,0.87738
-1.70593,0.874329
-1.71051,0.875854
-1.70593,0.875854
-1.71356,0.874329
-1.71509,0.875854
-1.71967,0.874329
-1.72119,0.874329
-1.72882,0.875854
-1.73035,0.875854
-1.73492,0.872803
-1.73798,0.875854
-1.74713,0.871277
-1.75476,0.87738
-1.75476,0.875854
-1.76239,0.872803
-1.77307,0.874329
-1.77612,0.875854
-1.78223,0.874329
-1.79138,0.869751
-1.79749,0.871277
-1.80664,0.871277
-1.81274,0.875854
-1.82037,0.875854
-1.82343,0.874329
-1.83563,0.872803
-1.84784,0.871277
-1.85547,0.875854
-1.86005,0.874329
-1.87531,0.874329
-1.88293,0.872803
-1.89362,0.875854
-1.90125,0.872803
-1.91345,0.874329
-1.91956,0.871277
-1.93024,0.871277
-1.94092,0.872803
-1.95007,0.874329
-1.95923,0.874329
-1.97144,0.871277
-1.98059,0.874329
-1.9928,0.871277
-2.00043,0.871277
-2.00806,0.872803
-2.01874,0.872803
-2.03094,0.872803
-2.04163,0.872803
-2.04926,0.872803
-2.05841,0.874329
-2.06757,0.871277
-2.07825,0.871277
-2.08588,0.872803
-2.09503,0.875854
-2.10419,0.875854
-2.11334,0.872803
-2.12402,0.869751
-2.13318,0.872803
-2.14233,0.872803
-2.15149,0.874329
-2.16217,0.869751
-2.16827,0.872803
-2.17896,0.872803
-2.18964,0.872803
-2.19727,0.874329
-2.20642,0.872803
-2.21405,0.871277
-2.22321,0.871277
-2.23236,0.871277
-2.23846,0.871277
-2.25067,0.869751
-2.2583,0.869751
-2.2644,0.874329
-2.27356,0.874329
-2.27966,0.874329
-2.28729,0.874329
-2.29492,0.872803
-2.30103,0.871277
-2.3056,0.874329
-2.31018,0.874329
-2.30713,0.869751
-2.30713,0.871277
-2.30255,0.871277
-2.2995,0.869751
-2.28729,0.875854
-2.27509,0.871277
-2.26288,0.869751
-2.24304,0.869751
-2.22626,0.872803
-2.19879,0.871277
-2.17743,0.871277
-2.14844,0.872803
-2.11945,0.869751
-2.08588,0.871277
-2.05994,0.872803
-2.02637,0.868225
-1.98822,0.869751
-1.95618,0.871277
-1.92261,0.871277
-1.88904,0.871277
-1.85242,0.872803
-1.82037,0.868225
-1.78833,0.871277
-1.75629,0.869751
-1.72424,0.871277
-1.69678,0.872803
-1.66626,0.869751
-1.63727,0.869751
-1.61133,0.869751
-1.59149,0.872803
-1.5686,0.874329
-1.54724,0.871277
-1.53198,0.869751
-1.51367,0.871277
-1.49841,0.872803
-1.48163,0.868225
-1.46942,0.868225
-1.45721,0.871277
-1.44348,0.871277
-1.43585,0.871277
-1.42517,0.869751
-1.42059,0.869751
-1.41144,0.869751
-1.40839,0.872803
-1.40076,0.871277
-1.39923,0.869751
-1.39618,0.869751
-1.39465,0.872803
-1.39008,0.871277
-1.39008,0.872803
-1.38397,0.871277
-1.3855,0.869751
-1.3855,0.868225
-1.38702,0.871277
-1.38702,0.871277
-1.38855,0.871277
-1.39313,0.869751
-1.39923,0.868225
-1.40381,0.874329
-1.40228,0.869751
-1.40686,0.868225
-1.41296,0.869751
-1.41754,0.869751
-1.42212,0.869751
-1.43127,0.869751
-1.43585,0.869751
-1.44196,0.869751
-1.44806,0.869751
-1.45721,0.871277
-1.46484,0.872803
-1.474,0.869751
-1.48773,0.868225
-1.49536,0.871277
-1.50146,0.871277
-1.51215,0.872803
-1.51672,0.869751
-1.52588,0.868225
-1.53046,0.871277
-1.53961,0.871277
-1.54572,0.872803
-1.55182,0.869751
-1.55792,0.869751
-1.5625,0.869751
-1.56708,0.871277
-1.57318,0.872803
-1.57471,0.869751
-1.57928,0.868225
-1.58691,0.872803
-1.58997,0.874329
-1.59454,0.874329
-1.59607,0.869751
-1.5976,0.869751
-1.59912,0.874329
-1.59912,0.872803
-1.59912,0.872803
-1.60217,0.869751
-1.60065,0.869751
-1.60828,0.869751
-1.60828,0.874329
-1.6098,0.874329
-1.61133,0.872803
-1.61133,0.871277
-1.61591,0.872803
-1.61591,0.874329
-1.61896,0.874329
-1.62354,0.871277
-1.62659,0.871277
-1.62964,0.871277
-1.62659,0.875854
-1.63116,0.872803
-1.63574,0.874329
-1.64032,0.874329
-1.64948,0.871277
-1.64948,0.875854
-1.6571,0.874329
-1.66016,0.875854
-1.66473,0.875854
-1.67084,0.875854
-1.67847,0.875854
-1.68304,0.87738
-1.68915,0.875854
-1.69678,0.874329
-1.70593,0.875854
-1.71509,0.87738
-1.72272,0.874329
-1.72577,0.875854
-1.73492,0.87738
-1.74561,0.874329
-1.75476,0.878906
-1.75781,0.875854
-1.76849,0.878906
-1.77765,0.872803
-1.78833,0.87738
-1.79901,0.875854
-1.81122,0.880432
-1.82343,0.87738
-1.83105,0.87738
-1.84326,0.878906
-1.85242,0.878906
-1.86768,0.881958
-1.87836,0.878906
-1.88446,0.87738
-1.89972,0.875854
-1.90735,0.880432
-1.91803,0.880432
-1.93176,0.880432
-1.94244,0.878906
-1.95313,0.881958
-1.96686,0.883484
-1.97601,0.881958
-1.98364,0.87738
-1.99738,0.87738
-2.00348,0.881958
-2.01721,0.883484
-2.02637,0.883484
-2.03552,0.883484
-2.04773,0.880432
-2.05841,0.881958
-2.06604,0.881958
-2.07062,0.889587
-2.08282,0.88501
-2.09198,0.880432
-2.10114,0.883484
-2.11029,0.883484
-2.11487,0.883484
-2.12708,0.881958
-2.1347,0.881958
-2.14233,0.883484
-2.15302,0.889587
-2.16064,0.886536
-2.1698,0.883484
-2.18048,0.881958
-2.18964,0.88501
-2.19727,0.88501
-2.2049,0.88501
-2.21405,0.88501
-2.22626,0.886536
-2.23236,0.886536
-2.23999,0.889587
-2.2522,0.886536
-2.25983,0.889587
-2.26593,0.88501
-2.27509,0.889587
-2.28271,0.889587
-2.29187,0.886536
-2.2995,0.88501
-2.30713,0.886536
-2.31781,0.889587
-2.32391,0.891113
-2.33307,0.889587
-2.34528,0.889587
-2.35138,0.889587
-2.36053,0.892639
-2.36816,0.892639
-2.37732,0.892639
-2.38647,0.891113
-2.3941,0.891113
-2.40631,0.892639
-2.41547,0.891113
-2.42157,0.892639
-2.4353,0.889587
-2.44141,0.889587
-2.45056,0.892639
-2.45819,0.892639
-2.4704,0.892639
-2.47498,0.895691
-2.48566,0.892639
-2.49023,0.892639
-2.49634,0.895691
-2.49481,0.894165
-2.49634,0.894165
-2.49329,0.894165
-2.48871,0.892639
-2.47955,0.897217
-2.46735,0.895691
-2.44904,0.894165
-2.43073,0.891113
-2.40936,0.897217
-2.38037,0.894165
-2.34985,0.895691
-2.31781,0.895691
-2.28882,0.894165
-2.2522,0.895691
-2.21405,0.898743
-2.17896,0.894165
-2.14081,0.897217
-2.10724,0.895691
-2.06451,0.894165
-2.02637,0.897217
-1.9928,0.897217
-1.95007,0.895691
-1.91498,0.897217
-1.88293,0.900269
-1.84784,0.901794
-1.81732,0.895691
-1.78223,0.897217
-1.75323,0.895691
-1.72424,0.897217
-1.6983,0.898743
-1.67084,0.897217
-1.64948,0.895691
-1.62659,0.895691
-1.60675,0.898743
-1.58691,0.900269
-1.5686,0.900269
-1.55182,0.898743
-1.53961,0.897217
-1.5274,0.898743
-1.51215,0.901794
-1.50146,0.90332
-1.49078,0.900269
-1.4801,0.900269
-1.47247,0.900269
-1.46332,0.90332
-1.46027,0.900269
-1.45264,0.900269
-1.44958,0.897217
-1.44348,0.901794
-1.44043,0.901794
-1.43738,0.901794
-1.43585,0.900269
-1.43433,0.900269
-1.43433,0.90332
-1.42975,0.901794
-1.43127,0.90332
-1.42975,0.900269
-1.42975,0.897217
-1.42975,0.901794
-1.42822,0.901794
-1.42975,0.90332
-1.43127,0.901794
-1.43433,0.90332
-1.43738,0.900269
-1.4389,0.90332
-1.44196,0.904846
-1.44501,0.904846
-1.45111,0.901794
-1.45264,0.904846
-1.46027,0.906372
-1.46942,0.904846
-1.47552,0.90332
-1.48163,0.901794
-1.49078,0.907898
-1.49384,0.907898
-1.50299,0.90332
-1.50909,0.906372
-1.51367,0.904846
-1.5213,0.90332
-1.52588,0.907898
-1.53503,0.906372
-1.54266,0.90332
-1.54572,0.90332
-1.55182,0.90332
-1.5564,0.906372
-1.56403,0.907898
-1.5686,0.904846
-1.57318,0.90332
-1.57318,0.907898
-1.58386,0.907898
-1.58539,0.904846
-1.58691,0.907898
-1.58997,0.901794
-1.59149,0.904846
-1.59607,0.906372
-1.59607,0.906372
-1.5976,0.906372
-1.60522,0.901794
-1.60828,0.906372
-1.60522,0.907898
-1.6098,0.909424
-1.61591,0.906372
-1.61743,0.904846
-1.62048,0.909424
-1.62048,0.907898
-1.62354,0.904846
-1.62354,0.904846
-1.62964,0.904846
-1.62811,0.906372
-1.63269,0.907898
-1.63574,0.907898
-1.63879,0.907898
-1.63879,0.907898
-1.64642,0.909424
-1.651,0.909424
-1.65405,0.909424
-1.6571,0.906372
-1.66321,0.904846
-1.66779,0.906372
-1.67389,0.91095
-1.68152,0.904846
-1.68762,0.906372
-1.6922,0.90332
-1.6983,0.909424
-1.70288,0.909424
-1.71509,0.907898
-1.71814,0.906372
-1.72729,0.906372
-1.73492,0.906372
-1.74255,0.907898
-1.75171,0.904846
-1.75781,0.906372
-1.76849,0.906372
-1.77917,0.907898
-1.78833,0.91095
-1.79901,0.91095
-1.80817,0.906372
-1.81732,0.907898
-1.82953,0.909424
-1.84021,0.91095
-1.84784,0.906372
-1.85852,0.909424
-1.87225,0.906372
-1.88141,0.906372
-1.89209,0.907898
-1.90735,0.906372
-1.9165,0.906372
-1.92413,0.906372
-1.93634,0.912476
-1.94702,0.906372
-1.95313,0.907898
-1.96533,0.906372
-1.97754,0.907898
-1.98517,0.907898
-1.99585,0.909424
-2.005,0.91095
-2.01721,0.906372
-2.02637,0.909424
-2.03552,0.909424
-2.04315,0.909424
-2.05231,0.91095
-2.06604,0.907898
-2.07214,0.906372
-2.0813,0.907898
-2.09351,0.91095
-2.10114,0.912476
-2.10876,0.907898
-2.11945,0.907898
-2.13165,0.91095
-2.13623,0.91095
-2.14386,0.907898
-2.15149,0.906372
-2.16217,0.904846
-2.16522,0.906372
-2.1759,0.91095
-2.17743,0.909424
-2.19269,0.906372
-2.19574,0.907898
-2.20184,0.91095
-2.20642,0.909424
-2.211,0.91095
-2.22321,0.906372
-2.22778,0.906372
-2.23694,0.909424
-2.24152,0.909424
-2.25067,0.909424
-2.2583,0.904846
-2.26288,0.906372
-2.27051,0.909424
-2.27814,0.907898
-2.28729,0.907898
-2.29034,0.904846
-2.29797,0.907898
-2.2995,0.904846
-2.30713,0.904846
-2.31781,0.91095
-2.32086,0.907898
-2.33002,0.907898
-2.33765,0.906372
-2.34528,0.907898
-2.35138,0.91095
-2.36206,0.907898
-2.36664,0.906372
-2.37732,0.907898
-2.38342,0.907898
-2.38953,0.909424
-2.39868,0.906372
-2.41089,0.909424
-2.41547,0.907898
-2.4231,0.906372
-2.4353,0.906372
-2.44141,0.906372
-2.44904,0.904846
-2.45667,0.907898
-2.46429,0.907898
-2.47345,0.907898
-2.48566,0.904846
-2.49023,0.906372
-2.49939,0.906372
-2.50702,0.906372
-2.51465,0.906372
-2.5238,0.906372
-2.52838,0.90332
-2.53906,0.904846
-2.54669,0.907898
-2.55432,0.909424
-2.56653,0.909424
-2.57568,0.90332
-2.58026,0.906372
-2.59094,0.907898
-2.60162,0.907898
-2.60773,0.906372
-2.61688,0.906372
-2.62756,0.904846
-2.63977,0.904846
-2.64893,0.90332
-2.65656,0.904846
-2.67029,0.904846
-2.67792,0.901794
-2.69012,0.906372
-2.69318,0.906372
-2.70233,0.904846
-2.70538,0.90332
-2.70844,0.906372
-2.70386,0.906372
-2.70233,0.904846
-2.69623,0.904846
-2.68402,0.901794
-2.66266,0.906372
-2.6474,0.904846
-2.62604,0.907898
-2.59399,0.900269
-2.56805,0.901794
-2.53448,0.906372
-2.49939,0.906372
-2.46124,0.904846
-2.4231,0.904846
-2.3819,0.901794
-2.34222,0.904846
-2.29797,0.907898
-2.25677,0.90332
-2.21558,0.904846
-2.17285,0.901794
-2.13165,0.90332
-2.08588,0.90332
-2.05078,0.904846
-2.01111,0.904846
-1.97296,0.897217
-1.93787,0.904846
-1.9043,0.904846
-1.87225,0.906372
-1.84174,0.904846
-1.81122,0.898743
-1.78223,0.90332
-1.75476,0.90332
-1.73187,0.904846
-1.71509,0.901794
-1.6922,0.901794
-1.67389,0.90332
-1.65405,0.90332
-1.63879,0.90332
-1.62506,0.90332
-1.61133,0.901794
-1.60217,0.901794
-1.58997,0.904846
-1.58539,0.900269
-1.57013,0.900269
-1.5686,0.900269
-1.5625,0.900269
-1.55487,0.904846
-1.55487,0.904846
-1.55029,0.898743
-1.55029,0.900269
-1.54266,0.901794
-1.54114,0.904846
-1.54114,0.90332
-1.53809,0.898743
-1.54114,0.897217
-1.54114,0.898743
-1.54114,0.901794
-1.54114,0.900269
-1.54114,0.897217
-1.54419,0.898743
-1.54572,0.900269
-1.54572,0.901794
-1.55029,0.901794
-1.5564,0.901794
-1.5564,0.897217
-1.56555,0.900269
-1.5686,0.900269
-1.57318,0.900269
-1.58234,0.897217
-1.58844,0.898743
-1.59454,0.901794
-1.59912,0.900269
-1.6098,0.900269
-1.61438,0.897217
-1.62048,0.900269
-1.62811,0.898743
-1.63422,0.900269
-1.63574,0.898743
-1.64642,0.898743
-1.65253,0.894165
-1.65863,0.898743
-1.66168,0.901794
-1.66931,0.901794
-1.66931,0.897217
-1.67084,0.897217
-1.67847,0.895691
-1.67999,0.901794
-1.67999,0.895691
-1.68304,0.895691
-1.68304,0.897217
-1.68152,0.898743
-1.68457,0.895691
-1.68457,0.90332
-1.6861,0.895691
-1.6861,0.894165
-1.6861,0.898743
-1.68915,0.898743
-1.68915,0.898743
-1.68915,0.895691
-1.68915,0.895691
-1.69067,0.895691
-1.6922,0.900269
-1.69525,0.895691
-1.6922,0.895691
-1.6922,0.895691
-1.69373,0.897217
-1.6922,0.898743
-1.69678,0.898743
-1.69678,0.895691
-1.70135,0.895691
-1.70288,0.895691
-1.70441,0.897217
-1.71051,0.897217
-1.71204,0.892639
-1.71661,0.894165
-1.72119,0.895691
-1.72729,0.895691
-1.72729,0.895691
-1.73798,0.894165
-1.74408,0.892639
-1.75171,0.895691
-1.75629,0.895691
-1.76086,0.897217
-1.7746,0.894165
-1.7807,0.895691
-1.78528,0.894165
-1.79138,0.895691
-1.79901,0.894165
-1.80817,0.891113
-1.81732,0.894165
-1.82495,0.894165
-1.83716,0.894165
-1.84326,0.895691
-1.85394,0.892639
-1.85852,0.892639
-1.87073,0.892639
-1.87836,0.894165
-1.88446,0.894165
-1.89514,0.895691
-1.90887,0.889587
-1.91498,0.894165
-1.92413,0.897217
-1.93329,0.897217
-1.94092,0.892639
-1.9516,0.891113
-1.96686,0.894165
-1.97296,0.894165
-1.98364,0.894165
-1.99738,0.892639
-2.00348,0.894165
-2.01111,0.894165
-2.02179,0.895691
-2.034,0.891113
-2.04315,0.892639
-2.05383,0.891113
-2.06604,0.891113
-2.07214,0.891113
-2.08282,0.889587
-2.09198,0.889587
-2.10114,0.891113
-2.11334,0.891113
-2.1225,0.891113
-2.1286,0.892639
-2.13928,0.886536
-2.14844,0.886536
-2.15759,0.891113
-2.16522,0.892639
-2.1759,0.894165
-2.17896,0.886536
-2.19116,0.886536
-2.19421,0.889587
-2.20337,0.892639
-2.21405,0.889587
-2.22015,0.886536
-2.22778,0.886536
-2.23846,0.889587
-2.24304,0.891113
-2.25067,0.891113
-2.25677,0.88501
-2.26593,0.883484
-2.27051,0.886536
-2.28119,0.886536
-2.29034,0.891113
-2.2934,0.88501
-2.29797,0.886536
-2.31018,0.886536
-2.31628,0.892639
-2.32544,0.886536
-2.33154,0.886536
-2.34222,0.886536
-2.3468,0.88501
-2.35291,0.892639
-2.36359,0.891113
-2.36969,0.883484
-2.38037,0.88501
-2.38647,0.88501
-2.39563,0.891113
-2.40021,0.889587
-2.40936,0.881958
-2.41547,0.881958
-2.4231,0.886536
-2.42767,0.889587
-2.43835,0.889587
-2.44751,0.88501
-2.45361,0.883484
-2.46429,0.88501
-2.47345,0.88501
-2.47803,0.883484
-2.48566,0.883484
-2.49481,0.883484
-2.50397,0.886536
-2.51312,0.886536
-2.52075,0.886536
-2.52686,0.88501
-2.54211,0.883484
-2.54822,0.88501
-2.5528,0.886536
-2.565,0.886536
-2.57111,0.881958
-2.57874,0.883484
-2.58789,0.88501
-2.59705,0.88501
-2.60468,0.881958
-2.61383,0.881958
-2.62299,0.881958
-2.63062,0.883484
-2.63824,0.88501
