-2.09351,0.843811
-2.09808,0.843811
-2.10266,0.845337
-2.11029,0.848389
-2.11945,0.843811
-2.12555,0.840759
-2.13013,0.843811
-2.13928,0.843811
-2.14386,0.845337
-2.15302,0.846863
-2.16064,0.842285
-2.16675,0.842285
-2.1698,0.845337
-2.17896,0.845337
-2.18353,0.843811
-2.18964,0.845337
-2.19574,0.843811
-2.20184,0.845337
-2.20642,0.846863
-2.211,0.845337
-2.22015,0.842285
-2.22168,0.842285
-2.23083,0.845337
-2.23541,0.846863
-2.24304,0.846863
-2.24762,0.845337
-2.25372,0.842285
-2.2583,0.843811
-2.2583,0.846863
-2.26746,0.846863
-2.27203,0.842285
-2.27509,0.843811
-2.28424,0.843811
-2.28577,0.845337
-2.29187,0.842285
-2.29645,0.843811
-2.30408,0.842285
-2.30713,0.842285
-2.31171,0.846863
-2.31781,0.842285
-2.32086,0.842285
-2.32697,0.843811
-2.33307,0.846863
-2.3407,0.846863
-2.3407,0.843811
-2.34833,0.843811
-2.35138,0.842285
-2.36206,0.842285
-2.36206,0.845337
-2.37274,0.842285
-2.37732,0.843811
-2.3819,0.840759
-2.38647,0.842285
-2.3941,0.845337
-2.39563,0.840759
-2.40479,0.845337
-2.41241,0.840759
-2.41547,0.842285
-2.4231,0.845337
-2.43073,0.843811
-2.43835,0.843811
-2.44293,0.842285
-2.44751,0.843811
-2.45361,0.848389
-2.46124,0.842285
-2.46124,0.842285
-2.46277,0.842285
-2.46429,0.842285
-2.45819,0.845337
-2.45667,0.843811
-2.44904,0.842285
-2.44141,0.842285
-2.43225,0.843811
-2.41699,0.843811
-2.40479,0.843811
-2.388,0.840759
-2.37274,0.839233
-2.35138,0.843811
-2.32849,0.845337
-2.31323,0.842285
-2.29492,0.843811
-2.27051,0.842285
-2.2522,0.842285
-2.22931,0.843811
-2.20947,0.842285
-2.18658,0.842285
-2.16675,0.842285
-2.14386,0.840759
-2.11945,0.842285
-2.09961,0.842285
-2.07825,0.842285
-2.06146,0.842285
-2.04315,0.840759
-2.02484,0.840759
-2.00348,0.843811
-1.98517,0.843811
-1.96838,0.839233
-1.95007,0.839233
-1.93939,0.843811
-1.92261,0.842285
-1.91345,0.840759
-1.90125,0.840759
-1.88904,0.839233
-1.87836,0.843811
-1.8692,0.845337
-1.86005,0.840759
-1.85547,0.840759
-1.84631,0.842285
-1.84021,0.842285
-1.83105,0.842285
-1.83105,0.840759
-1.82495,0.839233
-1.8219,0.839233
-1.81732,0.843811
-1.81427,0.839233
-1.81427,0.840759
-1.81274,0.839233
-1.81122,0.840759
-1.81122,0.843811
-1.80969,0.840759
-1.81122,0.839233
-1.81274,0.836182
-1.81427,0.842285
-1.81732,0.842285
-1.81732,0.842285
-1.8219,0.840759
-1.82648,0.839233
-1.82953,0.842285
-1.83716,0.840759
-1.83716,0.840759
-1.84326,0.839233
-1.84631,0.839233
-1.85242,0.842285
-1.85699,0.840759
-1.86157,0.840759
-1.86462,0.839233
-1.87073,0.836182
-1.87683,0.837708
-1.87988,0.840759
-1.88751,0.842285
-1.89209,0.839233
-1.89362,0.839233
-1.89972,0.839233
-1.90277,0.842285
-1.90277,0.840759
-1.90582,0.840759
-1.91345,0.836182
-1.9165,0.839233
-1.9165,0.837708
-1.91803,0.840759
-1.92261,0.840759
-1.91956,0.834656
-1.93024,0.839233
-1.92719,0.840759
-1.93176,0.840759
-1.93176,0.839233
-1.93176,0.839233
-1.93176,0.839233
-1.93176,0.839233
-1.93329,0.840759
-1.93329,0.836182
-1.93176,0.837708
-1.93176,0.836182
-1.93329,0.839233
-1.93024,0.840759
-1.93176,0.836182
-1.93024,0.834656
-1.92719,0.840759
-1.92719,0.839233
-1.93024,0.842285
-1.92719,0.837708
-1.93024,0.834656
-1.93024,0.839233
-1.92719,0.839233
-1.93176,0.842285
-1.93329,0.837708
-1.93634,0.834656
-1.93939,0.839233
-1.94092,0.837708
-1.94244,0.840759
-1.94244,0.839233
-1.94397,0.836182
-1.94702,0.837708
-1.9516,0.837708
-1.9516,0.839233
-1.95465,0.836182
-1.9577,0.837708
-1.95923,0.840759
-1.96533,0.840759
-1.96838,0.836182
-1.97449,0.836182
-1.98059,0.836182
-1.98059,0.834656
-1.98669,0.842285
-1.9928,0.836182
-1.9989,0.840759
-2.00348,0.834656
-2.00653,0.837708
-2.01416,0.837708
-2.02179,0.839233
-2.02637,0.837708
-2.03247,0.834656
-2.03705,0.837708
-2.04315,0.837708
-2.04773,0.837708
-2.05231,0.836182
-2.06146,0.834656
-2.06604,0.836182
-2.07214,0.840759
-2.0752,0.839233
-2.08282,0.839233
-2.08893,0.834656
-2.09503,0.83313
-2.09808,0.840759
-2.10114,0.836182
-2.10419,0.837708
-2.11029,0.834656
-2.11334,0.839233
-2.11945,0.837708
-2.12402,0.837708
-2.1286,0.839233
-2.13318,0.834656
-2.1347,0.836182
-2.13776,0.836182
-2.14386,0.839233
-2.14691,0.840759
-2.15454,0.837708
-2.15607,0.837708
-2.15759,0.837708
-2.1637,0.840759
-2.16827,0.834656
-2.17133,0.836182
-2.17438,0.836182
-2.17896,0.837708
-2.18353,0.839233
-2.18506,0.836182
-2.19116,0.83313
-2.19116,0.834656
-2.19421,0.840759
-2.19727,0.839233
-2.20032,0.836182
-2.2049,0.836182
-2.20795,0.834656
-2.211,0.839233
-2.2171,0.837708
-2.22015,0.836182
-2.22321,0.836182
-2.22473,0.837708
-2.23083,0.839233
-2.23389,0.843811
-2.23541,0.834656
-2.24152,0.836182
-2.24762,0.837708
-2.24762,0.837708
-2.24915,0.837708
-2.25372,0.837708
-2.2583,0.834656
-2.2644,0.834656
-2.26593,0.837708
-2.26898,0.839233
-2.27051,0.839233
-2.27203,0.836182
-2.27509,0.836182
-2.28119,0.837708
-2.28271,0.840759
-2.28729,0.834656
-2.28882,0.837708
-2.29187,0.837708
-2.29492,0.839233
-2.2995,0.840759
-2.30103,0.837708
-2.30408,0.837708
-2.30408,0.836182
-2.31018,0.839233
-2.30713,0.837708
-2.31476,0.839233
-2.31476,0.837708
-2.31476,0.839233
-2.31934,0.840759
-2.32239,0.839233
-2.32391,0.840759
-2.32697,0.839233
-2.33002,0.840759
-2.33459,0.837708
-2.33612,0.842285
-2.34375,0.839233
-2.3468,0.836182
-2.35138,0.837708
-2.35443,0.839233
-2.35901,0.840759
-2.36511,0.839233
-2.36969,0.837708
-2.37274,0.837708
-2.37885,0.840759
-2.3819,0.840759
-2.38495,0.837708
-2.39258,0.839233
-2.39563,0.837708
-2.40631,0.839233
-2.40479,0.840759
-2.40784,0.837708
-2.40936,0.840759
-2.40936,0.839233
-2.40936,0.843811
-2.40784,0.839233
-2.40021,0.839233
-2.38953,0.839233
-2.38342,0.840759
-2.37274,0.840759
-2.36053,0.842285
-2.34222,0.837708
-2.32849,0.834656
-2.31018,0.837708
-2.2934,0.839233
-2.27356,0.839233
-2.25372,0.837708
-2.23083,0.839233
-2.20947,0.837708
-2.18811,0.840759
-2.1637,0.840759
-2.14386,0.839233
-2.12097,0.839233
-2.09503,0.836182
-2.07062,0.840759
-2.04468,0.842285
-2.02179,0.840759
-2.00043,0.837708
-1.97754,0.840759
-1.95465,0.843811
-1.93481,0.845337
-1.91345,0.842285
-1.89209,0.840759
-1.87225,0.837708
-1.85547,0.842285
-1.83105,0.843811
-1.8158,0.842285
-1.79749,0.840759
-1.78375,0.839233
-1.76697,0.843811
-1.75171,0.845337
-1.74103,0.843811
-1.73035,0.842285
-1.72272,0.842285
-1.70898,0.842285
-1.69983,0.843811
-1.68915,0.842285
-1.68457,0.846863
-1.67694,0.842285
-1.66473,0.843811
-1.66016,0.845337
-1.65558,0.843811
-1.65253,0.842285
-1.64337,0.843811
-1.64185,0.843811
-1.63422,0.845337
-1.63269,0.845337
-1.62811,0.842285
-1.62506,0.843811
-1.62048,0.845337
-1.61896,0.846863
-1.61743,0.846863
-1.61743,0.843811
-1.61438,0.845337
-1.61133,0.845337
-1.61133,0.848389
-1.6098,0.845337
-1.6098,0.845337
-1.61438,0.843811
-1.61133,0.846863
-1.61438,0.846863
-1.61591,0.846863
-1.61896,0.846863
-1.61591,0.845337
-1.61896,0.848389
-1.62048,0.849915
-1.62506,0.849915
-1.62659,0.846863
-1.62506,0.848389
-1.62659,0.846863
-1.63116,0.85144
-1.63269,0.846863
-1.63269,0.845337
-1.63727,0.846863
-1.63879,0.848389
-1.64337,0.848389
-1.64795,0.846863
-1.64795,0.846863
-1.64795,0.846863
-1.64948,0.848389
-1.651,0.85144
-1.65405,0.849915
-1.65253,0.846863
-1.65405,0.848389
-1.65558,0.849915
-1.65405,0.852966
-1.65405,0.85144
-1.65405,0.85144
-1.65253,0.849915
-1.651,0.852966
-1.64948,0.852966
-1.64948,0.852966
-1.64795,0.849915
-1.64795,0.85144
-1.64642,0.852966
-1.64337,0.85144
-1.64337,0.854492
-1.64185,0.85144
-1.64185,0.85144
-1.64032,0.85144
-1.64185,0.852966
-1.64185,0.852966
-1.64185,0.849915
-1.64337,0.85144
-1.64795,0.852966
-1.64642,0.854492
-1.651,0.852966
-1.651,0.85144
-1.65405,0.857544
-1.6571,0.854492
-1.6571,0.857544
-1.65863,0.856018
-1.66473,0.85144
-1.66473,0.856018
-1.66779,0.854492
-1.67084,0.856018
-1.67999,0.854492
-1.68152,0.852966
-1.68457,0.856018
-1.69067,0.854492
-1.69373,0.856018
-1.69983,0.854492
-1.70288,0.852966
-1.71051,0.852966
-1.71509,0.857544
-1.72119,0.856018
-1.72729,0.857544
-1.73035,0.854492
-1.7334,0.852966
-1.74408,0.857544
-1.74713,0.857544
-1.75171,0.857544
-1.75629,0.856018
-1.75934,0.857544
-1.76239,0.860596
-1.76849,0.860596
-1.7746,0.860596
-1.77917,0.856018
-1.78375,0.857544
-1.78833,0.860596
-1.79291,0.863647
-1.79901,0.860596
-1.80511,0.857544
-1.80969,0.857544
-1.81427,0.863647
-1.81885,0.863647
-1.82495,0.863647
-1.82648,0.857544
-1.83563,0.862122
-1.83716,0.863647
-1.84174,0.863647
-1.84631,0.862122
-1.84937,0.857544
-1.85699,0.862122
-1.86157,0.862122
-1.86768,0.865173
-1.87225,0.865173
-1.87531,0.860596
-1.88141,0.860596
-1.88751,0.865173
-1.89056,0.863647
-1.89514,0.862122
-1.90277,0.863647
-1.9104,0.860596
-1.91193,0.865173
-1.91803,0.866699
-1.91956,0.862122
-1.92719,0.862122
-1.92719,0.862122
-1.93329,0.865173
-1.93787,0.865173
-1.94244,0.863647
-1.94397,0.865173
-1.95007,0.862122
-1.95313,0.866699
-1.95923,0.866699
-1.96533,0.863647
-1.96686,0.862122
-1.97296,0.865173
-1.97601,0.868225
-1.97906,0.868225
-1.98364,0.863647
-1.98669,0.865173
-1.99432,0.863647
-1.99738,0.866699
-1.9989,0.866699
-2.00653,0.868225
-2.01263,0.865173
-2.01569,0.865173
-2.02026,0.866699
-2.02179,0.869751
-2.02942,0.866699
-2.034,0.863647
-2.03857,0.866699
-2.0401,0.868225
-2.04315,0.869751
-2.04773,0.869751
-2.05383,0.863647
-2.06146,0.866699
-2.06604,0.869751
-2.06757,0.872803
-2.0752,0.865173
-2.07825,0.865173
-2.08588,0.863647
-2.09045,0.866699
-2.09351,0.863647
-2.09656,0.865173
-2.10419,0.865173
-2.10571,0.865173
-2.11029,0.866699
-2.11639,0.866699
-2.1225,0.866699
-2.12555,0.865173
-2.13013,0.865173
-2.1347,0.866699
-2.13776,0.869751
-2.14233,0.868225
-2.14081,0.865173
-2.14233,0.868225
-2.13928,0.868225
-2.13776,0.871277
-2.13165,0.868225
-2.12402,0.868225
-2.11487,0.866699
-2.10571,0.869751
-2.09045,0.868225
-2.0752,0.868225
-2.05841,0.866699
-2.03857,0.869751
-2.01874,0.869751
-1.99738,0.868225
-1.97449,0.871277
-1.95313,0.866699
-1.92719,0.869751
-1.90735,0.869751
-1.87988,0.871277
-1.85394,0.868225
-1.828,0.868225
-1.80054,0.866699
-1.77765,0.871277
-1.75171,0.871277
-1.72729,0.869751
-1.69983,0.869751
-1.67847,0.869751
-1.65405,0.871277
-1.62964,0.869751
-1.60828,0.868225
-1.58997,0.868225
-1.56555,0.868225
-1.55029,0.872803
-1.52893,0.869751
-1.5152,0.869751
-1.49689,0.869751
-1.47858,0.868225
-1.46942,0.871277
-1.46027,0.871277
-1.44653,0.868225
-1.43433,0.871277
-1.4267,0.869751
-1.41907,0.871277
-1.41449,0.871277
-1.40839,0.868225
-1.40076,0.869751
-1.39618,0.869751
-1.39465,0.871277
-1.39008,0.871277
-1.38855,0.869751
-1.38855,0.868225
-1.3855,0.869751
-1.3855,0.871277
-1.38702,0.869751
-1.39008,0.869751
-1.39465,0.869751
-1.39008,0.872803
-1.39771,0.871277
-1.39923,0.871277
-1.40686,0.871277
-1.40991,0.869751
-1.41144,0.872803
-1.41602,0.871277
-1.42059,0.874329
-1.4267,0.872803
-1.42975,0.868225
-1.43738,0.869751
-1.4389,0.871277
-1.44501,0.871277
-1.44958,0.871277
-1.45721,0.868225
-1.46332,0.869751
-1.4679,0.871277
-1.474,0.872803
-1.47705,0.868225
-1.48163,0.868225
-1.48163,0.869751
-1.48773,0.871277
-1.49078,0.871277
-1.49689,0.868225
-1.49689,0.869751
-1.50299,0.869751
-1.50452,0.872803
-1.50757,0.872803
-1.51062,0.869751
-1.51215,0.872803
-1.51367,0.871277
-1.51367,0.868225
-1.5152,0.872803
-1.5152,0.869751
-1.51367,0.869751
-1.51672,0.872803
-1.5152,0.871277
-1.51978,0.871277
-1.51672,0.868225
-1.51367,0.869751
-1.51978,0.868225
-1.51672,0.872803
-1.51978,0.868225
-1.51672,0.869751
-1.51978,0.869751
-1.5213,0.866699
-1.51978,0.874329
-1.5213,0.872803
-1.52283,0.869751
-1.52588,0.868225
-1.52283,0.871277
-1.52893,0.871277
-1.53046,0.874329
-1.53198,0.869751
-1.53198,0.869751
-1.53656,0.869751
-1.53809,0.869751
-1.54114,0.871277
-1.54419,0.869751
-1.54419,0.868225
-1.54724,0.868225
-1.55487,0.872803
-1.5564,0.872803
-1.5625,0.869751
-1.56708,0.869751
-1.57166,0.869751
-1.57776,0.871277
-1.58234,0.872803
-1.58691,0.869751
-1.59302,0.868225
-1.59607,0.869751
-1.60217,0.869751
-1.60828,0.871277
-1.61591,0.869751
-1.62048,0.869751
-1.62659,0.869751
-1.63727,0.869751
-1.64185,0.871277
-1.651,0.871277
-1.65253,0.868225
-1.66168,0.866699
-1.66779,0.871277
-1.67389,0.872803
-1.67999,0.869751
-1.68915,0.871277
-1.6983,0.866699
-1.70288,0.871277
-1.71204,0.869751
-1.71814,0.869751
-1.72424,0.868225
-1.73187,0.868225
-1.73798,0.869751
-1.74561,0.871277
-1.75323,0.869751
-1.76086,0.869751
-1.76697,0.866699
-1.77307,0.869751
-1.7807,0.869751
-1.7868,0.868225
-1.78986,0.869751
-1.79443,0.866699
-1.80511,0.868225
-1.80817,0.869751
-1.81427,0.866699
-1.81885,0.866699
-1.828,0.868225
-1.828,0.869751
-1.84021,0.868225
-1.84326,0.871277
-1.85089,0.868225
-1.85547,0.866699
-1.86005,0.869751
-1.86768,0.871277
-1.87225,0.871277
-1.87988,0.869751
-1.88293,0.869751
-1.88751,0.868225
-1.89362,0.872803
-1.89972,0.868225
-1.9043,0.868225
-1.9104,0.869751
-1.91345,0.871277
-1.91956,0.869751
-1.92566,0.868225
-1.93024,0.869751
-1.93481,0.869751
-1.93329,0.871277
-1.94244,0.869751
-1.9455,0.868225
-1.94855,0.866699
-1.95465,0.866699
-1.95923,0.869751
-1.96228,0.869751
-1.96686,0.868225
-1.96991,0.866699
-1.97601,0.868225
-1.97906,0.868225
-1.98212,0.871277
-1.98669,0.869751
-1.99432,0.863647
-1.99738,0.868225
-1.9989,0.866699
-2.00348,0.869751
-2.01263,0.868225
-2.01416,0.866699
-2.02026,0.868225
-2.02637,0.868225
-2.03247,0.868225
-2.03857,0.866699
-2.04468,0.865173
-2.05078,0.868225
-2.05688,0.869751
-2.06146,0.872803
-2.06604,0.865173
-2.07214,0.866699
-2.07672,0.868225
-2.07977,0.869751
-2.08893,0.866699
-2.09503,0.866699
-2.10114,0.866699
-2.10419,0.863647
-2.10724,0.869751
-2.11639,0.868225
-2.1225,0.865173
-2.12555,0.865173
-2.13013,0.869751
-2.13318,0.869751
-2.13623,0.869751
-2.13928,0.863647
-2.13776,0.865173
-2.13928,0.865173
-2.13928,0.868225
-2.13165,0.869751
-2.1225,0.866699
-2.11029,0.863647
-2.10266,0.868225
-2.08893,0.866699
-2.07367,0.866699
-2.05231,0.865173
-2.03552,0.863647
-2.01263,0.865173
-1.99432,0.863647
-1.96838,0.868225
-1.9455,0.865173
-1.91956,0.866699
-1.89972,0.868225
-1.87073,0.865173
-1.84326,0.866699
-1.8219,0.865173
-1.79138,0.863647
-1.76697,0.863647
-1.74103,0.868225
-1.71509,0.868225
-1.68915,0.868225
-1.66626,0.865173
-1.64185,0.863647
-1.61743,0.866699
-1.5976,0.866699
-1.57623,0.865173
-1.55792,0.865173
-1.53809,0.862122
-1.5213,0.868225
-1.50604,0.866699
-1.49384,0.865173
-1.47552,0.860596
-1.46637,0.863647
-1.44958,0.866699
-1.4389,0.869751
-1.43127,0.863647
-1.42517,0.862122
-1.41449,0.863647
-1.41144,0.866699
-1.40686,0.866699
-1.40381,0.865173
-1.40228,0.863647
-1.39771,0.863647
-1.39618,0.866699
-1.39618,0.866699
-1.39618,0.865173
-1.39618,0.863647
-1.39618,0.865173
-1.39923,0.865173
-1.39618,0.866699
-1.39771,0.863647
-1.40228,0.862122
-1.40228,0.863647
-1.40381,0.862122
-1.40686,0.865173
-1.40991,0.865173
-1.41449,0.860596
-1.41754,0.860596
-1.42517,0.865173
-1.42975,0.862122
-1.43433,0.868225
-1.44196,0.857544
-1.44958,0.863647
-1.45264,0.865173
-1.45874,0.866699
-1.46484,0.863647
-1.47247,0.863647
-1.47858,0.863647
-1.48468,0.865173
-1.49231,0.868225
-1.49841,0.863647
-1.50299,0.863647
-1.51062,0.865173
-1.51978,0.865173
-1.52283,0.866699
-1.52893,0.865173
-1.53656,0.860596
-1.53961,0.863647
-1.54724,0.865173
-1.55029,0.863647
-1.55792,0.865173
-1.56403,0.862122
-1.56403,0.860596
-1.56708,0.862122
-1.57318,0.863647
-1.57776,0.862122
-1.58234,0.860596
-1.58539,0.863647
-1.58539,0.863647
-1.58844,0.865173
-1.59454,0.863647
-1.5976,0.857544
-1.60217,0.863647
-1.6037,0.865173
-1.6037,0.865173
-1.6098,0.862122
-1.61133,0.856018
-1.61591,0.863647
-1.61896,0.866699
-1.62201,0.865173
-1.62506,0.862122
-1.62964,0.862122
-1.63269,0.857544
-1.63574,0.862122
-1.63879,0.865173
-1.64185,0.865173
-1.64337,0.862122
-1.651,0.863647
-1.65558,0.863647
-1.65405,0.863647
-1.66168,0.860596
-1.66626,0.860596
-1.66931,0.857544
-1.67236,0.862122
-1.67847,0.862122
-1.68457,0.862122
-1.68915,0.862122
-1.6983,0.860596
-1.70288,0.862122
-1.71051,0.862122
-1.71967,0.862122
-1.72729,0.860596
-1.73187,0.860596
-1.74103,0.862122
-1.75018,0.863647
-1.75781,0.860596
-1.76392,0.860596
-1.77307,0.857544
-1.7807,0.862122
-1.78986,0.862122
-1.79596,0.862122
-1.80664,0.857544
-1.81274,0.857544
-1.82648,0.863647
-1.83105,0.865173
-1.84174,0.863647
-1.84937,0.856018
-1.85852,0.860596
-1.86462,0.860596
-1.87378,0.862122
-1.88446,0.862122
-1.89362,0.860596
-1.90125,0.860596
-1.90735,0.862122
-1.9165,0.863647
-1.92719,0.863647
-1.93329,0.860596
-1.93787,0.857544
-1.9455,0.857544
-1.95618,0.862122
-1.96228,0.863647
-1.97144,0.854492
-1.97449,0.856018
-1.98364,0.860596
-1.98517,0.862122
-1.99585,0.860596
-2.005,0.860596
-2.00806,0.856018
-2.01111,0.857544
-2.02179,0.860596
-2.02484,0.856018
-2.03094,0.856018
-2.0401,0.856018
-2.04468,0.860596
-2.05231,0.863647
-2.05994,0.860596
-2.06604,0.856018
-2.07214,0.857544
-2.07367,0.860596
-2.08282,0.860596
-2.09045,0.857544
-2.09351,0.860596
-2.09656,0.860596
-2.09961,0.857544
-2.10571,0.862122
-2.11334,0.857544
-2.11945,0.857544
-2.12555,0.857544
-2.12708,0.862122
-2.13623,0.863647
-2.14081,0.862122
-2.14386,0.854492
-2.14844,0.860596
-2.15302,0.860596
-2.16064,0.862122
-2.16522,0.856018
-2.17133,0.856018
-2.1759,0.854492
-2.17896,0.857544
-2.18353,0.860596
-2.18811,0.857544
-2.19269,0.854492
-2.19574,0.857544
-2.20032,0.856018
-2.2049,0.860596
-2.20795,0.860596
-2.2171,0.856018
-2.22015,0.856018
-2.22473,0.856018
-2.23083,0.860596
-2.23389,0.860596
-2.23999,0.857544
-2.24609,0.857544
-2.2522,0.860596
-2.2583,0.857544
-2.2644,0.857544
-2.27051,0.856018
-2.27509,0.856018
-2.27509,0.860596
-2.28271,0.860596
-2.28729,0.860596
-2.29187,0.854492
-2.29797,0.857544
-2.30103,0.857544
-2.30713,0.857544
-2.31628,0.860596
-2.32086,0.857544
-2.32544,0.854492
-2.33154,0.857544
-2.33459,0.860596
-2.34375,0.860596
-2.34528,0.852966
-2.35138,0.856018
-2.35443,0.860596
-2.36053,0.860596
-2.36206,0.856018
-2.36969,0.856018
-2.37579,0.856018
-2.38037,0.857544
-2.38495,0.856018
-2.39105,0.856018
-2.40021,0.854492
-2.40784,0.854492
-2.41089,0.860596
-2.41852,0.860596
-2.42462,0.856018
-2.4292,0.856018
-2.43683,0.85144
-2.44293,0.854492
-2.45209,0.857544
-2.45361,0.857544
-2.45819,0.854492
-2.46277,0.854492
-2.46735,0.856018
-2.46887,0.856018
-2.4704,0.857544
-2.46735,0.854492
-2.46277,0.856018
-2.45819,0.857544
-2.45209,0.856018
-2.44293,0.860596
-2.4292,0.854492
-2.42004,0.849915
-2.40479,0.852966
-2.38647,0.860596
-2.36969,0.860596
-2.35138,0.856018
-2.33459,0.85144
-2.31171,0.857544
-2.29034,0.854492
-2.26746,0.857544
-2.24609,0.852966
-2.22015,0.856018
-2.19879,0.852966
-2.1698,0.857544
-2.14539,0.856018
-2.12402,0.852966
-2.09808,0.852966
-2.07367,0.854492
-2.05231,0.857544
-2.02942,0.856018
-2.005,0.854492
-1.98517,0.852966
-1.96533,0.854492
-1.94397,0.860596
-1.92413,0.854492
-1.90735,0.854492
-1.89819,0.854492
-1.87683,0.856018
-1.86768,0.857544
-1.85394,0.857544
-1.84326,0.856018
-1.83258,0.852966
-1.81732,0.856018
-1.81274,0.857544
-1.80969,0.852966
-1.80054,0.852966
-1.79749,0.856018
-1.79443,0.854492
-1.78986,0.856018
-1.78833,0.852966
-1.7868,0.852966
-1.78223,0.854492
-1.78223,0.854492
-1.78375,0.854492
-1.7807,0.854492
-1.78375,0.852966
-1.78375,0.85144
-1.7868,0.852966
-1.78833,0.856018
-1.78833,0.856018
-1.78986,0.852966
-1.79291,0.854492
-1.79291,0.852966
-1.79749,0.854492
-1.79901,0.852966
-1.79901,0.852966
-1.80664,0.852966
-1.80969,0.852966
-1.81274,0.857544
-1.82037,0.854492
-1.82343,0.854492
-1.828,0.85144
-1.83258,0.854492
-1.84174,0.854492
-1.84784,0.857544
-1.85394,0.856018
-1.85852,0.849915
-1.8631,0.852966
-1.8692,0.857544
-1.87683,0.857544
-1.88141,0.852966
-1.88141,0.852966
-1.88904,0.852966
-1.89362,0.854492
-1.89819,0.854492
-1.9043,0.852966
-1.9104,0.852966
-1.91498,0.852966
-1.91803,0.852966
-1.92413,0.856018
-1.92719,0.854492
-1.93024,0.852966
-1.93634,0.85144
-1.93634,0.856018
-1.93787,0.852966
-1.93939,0.85144
-1.94092,0.85144
-1.9455,0.856018
-1.9455,0.852966
-1.95007,0.856018
-1.94702,0.849915
-1.9516,0.85144
-1.95313,0.852966
-1.95618,0.856018
-1.95618,0.852966
-1.96228,0.85144
-1.9577,0.852966
-1.96381,0.85144
-1.96533,0.852966
-1.96533,0.852966
-1.96838,0.85144
-1.96838,0.85144
-1.96838,0.852966
-1.97144,0.849915
-1.97296,0.856018
-1.97754,0.852966
-1.97906,0.85144
-1.98059,0.85144
-1.98364,0.85144
-1.98975,0.852966
-1.99432,0.85144
-1.99738,0.848389
-2.00043,0.85144
-2.00348,0.854492
-2.00806,0.852966
-2.01111,0.849915
-2.01569,0.849915
-2.02026,0.852966
-2.02942,0.852966
-2.02942,0.852966
-2.03247,0.85144
-2.0401,0.848389
-2.04315,0.85144
-2.05078,0.852966
-2.05688,0.854492
-2.05841,0.85144
-2.06451,0.849915
-2.06909,0.849915
-2.07367,0.854492
-2.07825,0.852966
-2.08893,0.85144
-2.09198,0.849915
-2.09808,0.85144
-2.10114,0.849915
-2.10876,0.852966
-2.11639,0.846863
-2.11945,0.849915
-2.12555,0.85144
-2.13013,0.856018
-2.13318,0.854492
-2.14081,0.848389
-2.14539,0.849915
-2.15302,0.848389
-2.15759,0.854492
-2.1637,0.85144
-2.16675,0.846863
-2.17133,0.846863
-2.17896,0.852966
-2.18353,0.849915
-2.18658,0.854492
-2.19574,0.849915
-2.19879,0.849915
-2.20184,0.849915
-2.20947,0.85144
-2.21558,0.852966
-2.2171,0.846863
-2.22321,0.848389
-2.22778,0.848389
-2.23389,0.849915
-2.23694,0.854492
-2.24762,0.85144
-2.24915,0.849915
-2.25677,0.849915
-2.2583,0.85144
-2.26135,0.854492
-2.26746,0.849915
-2.27203,0.846863
-2.27814,0.849915
-2.28119,0.852966
-2.28882,0.852966
-2.29034,0.849915
-2.29645,0.849915
-2.30103,0.849915
-2.30408,0.848389
-2.30713,0.852966
-2.31323,0.848389
-2.31781,0.848389
-2.31934,0.849915
-2.32544,0.848389
-2.33002,0.85144
-2.33154,0.85144
-2.33612,0.848389
-2.33612,0.848389
-2.3407,0.849915
-2.34833,0.852966
-2.3468,0.848389
-2.35138,0.849915
-2.35291,0.848389
-2.36053,0.849915
-2.36053,0.852966
-2.36664,0.848389
-2.37274,0.848389
-2.37427,0.848389
-2.37732,0.852966
-2.38037,0.85144
-2.38342,0.849915
-2.38495,0.848389
-2.3941,0.848389
-2.3941,0.852966
-2.39868,0.852966
-2.40173,0.846863
-2.40479,0.846863
-2.40936,0.85144
-2.41241,0.848389
-2.41699,0.848389
-2.42157,0.848389
-2.42462,0.848389
-2.42767,0.85144
-2.43073,0.849915
-2.43988,0.848389
-2.43988,0.85144
-2.44751,0.846863
-2.44751,0.848389
-2.45361,0.849915
-2.45667,0.848389
-2.45972,0.846863
-2.46735,0.846863
-2.47192,0.849915
-2.47498,0.848389
-2.47955,0.849915
-2.48413,0.848389
-2.48566,0.849915
-2.49023,0.848389
-2.49634,0.849915
-2.50092,0.85144
-2.50092,0.846863
-2.50854,0.849915
-2.51007,0.848389
-2.5116,0.849915
-2.51465,0.846863
-2.5238,0.845337
-2.52686,0.845337
-2.52838,0.845337
-2.53601,0.849915
-2.54059,0.848389
-2.54517,0.846863
-2.54822,0.846863
-2.54974,0.846863
-2.55432,0.849915
-2.5589,0.845337
-2.56653,0.846863
-2.57111,0.845337
-2.57263,0.846863
-2.57721,0.849915
-2.58179,0.846863
-2.58636,0.845337
-2.58942,0.845337
-2.59399,0.848389
-2.59857,0.849915
-2.59857,0.845337
-2.60315,0.846863
-2.6062,0.845337
-2.6062,0.846863
-2.6062,0.849915
-2.6062,0.848389
-2.60315,0.846863
-2.59705,0.843811
-2.58942,0.845337
-2.57874,0.848389
-2.56805,0.846863
-2.5589,0.846863
-2.54517,0.845337
-2.52228,0.846863
-2.50702,0.848389
-2.48413,0.846863
-2.46887,0.843811
-2.44598,0.845337
-2.42157,0.843811
-2.40021,0.846863
-2.37579,0.846863
-2.35443,0.846863
-2.33002,0.846863
-2.30713,0.846863
-2.28271,0.849915
-2.25983,0.845337
-2.23694,0.846863
-2.21558,0.845337
-2.18964,0.846863
-2.17133,0.849915
-2.15149,0.846863
-2.13318,0.845337
-2.11182,0.845337
-2.09503,0.845337
-2.07825,0.845337
-2.06451,0.845337
-2.04926,0.843811
-2.03247,0.845337
-2.01721,0.845337
-2.00653,0.848389
-1.9928,0.848389
-1.98669,0.846863
-1.97601,0.843811
-1.96838,0.848389
-1.96381,0.849915
-1.95465,0.845337
-1.95007,0.843811
-1.94855,0.842285
-1.94092,0.845337
-1.93939,0.849915
-1.93481,0.845337
-1.93024,0.849915
-1.93024,0.842285
-1.93176,0.848389
-1.93024,0.849915
-1.92566,0.846863
-1.93024,0.842285
-1.93024,0.845337
-1.93024,0.848389
-1.93024,0.848389
-1.93481,0.846863
-1.93634,0.845337
-1.93634,0.845337
-1.94092,0.848389
-1.94397,0.848389
-1.95007,0.848389
-1.9516,0.845337
-1.95313,0.846863
-1.95923,0.848389
-1.96533,0.846863
-1.96838,0.846863
-1.97144,0.845337
-1.97601,0.845337
-1.98059,0.845337
-1.98059,0.845337
-1.98517,0.846863
-1.9928,0.843811
-1.99585,0.843811
-1.98975,0.849915
-1.9928,0.843811
-1.99585,0.846863
-1.99585,0.845337
-1.99738,0.843811
-1.9989,0.845337
-1.99738,0.846863
-1.9989,0.846863
-1.99585,0.840759
-1.9928,0.845337
-1.9928,0.846863
-1.99432,0.845337
-1.9928,0.843811
-1.98669,0.842285
-1.98822,0.843811
-1.98822,0.843811
-1.98669,0.846863
-1.98212,0.846863
-1.97906,0.845337
-1.97601,0.843811
-1.97296,0.843811
-1.96838,0.846863
-1.96991,0.845337
-1.96381,0.843811
-1.96228,0.842285
-1.95465,0.845337
-1.95007,0.843811
-1.94855,0.846863
-1.94397,0.842285
-1.94397,0.842285
-1.93787,0.843811
-1.93787,0.845337
-1.93481,0.846863
-1.93329,0.842285
-1.93329,0.843811
-1.93329,0.843811
-1.93176,0.846863
-1.93024,0.845337
-1.93176,0.842285
-1.93176,0.843811
-1.93329,0.842285
-1.93329,0.845337
-1.93176,0.845337
-1.93634,0.843811
-1.93787,0.846863
-1.94244,0.842285
-1.94244,0.846863
-1.94397,0.845337
-1.94855,0.842285
-1.9516,0.842285
-1.95465,0.843811
-1.95923,0.846863
-1.9577,0.846863
-1.96381,0.840759
-1.96991,0.842285
-1.96991,0.840759
-1.97601,0.846863
-1.97906,0.843811
-1.98517,0.840759
-1.9928,0.842285
-1.99432,0.843811
-2.00043,0.845337
-2.005,0.846863
-2.01263,0.842285
-2.01569,0.840759
-2.01874,0.842285
-2.02484,0.845337
-2.02789,0.842285
-2.03705,0.840759
-2.0462,0.840759
-2.04926,0.843811
-2.05231,0.846863
-2.05841,0.845337
-2.06451,0.843811
-2.06604,0.842285
-2.07214,0.842285
-2.07062,0.845337
-2.07825,0.843811
-2.08435,0.842285
-2.09045,0.842285
-2.09198,0.840759
-2.09656,0.848389
-2.10114,0.845337
-2.10419,0.842285
-2.10724,0.843811
-2.11182,0.842285
-2.11334,0.845337
-2.12097,0.842285
-2.12402,0.842285
-2.12555,0.839233
-2.1286,0.843811
-2.13623,0.845337
-2.13776,0.842285
-2.14233,0.840759
-2.14691,0.839233
-2.15302,0.840759
-2.15454,0.846863
-2.16217,0.845337
-2.16064,0.840759
-2.16675,0.840759
-2.16827,0.842285
-2.17285,0.843811
-2.1759,0.843811
-2.17896,0.843811
-2.18048,0.840759
-2.18506,0.845337
-2.18811,0.845337
-2.19116,0.843811
-2.19421,0.842285
-2.19879,0.842285
-2.20032,0.842285
-2.20642,0.845337
-2.20642,0.843811
-2.21405,0.842285
-2.21405,0.843811
-2.21863,0.840759
-2.22473,0.843811
-2.22321,0.842285
-2.22931,0.839233
-2.23236,0.843811
-2.23694,0.843811
-2.23999,0.845337
-2.23999,0.842285
-2.24609,0.840759
-2.24762,0.839233
-2.2522,0.842285
-2.2522,0.842285
-2.25677,0.845337
-2.2644,0.840759
-2.2644,0.842285
-2.27051,0.842285
-2.27051,0.845337
-2.27509,0.840759
-2.27814,0.845337
-2.28119,0.839233
-2.28424,0.845337
-2.28729,0.843811
-2.29492,0.842285
-2.29797,0.843811
-2.2995,0.840759
-2.3056,0.845337
-2.30713,0.840759
-2.31018,0.839233
-2.31628,0.839233
-2.32086,0.842285
-2.32697,0.843811
-2.33002,0.842285
-2.33307,0.845337
-2.34222,0.842285
-2.34528,0.840759
-2.35291,0.843811
-2.35291,0.842285
-2.35748,0.840759
-2.36359,0.840759
-2.36664,0.839233
-2.36664,0.843811
-2.37274,0.843811
-2.37579,0.842285
-2.3819,0.842285
-2.3819,0.839233
-2.38037,0.840759
-2.38037,0.842285
-2.38037,0.840759
-2.37427,0.845337
-2.36816,0.842285
-2.35596,0.843811
-2.34528,0.842285
-2.33154,0.842285
-2.31628,0.840759
-2.2995,0.839233
-2.28119,0.843811
-2.26288,0.843811
-2.24152,0.843811
-2.22015,0.840759
-2.19574,0.842285
-2.1698,0.842285
-2.14386,0.842285
-2.11639,0.842285
-2.09351,0.840759
-2.05994,0.837708
-2.034,0.839233
-2.005,0.842285
-1.97449,0.840759
-1.9455,0.839233
-1.91803,0.842285
-1.88751,0.842285
-1.86157,0.843811
-1.83716,0.839233
-1.80969,0.842285
-1.78375,0.840759
-1.76086,0.839233
-1.73645,0.842285
-1.71204,0.839233
-1.69373,0.842285
-1.67389,0.839233
-1.65405,0.843811
-1.63727,0.843811
-1.61743,0.842285
-1.6037,0.839233
-1.59302,0.839233
-1.57928,0.840759
-1.56708,0.843811
-1.56097,0.840759
-1.54724,0.837708
-1.54114,0.839233
-1.53503,0.839233
-1.53198,0.842285
-1.52435,0.840759
-1.51672,0.839233
-1.5152,0.839233
-1.50604,0.840759
-1.50452,0.842285
-1.50299,0.842285
-1.49994,0.840759
-1.49994,0.839233
-1.49689,0.842285
-1.49994,0.842285
-1.49841,0.840759
-1.50146,0.837708
-1.49841,0.836182
-1.50146,0.842285
-1.50299,0.840759
-1.50299,0.842285
-1.50757,0.839233
-1.50757,0.840759
-1.51062,0.840759
-1.51367,0.842285
-1.5152,0.839233
-1.51672,0.842285
-1.52588,0.837708
-1.52588,0.840759
-1.53198,0.843811
-1.53351,0.842285
-1.53656,0.839233
-1.54114,0.836182
-1.54266,0.836182
-1.54572,0.839233
-1.55334,0.839233
-1.5564,0.842285
-1.55792,0.839233
-1.55945,0.840759
-1.5625,0.840759
-1.56403,0.840759
-1.56555,0.837708
-1.5686,0.836182
-1.5686,0.837708
-1.57013,0.842285
-1.57318,0.840759
-1.57318,0.837708
-1.57471,0.839233
-1.57623,0.837708
-1.57471,0.843811
-1.57471,0.843811
-1.57471,0.840759
-1.57623,0.837708
-1.57166,0.840759
-1.57166,0.843811
-1.5686,0.839233
-1.57013,0.840759
-1.56708,0.837708
-1.5686,0.839233
-1.56555,0.837708
-1.56708,0.840759
-1.56555,0.840759
-1.56097,0.839233
-1.5625,0.842285
-1.56097,0.842285
-1.55792,0.840759
-1.55792,0.839233
-1.56097,0.837708
-1.56097,0.840759
-1.56097,0.843811
-1.56097,0.840759
-1.5625,0.839233
-1.56555,0.839233
-1.56708,0.839233
-1.57166,0.840759
-1.57471,0.837708
-1.57623,0.839233
-1.58234,0.837708
-1.58844,0.839233
-1.59302,0.843811
-1.59454,0.839233
-1.59912,0.842285
-1.6037,0.836182
-1.6098,0.837708
-1.61133,0.840759
-1.62048,0.837708
-1.62811,0.837708
-1.63269,0.837708
-1.64032,0.839233
-1.64642,0.840759
-1.651,0.837708
-1.66168,0.840759
-1.66321,0.839233
-1.67389,0.842285
-1.68304,0.843811
-1.69067,0.840759
-1.69983,0.839233
-1.70593,0.837708
-1.71204,0.839233
-1.72119,0.840759
-1.72882,0.837708
-1.73798,0.837708
-1.74408,0.840759
-1.75018,0.837708
-1.75934,0.840759
-1.76392,0.840759
-1.77307,0.839233
-1.77917,0.836182
-1.78528,0.842285
-1.79443,0.840759
-1.79901,0.840759
-1.81122,0.837708
-1.81427,0.837708
-1.8219,0.839233
-1.82953,0.839233
-1.83716,0.840759
-1.84326,0.839233
-1.84784,0.836182
-1.85394,0.839233
-1.8631,0.840759
-1.8631,0.839233
-1.87378,0.840759
-1.87683,0.836182
-1.88446,0.840759
-1.88751,0.840759
-1.89056,0.837708
-1.89972,0.836182
-1.9043,0.836182
-1.90887,0.837708
-1.91345,0.839233
-1.9165,0.840759
-1.91803,0.839233
-1.92261,0.837708
-1.93176,0.836182
-1.93024,0.837708
-1.93481,0.840759
-1.93634,0.837708
-1.94397,0.840759
-1.95007,0.837708
-1.9516,0.840759
-1.9577,0.839233
-1.96381,0.836182
-1.96533,0.834656
-1.97296,0.836182
-1.97296,0.839233
-1.97754,0.839233
-1.98212,0.834656
-1.98669,0.836182
-1.98822,0.840759
-1.99585,0.840759
-2.00043,0.837708
-2.00653,0.836182
-2.00958,0.837708
-2.01263,0.839233
-2.01721,0.839233
-2.02179,0.842285
-2.02942,0.837708
-2.03247,0.837708
-2.03552,0.836182
-2.0401,0.837708
-2.04468,0.836182
-2.04773,0.839233
-2.05231,0.839233
-2.05231,0.837708
-2.05994,0.837708
-2.06451,0.839233
-2.07062,0.842285
-2.07214,0.836182
-2.07672,0.836182
-2.0813,0.837708
-2.08893,0.840759
-2.09198,0.839233
-2.09961,0.834656
-2.10266,0.836182
-2.10571,0.837708
-2.11487,0.840759
-2.12097,0.836182
-2.12555,0.836182
-2.13165,0.839233
-2.13776,0.839233
-2.14233,0.842285
-2.14844,0.836182
-2.15607,0.837708
-2.16064,0.837708
-2.16827,0.837708
-2.1698,0.840759
-2.17743,0.836182
-2.18353,0.837708
-2.18964,0.837708
-2.19269,0.839233
-2.20032,0.839233
-2.20947,0.839233
-2.21558,0.836182
-2.2171,0.837708
-2.22168,0.842285
-2.22626,0.840759
-2.23389,0.839233
-2.23541,0.83313
-2.23999,0.837708
-2.24609,0.840759
-2.24915,0.839233
-2.25067,0.839233
-2.24609,0.836182
-2.23999,0.837708
-2.23236,0.837708
-2.22321,0.839233
-2.211,0.839233
-2.20184,0.836182
-2.18353,0.839233
-2.16675,0.837708
-2.14386,0.837708
-2.1286,0.836182
-2.10724,0.836182
-2.08588,0.834656
-2.05994,0.837708
-2.03247,0.839233
-2.005,0.834656
-1.97754,0.83313
-1.95007,0.837708
-1.92108,0.837708
-1.89209,0.842285
-1.8631,0.839233
-1.83563,0.837708
-1.80511,0.836182
-1.77765,0.837708
-1.74713,0.839233
-1.71661,0.836182
-1.68915,0.834656
-1.66168,0.834656
-1.63574,0.839233
-1.61133,0.840759
-1.58386,0.836182
-1.5625,0.834656
-1.54114,0.834656
-1.52435,0.839233
-1.49994,0.839233
-1.48315,0.837708
-1.47095,0.834656
-1.45721,0.836182
-1.44043,0.837708
-1.42822,0.837708
-1.41602,0.836182
-1.40533,0.836182
-1.39618,0.840759
-1.38855,0.840759
-1.37939,0.839233
-1.37634,0.839233
-1.37024,0.83313
-1.36719,0.836182
-1.36719,0.837708
-1.36108,0.839233
-1.35651,0.836182
-1.35651,0.836182
-1.35498,0.836182
-1.35498,0.840759
-1.35498,0.836182
-1.35345,0.837708
-1.35651,0.836182
-1.35651,0.836182
-1.36261,0.837708
-1.36261,0.837708
-1.36414,0.836182
-1.36719,0.836182
-1.37024,0.836182
-1.37634,0.839233
-1.37939,0.837708
-1.38092,0.837708
-1.39008,0.834656
-1.39771,0.83313
-1.40228,0.839233
-1.40839,0.840759
-1.40991,0.834656
-1.41754,0.836182
-1.42212,0.836182
-1.43127,0.839233
-1.43585,0.839233
-1.44501,0.836182
-1.44806,0.834656
-1.45111,0.839233
-1.45874,0.836182
-1.46332,0.839233
-1.4679,0.834656
-1.474,0.837708
-1.47552,0.834656
-1.47858,0.837708
-1.48315,0.837708
-1.48773,0.836182
-1.49536,0.828552
-1.49536,0.834656
-1.49384,0.839233
-1.49841,0.836182
-1.49994,0.836182
-1.49841,0.834656
-1.49994,0.836182
-1.50299,0.837708
-1.50299,0.837708
-1.50299,0.839233
-1.50452,0.834656
-1.50146,0.836182
-1.50146,0.837708
-1.50299,0.836182
-1.50146,0.836182
-1.50299,0.834656
-1.49994,0.834656
-1.49536,0.840759
-1.49841,0.839233
-1.49994,0.834656
-1.49841,0.836182
-1.49841,0.837708
-1.50299,0.837708
-1.50146,0.839233
-1.50604,0.83313
-1.50452,0.83313
-1.50452,0.834656
-1.50757,0.836182
-1.50909,0.836182
-1.5152,0.834656
-1.51367,0.834656
-1.51672,0.834656
-1.5213,0.839233
-1.52283,0.842285
-1.53198,0.836182
-1.53656,0.830078
-1.54419,0.834656
-1.54266,0.837708
-1.55182,0.836182
-1.55792,0.834656
-1.56555,0.834656
-1.56708,0.834656
-1.57471,0.836182
-1.58234,0.839233
-1.59149,0.834656
-1.5976,0.834656
-1.59912,0.836182
-1.6098,0.839233
-1.61743,0.834656
-1.62354,0.83313
-1.63269,0.837708
-1.63727,0.836182
-1.64642,0.834656
-1.6571,0.837708
-1.66016,0.83313
-1.66931,0.834656
-1.67999,0.834656
-1.6861,0.836182
-1.69067,0.837708
-1.70135,0.836182
-1.70898,0.830078
-1.71509,0.83313
-1.72424,0.837708
-1.72882,0.837708
-1.74103,0.836182
-1.74866,0.830078
-1.75476,0.834656
-1.76392,0.836182
-1.77155,0.836182
-1.7807,0.836182
-1.78833,0.834656
-1.79291,0.836182
-1.79749,0.837708
-1.80969,0.837708
-1.8158,0.834656
-1.82037,0.83313
-1.82953,0.836182
-1.83563,0.837708
-1.84326,0.83313
-1.84937,0.836182
-1.85394,0.834656
-1.86005,0.834656
-1.87073,0.83313
-1.87836,0.837708
-1.88446,0.834656
-1.89514,0.83313
-1.89972,0.83313
-1.90735,0.836182
-1.91345,0.839233
-1.92108,0.834656
-1.92566,0.837708
-1.93481,0.830078
-1.93939,0.834656
-1.94702,0.837708
-1.9516,0.837708
-1.95923,0.83313
-1.96838,0.834656
-1.97449,0.836182
-1.97906,0.836182
-1.98669,0.834656
-1.99432,0.83313
-1.99738,0.834656
-2.005,0.83313
-2.00958,0.837708
-2.01569,0.837708
-2.02484,0.834656
-2.02789,0.837708
-2.03552,0.836182
-2.04163,0.837708
-2.0462,0.836182
-2.05078,0.83313
-2.06146,0.834656
-2.06604,0.83313
-2.06909,0.839233
-2.07672,0.836182
-2.07825,0.834656
-2.08588,0.836182
-2.09045,0.836182
-2.09656,0.834656
-2.10419,0.837708
-2.11029,0.830078
-2.11334,0.837708
-2.11945,0.834656
-2.12555,0.839233
-2.13013,0.836182
-2.1347,0.828552
-2.13928,0.837708
-2.14539,0.837708
-2.14844,0.836182
-2.15454,0.836182
-2.16064,0.83313
-2.1637,0.836182
-2.16827,0.839233
-2.17438,0.836182
-2.17896,0.836182
-2.18506,0.836182
-2.19116,0.836182
-2.19269,0.836182
-2.20184,0.836182
-2.20337,0.839233
-2.211,0.834656
-2.21405,0.834656
-2.22321,0.837708
-2.22778,0.834656
-2.23236,0.836182
-2.23694,0.834656
-2.24304,0.834656
-2.24762,0.837708
-2.25525,0.837708
-2.25983,0.836182
-2.2644,0.834656
-2.27203,0.834656
-2.27966,0.836182
-2.28271,0.837708
-2.28882,0.836182
-2.29187,0.83313
-2.29492,0.834656
-2.2995,0.837708
-2.30103,0.839233
-2.30103,0.834656
-2.29645,0.83313
-2.29492,0.83313
-2.29034,0.837708
-2.28271,0.837708
-2.26898,0.834656
-2.25677,0.834656
-2.23846,0.83313
-2.22015,0.839233
-2.19727,0.837708
-2.17285,0.839233
-2.15302,0.834656
-2.12555,0.834656
-2.09656,0.837708
-2.06757,0.837708
-2.03552,0.836182
-2.00806,0.834656
-1.97601,0.834656
-1.94244,0.837708
-1.90735,0.836182
-1.87225,0.836182
-1.84021,0.83313
-1.80511,0.830078
-1.76697,0.837708
-1.73187,0.834656
-1.69678,0.83313
-1.66626,0.83313
-1.63269,0.834656
-1.60065,0.836182
-1.57166,0.836182
-1.54266,0.834656
-1.5152,0.83313
-1.48926,0.83313
-1.46332,0.836182
-1.44196,0.836182
-1.41907,0.83313
-1.40076,0.834656
-1.37939,0.834656
-1.36414,0.836182
-1.34888,0.837708
-1.33362,0.834656
-1.31989,0.828552
-1.31073,0.834656
-1.29852,0.837708
-1.28632,0.834656
-1.28174,0.83313
-1.27563,0.834656
-1.26953,0.834656
-1.26648,0.834656
-1.2619,0.836182
-1.2558,0.834656
-1.25885,0.836182
-1.25427,0.83313
-1.25732,0.839233
-1.25275,0.834656
-1.2558,0.83313
-1.2558,0.836182
-1.2619,0.83313
-1.26038,0.837708
-1.26343,0.837708
-1.26953,0.834656
-1.27563,0.834656
-1.27716,0.836182
-1.27869,0.837708
-1.28479,0.834656
-1.29089,0.834656
-1.29852,0.837708
-1.30463,0.83313
-1.3092,0.837708
-1.31683,0.839233
-1.32141,0.834656
-1.33057,0.837708
-1.34125,0.836182
-1.34583,0.834656
-1.3504,0.836182
-1.35803,0.836182
-1.36566,0.834656
-1.36719,0.83313
-1.37482,0.834656
-1.38092,0.836182
-1.38397,0.836182
-1.38855,0.83313
-1.39465,0.830078
-1.39923,0.834656
-1.40228,0.839233
-1.40839,0.837708
-1.41144,0.834656
-1.41449,0.836182
-1.41449,0.834656
-1.41907,0.834656
-1.41907,0.834656
-1.42212,0.83313
-1.42517,0.83313
-1.42822,0.839233
-1.42822,0.837708
-1.42822,0.83313
-1.4267,0.834656
-1.42822,0.836182
-1.42822,0.836182
-1.43127,0.837708
-1.42975,0.834656
-1.42975,0.834656
-1.43127,0.83313
-1.43127,0.834656
-1.42975,0.836182
-1.43127,0.834656
-1.43127,0.830078
-1.43433,0.834656
-1.4328,0.836182
-1.43433,0.837708
-1.43585,0.836182
-1.43738,0.834656
-1.44196,0.836182
-1.4389,0.836182
-1.44348,0.837708
-1.44501,0.834656
-1.44958,0.834656
-1.45264,0.834656
-1.45569,0.836182
-1.46179,0.836182
-1.4679,0.836182
-1.474,0.83313
-1.47858,0.834656
-1.48773,0.837708
-1.48926,0.834656
-1.50146,0.834656
-1.50604,0.830078
-1.51215,0.834656
-1.5213,0.834656
-1.53351,0.836182
-1.53656,0.834656
-1.54724,0.834656
-1.55487,0.834656
-1.5625,0.839233
-1.57166,0.836182
-1.58386,0.836182
-1.58691,0.83313
-1.5976,0.837708
-1.60522,0.837708
-1.61438,0.837708
-1.62354,0.836182
-1.63116,0.83313
-1.63879,0.837708
-1.64795,0.836182
-1.6571,0.837708
-1.66473,0.836182
-1.67389,0.83313
-1.68457,0.836182
-1.69067,0.837708
-1.70135,0.837708
-1.71204,0.836182
-1.72119,0.836182
-1.72577,0.834656
-1.73798,0.834656
-1.74713,0.837708
-1.75629,0.834656
-1.76392,0.83313
-1.77307,0.836182
-1.77917,0.836182
-1.7868,0.839233
-1.79596,0.834656
-1.80359,0.834656
-1.8158,0.83313
-1.8219,0.837708
-1.82648,0.839233
-1.83563,0.836182
-1.84326,0.830078
-1.85242,0.836182
-1.85699,0.836182
-1.8692,0.836182
-1.87378,0.834656
-1.88141,0.834656
-1.89209,0.836182
-1.89514,0.837708
-1.90582,0.837708
-1.91193,0.83313
-1.91803,0.83313
-1.92413,0.834656
-1.93329,0.834656
-1.94092,0.836182
-1.94397,0.834656
-1.95007,0.830078
-1.95618,0.834656
-1.96381,0.834656
-1.96991,0.836182
-1.97296,0.834656
-1.98059,0.834656
-1.98669,0.834656
-1.9928,0.834656
-1.99738,0.836182
-2.00348,0.83313
-2.01263,0.837708
-2.01416,0.837708
-2.02637,0.834656
-2.02942,0.836182
-2.03247,0.834656
-2.03857,0.834656
-2.04468,0.834656
-2.05231,0.836182
-2.05841,0.836182
-2.06299,0.834656
-2.06757,0.83313
-2.07367,0.834656
-2.07825,0.836182
-2.08282,0.836182
-2.08893,0.836182
-2.09656,0.83313
-2.09961,0.834656
-2.10876,0.836182
-2.11029,0.839233
-2.11639,0.83313
-2.1225,0.83313
-2.12708,0.834656
-2.13318,0.839233
-2.13776,0.834656
-2.14691,0.834656
-2.14844,0.836182
-2.15759,0.836182
-2.16064,0.836182
-2.1637,0.836182
-2.17285,0.834656
-2.18353,0.834656
-2.18964,0.834656
-2.19269,0.83313
-2.19879,0.836182
-2.2049,0.837708
-2.21405,0.83313
-2.21863,0.83313
-2.22473,0.834656
-2.22931,0.836182
-2.23694,0.837708
-2.24304,0.83313
-2.25067,0.836182
-2.2583,0.836182
-2.2644,0.834656
-2.27356,0.834656
-2.28271,0.828552
-2.28882,0.83313
-2.2995,0.83313
-2.30408,0.836182
-2.31171,0.83313
-2.31934,0.83313
-2.32544,0.83313
-2.33307,0.830078
-2.33765,0.836182
-2.34222,0.836182
-2.34833,0.830078
-2.35138,0.834656
-2.35443,0.834656
-2.35748,0.836182
-2.35596,0.83313
-2.35291,0.836182
-2.3468,0.834656
-2.33154,0.834656
-2.31934,0.837708
-2.30408,0.836182
-2.28577,0.837708
-2.2644,0.83313
-2.24304,0.834656
-2.21863,0.839233
-2.18964,0.834656
-2.16064,0.834656
-2.13165,0.834656
-2.10114,0.834656
-2.07062,0.834656
-2.034,0.834656
-2.00195,0.830078
-1.96686,0.834656
-1.92566,0.837708
-1.89056,0.830078
-1.85699,0.83313
-1.8219,0.830078
-1.78375,0.836182
-1.74866,0.834656
-1.71509,0.834656
-1.68152,0.836182
-1.64795,0.83313
-1.61743,0.834656
-1.58539,0.834656
-1.5564,0.837708
-1.53046,0.830078
-1.50604,0.828552
-1.48315,0.83313
-1.46332,0.83313
-1.44196,0.837708
-1.4267,0.83313
-1.40839,0.83313
-1.39313,0.834656
-1.37939,0.83313
-1.36871,0.834656
-1.35803,0.83313
-1.35193,0.83313
-1.34583,0.834656
-1.33667,0.828552
-1.33209,0.834656
-1.33209,0.834656
-1.32904,0.828552
-1.33057,0.830078
-1.32599,0.834656
-1.32599,0.834656
-1.33057,0.836182
-1.33057,0.830078
-1.33057,0.834656
-1.33514,0.83313
-1.3382,0.830078
-1.34277,0.830078
-1.34583,0.828552
-1.3504,0.834656
-1.35803,0.830078
-1.36108,0.834656
-1.36719,0.83313
-1.37329,0.83313
-1.38245,0.834656
-1.38855,0.837708
-1.39771,0.83313
-1.40533,0.830078
-1.41296,0.83313
-1.42212,0.828552
-1.43433,0.834656
-1.44348,0.834656
-1.45264,0.830078
-1.46484,0.830078
-1.47095,0.83313
-1.48163,0.834656
-1.49078,0.834656
-1.49841,0.83313
-1.50452,0.83313
-1.51367,0.830078
-1.51978,0.830078
-1.52893,0.83313
-1.53351,0.830078
-1.53961,0.830078
-1.54572,0.83313
-1.55182,0.834656
-1.55487,0.83313
-1.56097,0.834656
-1.56403,0.830078
-1.56708,0.830078
-1.5686,0.830078
-1.57318,0.834656
-1.57471,0.830078
-1.57318,0.828552
-1.57471,0.830078
-1.57166,0.834656
-1.57166,0.830078
-1.57166,0.83313
-1.57471,0.828552
-1.57471,0.834656
-1.57623,0.836182
-1.57166,0.836182
-1.57318,0.83313
-1.57013,0.830078
-1.57013,0.830078
-1.57166,0.837708
-1.57013,0.83313
-1.57013,0.830078
-1.57013,0.830078
-1.57013,0.834656
-1.57013,0.83313
-1.57471,0.830078
-1.57776,0.830078
-1.57623,0.828552
-1.57928,0.83313
-1.57928,0.83313
-1.58386,0.834656
-1.58691,0.83313
-1.59607,0.83313
-1.59607,0.830078
-1.59912,0.83313
-1.60217,0.83313
-1.60675,0.83313
-1.61133,0.828552
-1.61896,0.83313
-1.62354,0.830078
-1.62811,0.834656
-1.63574,0.830078
-1.64185,0.830078
-1.64795,0.830078
-1.65405,0.830078
-1.65863,0.83313
-1.66931,0.834656
-1.67694,0.8255
-1.68304,0.83313
-1.69373,0.830078
-1.69373,0.834656
-1.70441,0.830078
-1.71204,0.827026
-1.71814,0.830078
-1.73035,0.830078
-1.73645,0.830078
-1.74408,0.83313
-1.75171,0.827026
-1.75934,0.828552
-1.76849,0.828552
-1.7746,0.83313
-1.78528,0.83313
-1.79291,0.828552
-1.79901,0.827026
-1.80664,0.828552
-1.81885,0.828552
-1.82648,0.828552
-1.84174,0.827026
-1.84631,0.827026
-1.85089,0.830078
-1.86157,0.83313
-1.87225,0.834656
-1.87836,0.828552
-1.88599,0.828552
-1.89514,0.830078
-1.9043,0.828552
-1.91193,0.827026
-1.92108,0.828552
-1.92719,0.827026
-1.93634,0.834656
-1.94702,0.830078
-1.95313,0.830078
-1.96381,0.828552
-1.96991,0.828552
-1.97906,0.830078
-1.98669,0.830078
-1.98975,0.8255
-1.99738,0.8255
-2.005,0.828552
-2.01111,0.830078
-2.02026,0.830078
-2.02637,0.830078
-2.03247,0.828552
-2.0401,0.828552
-2.04468,0.830078
-2.05231,0.836182
-2.06299,0.830078
-2.06451,0.828552
-2.07214,0.83313
-2.07672,0.830078
-2.08282,0.830078
-2.08893,0.83313
-2.09656,0.828552
-2.10266,0.828552
-2.10724,0.828552
-2.11029,0.828552
-2.11945,0.827026
-2.12402,0.827026
-2.13013,0.828552
-2.1347,0.827026
-2.13928,0.83313
-2.14691,0.830078
-2.15302,0.823975
-2.15759,0.827026
-2.16064,0.83313
-2.16522,0.828552
-2.17438,0.828552
-2.18048,0.828552
-2.18811,0.828552
-2.19421,0.830078
-2.19879,0.83313
-2.20642,0.830078
-2.20947,0.827026
-2.2171,0.828552
-2.22321,0.827026
-2.22931,0.830078
-2.23389,0.830078
-2.23846,0.827026
-2.24152,0.828552
-2.24609,0.830078
-2.25067,0.83313
-2.25067,0.830078
-2.24915,0.8255
-2.25067,0.8255
-2.23999,0.830078
-2.23083,0.830078
-2.22473,0.830078
-2.21405,0.828552
-2.19574,0.828552
-2.1759,0.828552
-2.15607,0.828552
-2.1347,0.828552
-2.10876,0.827026
-2.08588,0.828552
-2.05688,0.827026
-2.02789,0.830078
-1.99585,0.828552
-1.96228,0.8255
-1.93176,0.827026
-1.89209,0.828552
-1.86005,0.828552
-1.82343,0.828552
-1.78833,0.823975
-1.75018,0.823975
-1.71814,0.828552
-1.68152,0.83313
-1.64337,0.827026
-1.61438,0.828552
-1.58234,0.823975
-1.55029,0.828552
-1.5152,0.828552
-1.48773,0.830078
-1.45721,0.830078
-1.43127,0.827026
-1.40991,0.823975
-1.3855,0.828552
-1.36414,0.827026
-1.3504,0.827026
-1.33209,0.8255
-1.31836,0.827026
-1.3031,0.828552
-1.29395,0.830078
-1.28174,0.8255
-1.27411,0.823975
-1.26953,0.8255
-1.2619,0.830078
-1.25885,0.827026
-1.2558,0.827026
-1.2558,0.8255
-1.2558,0.827026
-1.25275,0.828552
-1.2558,0.828552
-1.25885,0.827026
-1.26343,0.827026
-1.26801,0.827026
-1.27563,0.828552
-1.27716,0.828552
-1.28632,0.8255
-1.29242,0.823975
-1.3031,0.8255
-1.3092,0.83313
-1.32141,0.827026
-1.33057,0.827026
-1.33972,0.8255
-1.34735,0.827026
-1.35651,0.828552
-1.37024,0.827026
-1.38092,0.8255
-1.39313,0.8255
-1.40533,0.828552
-1.41602,0.828552
-1.4267,0.827026
-1.43738,0.8255
-1.44653,0.8255
-1.46179,0.827026
-1.47247,0.827026
-1.48315,0.828552
-1.49231,0.823975
-1.50299,0.822449
-1.51367,0.828552
-1.52435,0.830078
-1.52893,0.827026
-1.53809,0.823975
-1.55182,0.8255
-1.55487,0.828552
-1.5625,0.830078
-1.5686,0.827026
-1.57166,0.827026
-1.57928,0.822449
-1.58234,0.827026
-1.58844,0.8255
-1.59149,0.827026
-1.5976,0.827026
-1.60065,0.8255
-1.60217,0.828552
-1.60522,0.828552
-1.6098,0.8255
-1.61438,0.823975
-1.61591,0.827026
-1.61438,0.828552
-1.62048,0.828552
-1.62048,0.828552
-1.62201,0.823975
-1.62354,0.8255
-1.62659,0.827026
-1.62659,0.828552
-1.62659,0.828552
-1.63116,0.8255
-1.62964,0.827026
-1.63422,0.823975
-1.63727,0.828552
-1.63879,0.823975
-1.64032,0.823975
-1.64337,0.823975
-1.64795,0.827026
-1.65253,0.8255
-1.6571,0.827026
-1.66016,0.827026
-1.66626,0.823975
-1.67084,0.827026
-1.67694,0.823975
-1.68304,0.822449
-1.6861,0.827026
-1.6922,0.8255
-1.70135,0.827026
-1.70593,0.828552
-1.71051,0.8255
-1.72119,0.823975
-1.72729,0.823975
-1.73645,0.8255
-1.74408,0.827026
-1.74866,0.823975
-1.75934,0.822449
-1.76544,0.822449
-1.77612,0.8255
-1.7868,0.828552
-1.79596,0.823975
-1.80664,0.823975
-1.81427,0.827026
-1.82343,0.823975
-1.83563,0.827026
-1.84479,0.8255
-1.85547,0.822449
-1.86157,0.820923
-1.87378,0.8255
-1.88446,0.827026
-1.89362,0.8255
-1.90582,0.8255
-1.91345,0.823975
-1.92566,0.820923
-1.93634,0.8255
-1.9455,0.823975
-1.95465,0.823975
-1.96533,0.8255
-1.97449,0.8255
-1.98364,0.8255
-1.9928,0.8255
-2.00043,0.8255
-2.01111,0.823975
-2.02026,0.823975
-2.03552,0.828552
-2.04163,0.827026
-2.05383,0.822449
-2.06299,0.8255
-2.07367,0.8255
-2.07977,0.827026
-2.09351,0.8255
-2.10266,0.823975
-2.11029,0.823975
-2.11639,0.823975
-2.12555,0.8255
-2.13165,0.822449
-2.14081,0.822449
-2.14844,0.8255
-2.15607,0.827026
-2.1637,0.827026
-2.17285,0.827026
-2.17896,0.8255
-2.18964,0.820923
-2.19421,0.820923
-2.20184,0.8255
-2.20795,0.822449
-2.2171,0.820923
-2.22321,0.823975
-2.22931,0.8255
-2.23389,0.8255
-2.23846,0.822449
-2.24609,0.8255
-2.25372,0.823975
-2.25677,0.827026
-2.26288,0.8255
-2.26593,0.827026
-2.27051,0.822449
-2.27509,0.8255
-2.28271,0.823975
-2.28729,0.823975
-2.2934,0.822449
-2.29645,0.822449
-2.30103,0.820923
-2.31323,0.823975
-2.31171,0.8255
-2.31323,0.827026
-2.32086,0.823975
-2.32086,0.822449
-2.32849,0.823975
-2.33002,0.827026
-2.33459,0.822449
-2.34375,0.822449
-2.34833,0.822449
-2.35138,0.822449
-2.35596,0.8255
-2.36359,0.822449
-2.36816,0.823975
-2.37427,0.8255
-2.37885,0.827026
-2.38037,0.827026
-2.38953,0.8255
-2.39563,0.822449
-2.40173,0.822449
-2.40936,0.822449
-2.41241,0.827026
-2.41852,0.822449
-2.42157,0.822449
-2.4292,0.822449
-2.43073,0.822449
-2.43683,0.8255
-2.44141,0.823975
-2.44141,0.822449
-2.44293,0.820923
-2.43835,0.822449
-2.43073,0.8255
-2.42004,0.823975
-2.40784,0.819397
-2.3941,0.819397
-2.37427,0.819397
-2.35138,0.822449
-2.32697,0.822449
-2.2995,0.823975
-2.26898,0.8255
-2.23846,0.823975
-2.20337,0.827026
-2.1698,0.822449
-2.13318,0.822449
-2.09656,0.822449
-2.05688,0.822449
-2.01569,0.8255
-1.97601,0.822449
-1.93481,0.820923
-1.89056,0.820923
-1.85089,0.822449
-1.80969,0.820923
-1.76697,0.8255
-1.72577,0.820923
-1.6861,0.819397
-1.64642,0.823975
-1.60217,0.8255
-1.56708,0.822449
-1.53046,0.820923
-1.49689,0.822449
-1.46332,0.822449
-1.4328,0.8255
-1.39923,0.823975
-1.37177,0.820923
-1.35193,0.820923
-1.32599,0.822449
-1.30615,0.8255
-1.28632,0.822449
-1.26953,0.822449
-1.25732,0.822449
-1.24207,0.8255
-1.22833,0.8255
-1.21613,0.822449
-1.21002,0.823975
-1.19934,0.8255
-1.19629,0.823975
-1.19019,0.8255
-1.18866,0.823975
-1.18561,0.819397
-1.18561,0.822449
-1.18256,0.823975
-1.18561,0.8255
-1.18866,0.822449
-1.18713,0.820923
-1.19171,0.822449
-1.19629,0.8255
-1.19781,0.823975
-1.20392,0.823975
-1.21155,0.823975
-1.2146,0.822449
-1.22375,0.823975
-1.23138,0.822449
-1.23596,0.822449
-1.24512,0.823975
-1.24969,0.822449
-1.25885,0.822449
-1.27258,0.8255
-1.27869,0.823975
-1.28784,0.820923
-1.3031,0.822449
-1.31226,0.820923
-1.32141,0.823975
-1.33514,0.823975
-1.3443,0.820923
-1.35651,0.820923
-1.36566,0.822449
-1.37482,0.822449
-1.38702,0.8255
-1.39008,0.817871
-1.40228,0.817871
-1.41144,0.820923
-1.41754,0.822449
-1.42517,0.820923
-1.4328,0.822449
-1.44043,0.819397
-1.44348,0.819397
-1.45111,0.828552
-1.45569,0.823975
-1.46332,0.822449
-1.46179,0.822449
-1.46942,0.8255
-1.474,0.822449
-1.47552,0.822449
-1.4801,0.822449
-1.47858,0.819397
-1.4801,0.823975
-1.48163,0.823975
-1.48773,0.820923
-1.48468,0.820923
-1.48773,0.822449
-1.48926,0.822449
-1.49078,0.822449
-1.49231,0.823975
-1.49384,0.820923
-1.49689,0.817871
-1.49231,0.820923
-1.49536,0.822449
-1.49689,0.8255
-1.49841,0.820923
-1.50146,0.820923
-1.50299,0.822449
-1.50604,0.823975
-1.50757,0.823975
-1.50757,0.819397
-1.51367,0.817871
-1.51672,0.822449
-1.52588,0.8255
-1.5274,0.822449
-1.53351,0.820923
-1.53961,0.820923
-1.54724,0.823975
-1.55029,0.820923
-1.55945,0.823975
-1.56403,0.823975
-1.57166,0.817871
-1.57928,0.822449
-1.58691,0.8255
-1.59454,0.823975
-1.60065,0.823975
-1.6098,0.817871
-1.62201,0.823975
-1.62964,0.827026
-1.63727,0.8255
-1.64337,0.820923
-1.65558,0.820923
-1.66931,0.822449
-1.67847,0.8255
-1.68762,0.822449
-1.6983,0.820923
-1.70898,0.819397
-1.71967,0.823975
-1.72577,0.822449
-1.74103,0.823975
-1.75323,0.819397
-1.76086,0.817871
-1.77155,0.820923
-1.78375,0.8255
-1.79291,0.820923
-1.80359,0.819397
-1.8158,0.820923
-1.82648,0.822449
-1.83563,0.820923
-1.84631,0.820923
-1.85699,0.817871
-1.86768,0.817871
-1.87531,0.822449
-1.88599,0.823975
-1.89514,0.8255
-1.90887,0.822449
-1.9104,0.817871
-1.92413,0.822449
-1.93176,0.822449
-1.93787,0.822449
-1.94855,0.820923
-1.95465,0.819397
-1.96533,0.822449
-1.97449,0.823975
-1.98059,0.822449
-1.98975,0.816345
-1.9989,0.819397
-2.00958,0.819397
-2.01416,0.820923
-2.02484,0.823975
-2.03094,0.820923
-2.0401,0.819397
-2.0462,0.822449
-2.05688,0.820923
-2.06451,0.822449
-2.06909,0.820923
-2.07825,0.820923
-2.08435,0.823975
-2.09198,0.823975
-2.10114,0.820923
-2.10419,0.822449
-2.11334,0.822449
-2.12097,0.822449
-2.1225,0.823975
-2.13013,0.823975
-2.13776,0.820923
-2.14233,0.820923
-2.14844,0.823975
-2.15454,0.823975
-2.16217,0.823975
-2.16827,0.822449
-2.17438,0.820923
-2.17896,0.822449
-2.18964,0.820923
-2.19421,0.822449
-2.19879,0.820923
-2.20337,0.819397
-2.20947,0.822449
-2.21863,0.819397
-2.22168,0.820923
-2.23083,0.822449
-2.23236,0.820923
-2.23541,0.823975
-2.24609,0.823975
-2.25067,0.822449
-2.25372,0.822449
-2.26288,0.823975
-2.2644,0.822449
-2.27203,0.822449
-2.27356,0.822449
-2.28424,0.819397
-2.28729,0.820923
-2.29034,0.822449
-2.2995,0.820923
-2.3056,0.819397
-2.31171,0.819397
-2.31934,0.817871
-2.32239,0.823975
-2.32697,0.822449
-2.33307,0.823975
-2.34375,0.820923
-2.34985,0.820923
-2.35291,0.823975
-2.36206,0.822449
-2.36664,0.820923
-2.37579,0.819397
-2.3819,0.819397
-2.388,0.819397
-2.3941,0.820923
-2.39868,0.8255
-2.40936,0.820923
-2.41547,0.817871
-2.42004,0.819397
-2.4292,0.823975
-2.44141,0.823975
-2.44751,0.820923
-2.45819,0.819397
-2.46277,0.823975
-2.4704,0.823975
-2.47498,0.820923
-2.48413,0.820923
-2.48413,0.817871
-2.49176,0.820923
-2.49176,0.822449
-2.49176,0.820923
-2.48871,0.820923
-2.4826,0.819397
-2.47498,0.820923
-2.45972,0.823975
-2.44293,0.823975
-2.42157,0.822449
-2.39868,0.820923
-2.37427,0.823975
-2.3468,0.823975
-2.31628,0.819397
-2.28119,0.817871
-2.24609,0.819397
-2.2049,0.819397
-2.16827,0.823975
-2.1286,0.820923
-2.08435,0.817871
-2.04163,0.820923
-1.99738,0.820923
-1.95313,0.823975
-1.90735,0.820923
-1.86157,0.819397
-1.81885,0.816345
-1.7746,0.823975
-1.73035,0.819397
-1.68304,0.822449
-1.64337,0.820923
-1.60217,0.819397
-1.56097,0.819397
-1.52283,0.817871
-1.48468,0.819397
-1.45111,0.816345
-1.41907,0.817871
-1.38855,0.820923
-1.35803,0.822449
-1.33057,0.817871
-1.30463,0.819397
-1.28326,0.819397
-1.2619,0.820923
-1.24054,0.820923
-1.22375,0.820923
-1.21155,0.819397
-1.19781,0.820923
-1.18561,0.822449
-1.17798,0.819397
-1.1734,0.822449
-1.1673,0.820923
-1.15967,0.816345
-1.15967,0.819397
-1.15509,0.820923
-1.15509,0.820923
-1.15509,0.822449
-1.15509,0.819397
-1.15662,0.817871
-1.15662,0.822449
-1.15814,0.820923
-1.16119,0.817871
-1.1673,0.817871
-1.16882,0.817871
-1.17493,0.822449
-1.18256,0.817871
-1.18713,0.819397
-1.19324,0.816345
-1.20087,0.819397
-1.20544,0.822449
-1.2146,0.817871
-1.22375,0.820923
-1.23444,0.816345
-1.24359,0.819397
-1.24969,0.822449
-1.26038,0.820923
-1.27258,0.822449
-1.28174,0.817871
-1.29089,0.822449
-1.30463,0.820923
-1.31836,0.816345
-1.32294,0.819397
-1.33514,0.819397
-1.34125,0.816345
-1.34888,0.822449
-1.35803,0.819397
-1.36871,0.819397
-1.37482,0.817871
-1.38397,0.817871
-1.38855,0.819397
-1.39771,0.819397
-1.40228,0.817871
-1.40991,0.817871
-1.41449,0.820923
-1.42212,0.820923
-1.42517,0.819397
-1.4328,0.817871
-1.43433,0.816345
-1.43585,0.819397
-1.4389,0.820923
-1.4389,0.819397
-1.44348,0.819397
-1.44501,0.817871
-1.44501,0.819397
-1.44501,0.819397
-1.44806,0.817871
-1.45111,0.817871
-1.45264,0.816345
-1.45264,0.817871
-1.45264,0.822449
-1.45569,0.820923
-1.45874,0.814819
-1.45874,0.819397
-1.45721,0.816345
-1.46332,0.820923
-1.46332,0.819397
-1.47095,0.817871
-1.46942,0.819397
-1.47552,0.817871
-1.47705,0.822449
-1.4801,0.820923
-1.48315,0.820923
-1.48773,0.816345
-1.49384,0.816345
-1.49689,0.822449
-1.50146,0.817871
-1.51215,0.816345
-1.5152,0.819397
-1.52435,0.817871
-1.5274,0.817871
-1.53503,0.816345
-1.54114,0.819397
-1.54572,0.816345
-1.55945,0.817871
-1.56555,0.820923
-1.57471,0.820923
-1.58691,0.819397
-1.59302,0.817871
-1.60217,0.817871
-1.61438,0.819397
-1.62354,0.820923
-1.62964,0.817871
-1.63879,0.816345
-1.64948,0.819397
-1.66016,0.819397
-1.66626,0.817871
-1.67999,0.819397
-1.68762,0.817871
-1.6983,0.816345
-1.70441,0.819397
-1.71661,0.820923
-1.72577,0.817871
-1.73645,0.816345
-1.74713,0.817871
-1.75476,0.819397
-1.76239,0.817871
-1.77765,0.817871
-1.78528,0.817871
-1.79443,0.819397
-1.80664,0.820923
-1.81732,0.819397
-1.82343,0.819397
-1.83716,0.817871
-1.84631,0.817871
-1.85242,0.823975
-1.8631,0.819397
-1.87225,0.817871
-1.88141,0.816345
-1.89056,0.820923
-1.89972,0.819397
-1.90887,0.819397
-1.9165,0.819397
-1.92108,0.817871
-1.93176,0.817871
-1.94244,0.819397
-1.95007,0.819397
-1.95465,0.816345
-1.96381,0.819397
-1.97296,0.819397
-1.97754,0.819397
-1.98212,0.822449
-1.98975,0.820923
-1.9989,0.817871
-2.00653,0.814819
-2.01263,0.820923
-2.02179,0.819397
-2.02942,0.816345
-2.034,0.816345
-2.0401,0.819397
-2.0462,0.820923
-2.05078,0.819397
-2.06146,0.817871
-2.06451,0.816345
-2.07062,0.817871
-2.0752,0.816345
-2.07977,0.819397
-2.08282,0.816345
-2.09198,0.814819
-2.09808,0.817871
-2.10114,0.819397
-2.10571,0.819397
-2.11334,0.816345
-2.11487,0.813293
-2.12402,0.816345
-2.12555,0.817871
-2.13165,0.820923
-2.13623,0.819397
-2.14081,0.814819
-2.14691,0.819397
-2.14691,0.816345
-2.15302,0.819397
-2.16064,0.819397
-2.16217,0.816345
-2.16675,0.817871
-2.17285,0.817871
-2.1759,0.816345
-2.18506,0.820923
-2.18658,0.817871
-2.19116,0.817871
-2.19269,0.820923
-2.20032,0.822449
-2.20642,0.816345
-2.20947,0.817871
-2.21558,0.817871
-2.2171,0.820923
-2.22626,0.820923
-2.22626,0.820923
-2.23236,0.814819
-2.23999,0.817871
-2.24609,0.822449
-2.2522,0.822449
-2.2583,0.820923
-2.26135,0.820923
-2.26898,0.819397
-2.27203,0.819397
-2.28119,0.819397
-2.28424,0.819397
-2.2934,0.817871
-2.29797,0.819397
-2.3056,0.822449
-2.31171,0.820923
-2.31934,0.819397
-2.32544,0.817871
-2.33154,0.820923
-2.34222,0.817871
-2.34833,0.820923
-2.35596,0.819397
-2.36053,0.817871
-2.36816,0.820923
-2.36816,0.820923
-2.37579,0.820923
-2.37732,0.817871
-2.37732,0.817871
-2.37579,0.819397
-2.36816,0.817871
-2.35901,0.819397
-2.34833,0.819397
-2.33154,0.817871
-2.31476,0.816345
-2.28882,0.817871
-2.26593,0.817871
-2.23846,0.819397
-2.20947,0.816345
-2.18048,0.816345
-2.14691,0.822449
-2.10724,0.817871
-2.0752,0.817871
-2.03705,0.817871
-1.99585,0.817871
-1.95465,0.820923
-1.91498,0.817871
-1.87378,0.816345
-1.82953,0.817871
-1.78528,0.816345
-1.74255,0.820923
-1.70288,0.819397
-1.66016,0.817871
-1.61896,0.817871
-1.57928,0.819397
-1.54419,0.819397
-1.50909,0.819397
-1.474,0.822449
-1.4389,0.814819
-1.40991,0.814819
-1.37939,0.819397
-1.35193,0.819397
-1.33209,0.817871
-1.3092,0.819397
-1.28326,0.816345
-1.26953,0.816345
-1.25122,0.817871
-1.23901,0.817871
-1.22681,0.816345
-1.2146,0.816345
-1.20697,0.819397
-1.20087,0.819397
-1.19476,0.817871
-1.19171,0.813293
-1.18866,0.816345
-1.18408,0.820923
-1.18408,0.819397
-1.18713,0.820923
-1.18408,0.817871
-1.19019,0.816345
-1.19171,0.816345
-1.19629,0.819397
-1.20544,0.816345
-1.21002,0.817871
-1.21613,0.819397
-1.22375,0.819397
-1.22986,0.817871
-1.24207,0.817871
-1.25122,0.816345
-1.25885,0.816345
-1.27411,0.819397
-1.28632,0.819397
-1.29547,0.816345
-1.30768,0.819397
-1.31989,0.819397
-1.33667,0.816345
-1.34583,0.819397
-1.36108,0.817871
-1.37482,0.814819
-1.38245,0.817871
-1.39313,0.819397
-1.40533,0.816345
-1.41907,0.814819
-1.43127,0.816345
-1.4389,0.816345
-1.44958,0.820923
-1.45874,0.817871
-1.46637,0.817871
-1.47247,0.814819
-1.48163,0.816345
-1.48773,0.817871
-1.49536,0.817871
-1.49994,0.817871
-1.50146,0.819397
-1.50757,0.817871
-1.51062,0.817871
-1.51215,0.819397
-1.5152,0.816345
-1.5152,0.814819
-1.5213,0.816345
-1.51978,0.816345
-1.51978,0.817871
-1.5213,0.816345
-1.5213,0.813293
-1.52283,0.814819
-1.52283,0.817871
-1.52283,0.817871
-1.52283,0.816345
-1.52283,0.817871
-1.51978,0.816345
-1.51978,0.817871
-1.5152,0.817871
-1.51978,0.816345
-1.51978,0.813293
-1.52283,0.814819
-1.5213,0.816345
-1.52435,0.819397
-1.52435,0.814819
-1.5274,0.813293
-1.53046,0.816345
-1.53351,0.816345
-1.53809,0.816345
-1.54114,0.814819
-1.54572,0.810242
-1.54724,0.814819
-1.55334,0.814819
-1.5564,0.814819
-1.56403,0.816345
-1.56708,0.814819
-1.57623,0.814819
-1.58691,0.816345
-1.59302,0.814819
-1.59912,0.814819
-1.60675,0.813293
-1.61591,0.814819
-1.62659,0.819397
-1.63422,0.814819
-1.64642,0.813293
-1.65253,0.813293
-1.66168,0.816345
-1.67084,0.816345
-1.67847,0.813293
-1.69067,0.817871
-1.70135,0.813293
-1.71204,0.814819
-1.72119,0.813293
-1.73187,0.810242
-1.74408,0.814819
-1.75323,0.816345
-1.75934,0.811768
-1.7746,0.814819
-1.78375,0.814819
-1.79749,0.814819
-1.80511,0.813293
-1.81885,0.811768
-1.828,0.814819
-1.83868,0.816345
-1.84784,0.813293
-1.85852,0.811768
-1.8692,0.814819
-1.87836,0.817871
-1.88599,0.817871
-1.89819,0.814819
-1.90582,0.814819
-1.9165,0.814819
-1.92261,0.814819
-1.93481,0.811768
-1.94244,0.817871
-1.95007,0.814819
-1.96381,0.813293
-1.97601,0.816345
-1.98212,0.814819
-1.98822,0.814819
-2.00043,0.814819
-2.00806,0.813293
-2.01263,0.816345
-2.02484,0.814819
-2.03247,0.814819
-2.03857,0.814819
-2.0462,0.813293
-2.05231,0.816345
-2.06299,0.813293
-2.07214,0.816345
-2.07825,0.811768
-2.08435,0.811768
-2.09351,0.816345
-2.09656,0.816345
-2.10724,0.814819
-2.11029,0.811768
-2.11945,0.814819
-2.1225,0.814819
-2.1286,0.814819
-2.13318,0.813293
-2.13928,0.810242
-2.14233,0.814819
-2.14691,0.810242
-2.15607,0.813293
-2.15912,0.817871
-2.16522,0.811768
-2.1698,0.811768
-2.17743,0.814819
-2.18353,0.813293
-2.18811,0.817871
-2.19421,0.813293
-2.20032,0.813293
-2.20337,0.814819
-2.211,0.819397
-2.2171,0.816345
-2.22168,0.811768
-2.22778,0.813293
-2.23541,0.817871
-2.23846,0.814819
-2.24609,0.817871
-2.25067,0.811768
-2.25525,0.813293
-2.26288,0.813293
-2.26746,0.813293
-2.27051,0.811768
-2.27356,0.813293
-2.28119,0.813293
-2.28424,0.811768
-2.29034,0.817871
-2.29797,0.813293
-2.30103,0.811768
-2.30713,0.813293
-2.31171,0.816345
-2.31934,0.817871
-2.31934,0.813293
-2.33002,0.810242
-2.33307,0.811768
-2.34222,0.816345
-2.34833,0.816345
-2.35443,0.813293
-2.36359,0.813293
-2.36969,0.813293
-2.37579,0.813293
-2.38342,0.814819
-2.38647,0.814819
-2.3941,0.808716
-2.39868,0.810242
-2.40173,0.814819
-2.40784,0.814819
-2.41547,0.813293
-2.41241,0.811768
-2.41089,0.814819
-2.40631,0.814819
-2.39868,0.816345
-2.388,0.813293
-2.37427,0.811768
-2.35443,0.814819
-2.33154,0.816345
-2.3056,0.816345
-2.28119,0.813293
-2.2522,0.813293
-2.22015,0.813293
-2.18506,0.813293
-2.14539,0.813293
-2.11029,0.813293
-2.06757,0.813293
-2.02637,0.813293
-1.98364,0.814819
-1.94092,0.813293
-1.89972,0.813293
-1.84937,0.811768
-1.80511,0.813293
-1.75781,0.813293
-1.71204,0.813293
-1.66779,0.813293
-1.62354,0.811768
-1.57623,0.810242
-1.53656,0.814819
-1.49689,0.814819
-1.45874,0.813293
-1.42059,0.814819
-1.3855,0.813293
-1.35498,0.814819
-1.32446,0.813293
-1.29547,0.813293
-1.26953,0.813293
-1.24817,0.811768
-1.22528,0.817871
-1.20544,0.813293
-1.18256,0.814819
-1.16577,0.810242
-1.15204,0.814819
-1.13983,0.814819
-1.12915,0.817871
-1.11847,0.811768
-1.10931,0.814819
-1.10168,0.814819
-1.09711,0.816345
-1.091,0.814819
-1.0849,0.811768
-1.0849,0.813293
-1.08337,0.813293
-1.0849,0.817871
-1.08337,0.817871
-1.0849,0.813293
-1.08643,0.810242
-1.08948,0.814819
-1.091,0.814819
-1.09406,0.814819
-1.09863,0.811768
-1.10474,0.816345
-1.11084,0.813293
-1.11542,0.816345
-1.12457,0.816345
-1.13068,0.813293
-1.13678,0.810242
-1.14594,0.813293
-1.15356,0.813293
-1.15967,0.813293
-1.17188,0.811768
-1.1795,0.811768
-1.19171,0.811768
-1.20087,0.814819
-1.21002,0.816345
-1.2207,0.814819
-1.22833,0.811768
-1.24054,0.813293
-1.24969,0.814819
-1.26038,0.814819
-1.26953,0.811768
-1.27716,0.813293
-1.28632,0.810242
-1.29547,0.816345
-1.30463,0.813293
-1.31378,0.811768
-1.32141,0.813293
-1.33209,0.813293
-1.3382,0.813293
-1.34125,0.817871
-1.34888,0.811768
-1.35193,0.811768
-1.35498,0.813293
-1.36414,0.813293
-1.36566,0.814819
-1.37024,0.813293
-1.37024,0.814819
-1.37329,0.811768
-1.37329,0.811768
-1.37482,0.814819
-1.37939,0.813293
-1.38245,0.808716
-1.38245,0.811768
-1.38245,0.814819
-1.38245,0.814819
-1.3855,0.810242
-1.38702,0.813293
-1.38855,0.811768
-1.39008,0.814819
-1.39008,0.817871
-1.39618,0.811768
-1.39618,0.811768
-1.39771,0.811768
-1.40076,0.814819
-1.40228,0.813293
-1.40686,0.811768
-1.40991,0.810242
-1.41449,0.811768
-1.42059,0.814819
-1.4267,0.813293
-1.4328,0.810242
-1.43738,0.813293
-1.44348,0.810242
-1.44806,0.813293
-1.45721,0.814819
-1.46484,0.810242
-1.474,0.810242
-1.47705,0.808716
-1.48926,0.813293
-1.49841,0.811768
-1.50452,0.811768
-1.5152,0.811768
-1.52588,0.810242
-1.53351,0.813293
-1.54266,0.813293
-1.55334,0.811768
-1.56403,0.810242
-1.57623,0.810242
-1.58539,0.813293
-1.59607,0.814819
-1.60522,0.814819
-1.62048,0.810242
-1.62964,0.811768
-1.63727,0.814819
-1.651,0.811768
-1.65863,0.813293
-1.67084,0.810242
-1.68152,0.811768
-1.69067,0.814819
-1.70135,0.813293
-1.71356,0.813293
-1.72577,0.811768
-1.73645,0.814819
-1.75018,0.814819
-1.75781,0.814819
-1.77155,0.811768
-1.77917,0.811768
-1.78833,0.810242
-1.79596,0.813293
-1.81122,0.813293
-1.8219,0.813293
-1.83105,0.808716
-1.84326,0.813293
-1.85089,0.811768
-1.86005,0.813293
-1.87073,0.811768
-1.88141,0.813293
-1.89209,0.811768
-1.89972,0.814819
-1.90887,0.814819
-1.9165,0.811768
-1.92566,0.813293
-1.93329,0.813293
-1.94244,0.813293
-1.95007,0.813293
-1.95923,0.813293
-1.96838,0.810242
-1.97449,0.813293
-1.97906,0.814819
-1.98822,0.814819
-1.9989,0.811768
-2.00348,0.814819
-2.00806,0.813293
-2.01874,0.813293
-2.02484,0.813293
-2.02942,0.813293
-2.0401,0.817871
-2.04468,0.811768
-2.04926,0.814819
-2.05231,0.814819
-2.05841,0.814819
-2.06604,0.814819
-2.07367,0.814819
-2.07825,0.814819
-2.08435,0.814819
-2.09198,0.816345
-2.09656,0.813293
-2.10266,0.814819
-2.10724,0.814819
-2.11639,0.817871
-2.12097,0.814819
-2.1286,0.813293
-2.13623,0.813293
-2.13776,0.816345
-2.14844,0.814819
-2.15607,0.813293
-2.16064,0.811768
-2.16675,0.814819
-2.17285,0.814819
-2.17743,0.817871
-2.18811,0.811768
-2.19269,0.813293
-2.20184,0.813293
-2.20642,0.814819
-2.21558,0.814819
-2.22473,0.813293
-2.22778,0.808716
-2.23236,0.808716
-2.24152,0.813293
-2.24915,0.808716
-2.25525,0.808716
-2.25983,0.80719
-2.2644,0.80719
-2.27203,0.808716
-2.27814,0.80719
-2.28577,0.804138
-2.29187,0.799561
-2.29797,0.808716
-2.3056,0.811768
-2.31323,0.814819
-2.32086,0.816345
-2.32544,0.813293
-2.33612,0.811768
-2.34375,0.810242
-2.35443,0.80719
-2.35901,0.810242
-2.36664,0.80719
-2.37579,0.811768
-2.38342,0.814819
-2.3941,0.816345
-2.40479,0.810242
-2.41089,0.80719
-2.42004,0.811768
-2.4292,0.810242
-2.43835,0.814819
-2.44751,0.811768
-2.45819,0.810242
-2.46735,0.814819
-2.47345,0.814819
-2.48108,0.814819
-2.49023,0.813293
-2.49176,0.811768
-2.50092,0.813293
-2.50397,0.813293
-2.50549,0.813293
-2.50244,0.811768
-2.49481,0.808716
-2.48566,0.810242
-2.47498,0.811768
-2.45667,0.811768
-2.44141,0.808716
-2.41852,0.810242
-2.3941,0.814819
-2.36664,0.813293
-2.33307,0.811768
-2.30408,0.811768
-2.26898,0.810242
-2.23541,0.811768
-2.19727,0.810242
-2.16064,0.814819
-2.1225,0.810242
-2.07977,0.810242
-2.0401,0.811768
-2.00043,0.811768
-1.9577,0.814819
-1.9165,0.811768
-1.87531,0.808716
-1.83258,0.810242
-1.79443,0.808716
-1.75476,0.811768
-1.71509,0.811768
-1.67694,0.813293
-1.64032,0.810242
-1.60828,0.813293
-1.57776,0.811768
-1.54724,0.813293
-1.5213,0.808716
-1.49384,0.813293
-1.47095,0.814819
-1.44653,0.813293
-1.42975,0.810242
-1.41144,0.810242
-1.39465,0.811768
-1.38092,0.813293
-1.36871,0.814819
-1.35803,0.811768
-1.35193,0.808716
-1.34583,0.810242
-1.3382,0.811768
-1.33667,0.810242
-1.33209,0.811768
-1.32904,0.810242
-1.32904,0.808716
-1.32599,0.814819
-1.32904,0.814819
-1.32904,0.810242
-1.33057,0.810242
-1.33514,0.810242
-1.33667,0.811768
-1.33972,0.813293
-1.3443,0.811768
-1.34888,0.808716
-1.35345,0.811768
-1.35803,0.814819
-1.36871,0.810242
-1.37024,0.80719
-1.38245,0.808716
-1.38397,0.813293
-1.39313,0.811768
-1.39923,0.810242
-1.40686,0.811768
-1.41907,0.810242
-1.42517,0.810242
-1.43585,0.811768
-1.44653,0.814819
-1.45721,0.810242
-1.46637,0.810242
-1.47247,0.811768
-1.48315,0.813293
-1.49689,0.811768
-1.50452,0.813293
-1.51062,0.810242
-1.52283,0.811768
-1.53503,0.813293
-1.53961,0.813293
-1.54572,0.811768
-1.5564,0.810242
-1.56097,0.811768
-1.5686,0.811768
-1.57318,0.811768
-1.58234,0.810242
-1.58997,0.810242
-1.58997,0.811768
-1.59454,0.810242
-1.59912,0.814819
-1.60065,0.810242
-1.60522,0.80719
-1.61133,0.811768
-1.61438,0.814819
-1.61743,0.814819
-1.61896,0.813293
-1.62201,0.808716
-1.62659,0.810242
-1.62964,0.814819
-1.62964,0.813293
-1.62964,0.813293
-1.63116,0.808716
-1.63116,0.810242
-1.63269,0.811768
-1.63574,0.814819
-1.63574,0.810242
-1.63879,0.808716
-1.64032,0.808716
-1.64337,0.811768
-1.64795,0.811768
-1.64795,0.810242
-1.65405,0.808716
-1.65405,0.810242
-1.66168,0.808716
-1.66168,0.813293
-1.66473,0.811768
-1.67236,0.80719
-1.67999,0.810242
-1.68152,0.813293
-1.68915,0.814819
-1.6983,0.813293
-1.70441,0.811768
-1.70898,0.80719
-1.71661,0.808716
-1.72729,0.808716
-1.7334,0.810242
-1.74255,0.80719
-1.75171,0.80719
-1.75781,0.810242
-1.76544,0.813293
-1.7746,0.811768
-1.7868,0.808716
-1.79443,0.808716
-1.80664,0.811768
-1.81274,0.814819
-1.8219,0.810242
-1.83563,0.811768
-1.84326,0.805664
-1.85394,0.808716
-1.86768,0.810242
-1.87378,0.811768
-1.88141,0.80719
-1.89209,0.808716
-1.89819,0.808716
-1.9104,0.810242
-1.91803,0.810242
-1.92719,0.810242
-1.94092,0.808716
-1.94855,0.810242
-1.95618,0.811768
-1.96838,0.810242
-1.97601,0.805664
-1.98669,0.810242
-1.9989,0.810242
-2.00653,0.810242
-2.01721,0.80719
-2.02637,0.80719
-2.03705,0.808716
-2.04468,0.808716
-2.05688,0.811768
-2.06604,0.810242
-2.07367,0.80719
-2.08282,0.808716
-2.09045,0.811768
-2.10114,0.808716
-2.10724,0.810242
-2.11487,0.808716
-2.12708,0.80719
-2.13318,0.810242
-2.14233,0.811768
-2.14844,0.808716
-2.15759,0.808716
-2.1637,0.808716
-2.17133,0.810242
-2.1759,0.808716
-2.18658,0.808716
-2.18964,0.80719
-2.19727,0.80719
-2.20184,0.810242
-2.20947,0.810242
-2.22015,0.808716
-2.22473,0.801086
-2.22778,0.808716
-2.23389,0.80719
-2.23846,0.811768
-2.24915,0.80719
-2.25525,0.805664
-2.25983,0.810242
-2.26746,0.810242
-2.27356,0.808716
-2.27356,0.80719
-2.28271,0.80719
-2.28882,0.810242
-2.29187,0.808716
-2.29797,0.813293
-2.30255,0.808716
-2.31171,0.808716
-2.31476,0.808716
-2.32086,0.810242
-2.32544,0.811768
-2.33002,0.810242
-2.33459,0.808716
-2.3407,0.804138
-2.34528,0.808716
-2.35138,0.810242
-2.35748,0.811768
-2.35748,0.805664
-2.36511,0.80719
-2.37274,0.810242
-2.37732,0.810242
-2.3819,0.811768
-2.38647,0.805664
-2.39258,0.80719
-2.39563,0.808716
-2.40173,0.810242
-2.40784,0.808716
-2.41547,0.808716
-2.42157,0.808716
-2.42462,0.80719
-2.4292,0.810242
-2.43835,0.810242
-2.44446,0.80719
-2.44751,0.808716
-2.45361,0.808716
-2.45514,0.810242
-2.46277,0.808716
-2.47192,0.808716
-2.47498,0.80719
-2.4826,0.805664
-2.48566,0.810242
-2.49481,0.80719
-2.50092,0.80719
-2.50702,0.808716
-2.5116,0.810242
-2.51465,0.808716
-2.51465,0.808716
-2.51923,0.80719
-2.51465,0.808716
-2.5116,0.808716
-2.50549,0.808716
-2.49939,0.808716
-2.4826,0.805664
-2.4704,0.80719
-2.45209,0.810242
-2.43225,0.808716
-2.41241,0.810242
-2.38647,0.80719
-2.36359,0.808716
-2.33612,0.808716
-2.31018,0.810242
-2.28271,0.808716
-2.2522,0.805664
-2.22015,0.80719
-2.18811,0.808716
-2.15454,0.805664
-2.12402,0.810242
-2.09045,0.80719
-2.05841,0.805664
-2.02484,0.805664
-1.99432,0.810242
-1.96381,0.808716
-1.93024,0.804138
-1.90277,0.80719
-1.87378,0.808716
-1.84631,0.811768
-1.81885,0.810242
-1.79443,0.80719
-1.77307,0.80719
-1.74713,0.808716
-1.72882,0.810242
-1.70898,0.80719
-1.69373,0.804138
-1.67847,0.808716
-1.66321,0.810242
-1.65558,0.808716
-1.64642,0.80719
-1.63422,0.808716
-1.62659,0.80719
-1.61743,0.808716
-1.61591,0.808716
-1.60828,0.80719
-1.60828,0.808716
-1.6037,0.804138
-1.60217,0.80719
-1.6037,0.810242
-1.60217,0.808716
-1.6037,0.80719
-1.61133,0.805664
-1.61133,0.810242
-1.61743,0.811768
-1.62354,0.805664
-1.62811,0.808716
-1.63116,0.80719
-1.63879,0.80719
-1.64948,0.810242
-1.65253,0.80719
-1.66168,0.80719
-1.66931,0.804138
-1.67847,0.811768
-1.68762,0.810242
-1.69678,0.808716
-1.70441,0.805664
-1.71356,0.810242
-1.72272,0.80719
-1.7334,0.810242
-1.74255,0.810242
-1.75323,0.808716
-1.75934,0.805664
-1.77155,0.80719
-1.77765,0.808716
-1.7868,0.808716
-1.79291,0.805664
-1.79901,0.80719
-1.80969,0.808716
-1.81732,0.811768
-1.82343,0.808716
-1.83105,0.805664
-1.83563,0.80719
-1.83868,0.810242
-1.84784,0.810242
-1.85089,0.808716
-1.85242,0.808716
-1.85547,0.80719
-1.85852,0.808716
-1.86005,0.808716
-1.86157,0.80719
-1.8631,0.80719
-1.86768,0.805664
-1.86768,0.810242
-1.86768,0.808716
-1.86768,0.80719
-1.86768,0.808716
-1.8692,0.80719
-1.86462,0.810242
-1.86462,0.810242
-1.8631,0.80719
-1.8631,0.80719
-1.86005,0.805664
-1.86005,0.80719
-1.86005,0.808716
-1.86005,0.810242
-1.8631,0.805664
-1.8631,0.805664
-1.86157,0.808716
-1.86157,0.811768
-1.8631,0.808716
-1.8631,0.804138
-1.87225,0.80719
-1.87073,0.808716
-1.87378,0.811768
-1.87683,0.810242
-1.88141,0.810242
-1.88293,0.805664
-1.88599,0.811768
-1.89056,0.808716
-1.89972,0.808716
-1.90277,0.805664
-1.90735,0.80719
-1.91193,0.808716
-1.9165,0.810242
-1.92413,0.808716
-1.93329,0.808716
-1.93939,0.80719
-1.94244,0.808716
-1.95313,0.811768
-1.95618,0.810242
-1.96686,0.811768
-1.97449,0.804138
-1.97754,0.80719
-1.98822,0.80719
-1.99432,0.810242
-2.00348,0.80719
-2.01263,0.804138
-2.01721,0.805664
-2.02484,0.810242
-2.03552,0.810242
-2.04315,0.80719
-2.05231,0.808716
-2.06299,0.80719
-2.07062,0.810242
-2.07977,0.80719
-2.09045,0.804138
-2.09656,0.80719
-2.10419,0.808716
-2.11182,0.811768
-2.12555,0.808716
-2.13318,0.80719
-2.13928,0.805664
-2.14386,0.805664
-2.15607,0.810242
-2.16217,0.808716
-2.17133,0.80719
-2.17438,0.80719
-2.18048,0.808716
-2.18811,0.80719
-2.19574,0.80719
-2.2049,0.80719
-2.21405,0.805664
-2.21863,0.80719
-2.22473,0.811768
-2.23083,0.80719
-2.23846,0.808716
-2.24762,0.80719
-2.25067,0.80719
-2.2583,0.810242
-2.26288,0.80719
-2.26593,0.805664
-2.27509,0.808716
-2.28271,0.808716
-2.28882,0.813293
-2.29187,0.808716
-2.29645,0.808716
-2.3056,0.80719
-2.31171,0.80719
-2.31781,0.810242
-2.32239,0.810242
-2.32697,0.80719
-2.33459,0.808716
-2.33612,0.80719
-2.34528,0.810242
-2.34833,0.808716
-2.35138,0.80719
-2.35596,0.804138
-2.36359,0.808716
-2.36969,0.811768
-2.37579,0.811768
-2.37885,0.808716
-2.3819,0.808716
-2.39105,0.808716
-2.39563,0.808716
-2.39563,0.810242
-2.40173,0.808716
-2.40631,0.80719
-2.41547,0.80719
-2.41547,0.810242
-2.4231,0.811768
-2.42767,0.808716
-2.43073,0.804138
-2.4353,0.808716
-2.43835,0.811768
-2.44141,0.811768
-2.44751,0.80719
-2.44598,0.80719
-2.45361,0.808716
-2.45819,0.813293
-2.46277,0.808716
-2.46429,0.80719
-2.4704,0.80719
-2.4765,0.80719
-2.4826,0.808716
-2.48413,0.808716
-2.48718,0.808716
-2.49329,0.80719
-2.49481,0.80719
-2.50092,0.808716
-2.50549,0.810242
-2.50702,0.810242
-2.5116,0.808716
-2.51465,0.811768
-2.51617,0.810242
-2.5177,0.80719
-2.51465,0.808716
-2.5116,0.80719
-2.50702,0.80719
-2.49329,0.811768
-2.47803,0.808716
-2.46887,0.80719
-2.44904,0.804138
-2.42767,0.80719
-2.40936,0.808716
-2.3819,0.810242
-2.35596,0.808716
-2.32544,0.808716
-2.29645,0.811768
-2.26746,0.808716
-2.23389,0.808716
-2.20032,0.805664
-2.16827,0.80719
-2.13013,0.808716
-2.09351,0.811768
-2.05994,0.808716
-2.02637,0.80719
-1.98517,0.808716
-1.9516,0.808716
-1.9165,0.810242
-1.88141,0.811768
-1.84631,0.805664
-1.80817,0.805664
-1.77765,0.805664
-1.74561,0.811768
-1.71814,0.811768
-1.68915,0.805664
-1.66016,0.80719
-1.63116,0.80719
-1.61133,0.80719
-1.58691,0.80719
-1.56708,0.805664
-1.55029,0.805664
-1.53656,0.808716
-1.51978,0.808716
-1.50452,0.810242
-1.49231,0.80719
-1.48163,0.805664
-1.47095,0.811768
-1.46484,0.810242
-1.46027,0.808716
-1.45264,0.80719
-1.44806,0.808716
-1.44501,0.808716
-1.44196,0.808716
-1.44043,0.80719
-1.44196,0.80719
-1.44196,0.808716
-1.44196,0.808716
-1.44348,0.811768
-1.44196,0.810242
-1.44653,0.80719
-1.44958,0.805664
-1.45111,0.808716
-1.45264,0.808716
-1.45721,0.80719
-1.46027,0.805664
-1.4679,0.80719
-1.47095,0.805664
-1.474,0.810242
-1.4801,0.80719
-1.48163,0.805664
-1.48773,0.80719
-1.49384,0.811768
-1.49994,0.810242
-1.50452,0.808716
-1.51062,0.808716
-1.51978,0.80719
-1.52588,0.80719
-1.53046,0.808716
-1.53656,0.80719
-1.54266,0.80719
-1.55029,0.804138
-1.55334,0.80719
-1.55792,0.811768
-1.5686,0.808716
-1.57471,0.808716
-1.57776,0.80719
-1.58386,0.810242
-1.58844,0.808716
-1.59149,0.808716
-1.5976,0.80719
-1.59912,0.801086
-1.60065,0.808716
-1.60217,0.811768
-1.60675,0.808716
-1.60675,0.80719
-1.60828,0.805664
-1.6098,0.805664
-1.60675,0.810242
-1.60675,0.808716
-1.60828,0.80719
-1.60675,0.80719
-1.6037,0.808716
-1.60522,0.810242
-1.60675,0.808716
-1.60522,0.805664
-1.60675,0.808716
-1.60675,0.808716
-1.60675,0.810242
-1.61133,0.808716
-1.6098,0.80719
-1.60828,0.810242
-1.6098,0.80719
-1.6098,0.811768
-1.61133,0.80719
-1.61133,0.80719
-1.6098,0.805664
-1.60828,0.80719
-1.61133,0.811768
-1.61133,0.808716
-1.61591,0.805664
-1.61591,0.80719
-1.62201,0.80719
-1.62201,0.808716
-1.62659,0.80719
-1.62811,0.805664
-1.63269,0.80719
-1.64032,0.80719
-1.64795,0.808716
-1.651,0.80719
-1.6571,0.805664
-1.66473,0.808716
-1.67084,0.808716
-1.67999,0.813293
-1.68457,0.808716
-1.69373,0.80719
-1.6983,0.805664
-1.70593,0.810242
-1.71509,0.808716
-1.72424,0.810242
-1.7334,0.80719
-1.73645,0.805664
-1.74713,0.810242
-1.75323,0.810242
-1.76086,0.805664
-1.77155,0.805664
-1.77765,0.804138
-1.78833,0.808716
-1.79596,0.808716
-1.80359,0.810242
-1.81274,0.805664
-1.82037,0.808716
-1.828,0.80719
-1.83868,0.811768
-1.84784,0.808716
-1.85089,0.805664
-1.86157,0.805664
-1.86768,0.80719
-1.87683,0.80719
-1.88141,0.808716
-1.89056,0.804138
-1.89819,0.804138
-1.90887,0.80719
-1.91498,0.808716
-1.92413,0.80719
-1.93024,0.808716
-1.93939,0.801086
-1.94397,0.810242
-1.9516,0.808716
-1.9577,0.808716
-1.96686,0.804138
-1.97449,0.805664
-1.98059,0.808716
-1.98669,0.810242
-1.99432,0.805664
-2.00348,0.805664
-2.01263,0.805664
-2.01569,0.808716
-2.02789,0.810242
-2.02942,0.80719
-2.03705,0.805664
-2.04315,0.805664
-2.0462,0.810242
-2.05688,0.810242
-2.05841,0.805664
-2.06757,0.805664
-2.07062,0.810242
-2.07977,0.805664
-2.08435,0.810242
-2.09045,0.808716
-2.09656,0.804138
-2.10114,0.805664
-2.10724,0.805664
-2.11182,0.805664
-2.11639,0.808716
-2.1225,0.805664
-2.1286,0.80719
-2.13318,0.808716
-2.13776,0.808716
-2.14386,0.80719
-2.14691,0.804138
-2.15607,0.805664
-2.16064,0.805664
-2.16827,0.80719
-2.16827,0.808716
-2.17438,0.805664
-2.17743,0.805664
-2.18658,0.808716
-2.18964,0.80719
-2.19421,0.80719
-2.19879,0.805664
-2.20032,0.80719
-2.20642,0.804138
-2.21558,0.805664
-2.21863,0.808716
-2.22473,0.804138
-2.22931,0.804138
-2.23083,0.80719
-2.23541,0.805664
-2.23999,0.805664
-2.24762,0.805664
-2.2522,0.801086
-2.2583,0.80719
-2.26593,0.801086
-2.26898,0.804138
-2.27509,0.804138
-2.28424,0.808716
-2.29034,0.805664
-2.29645,0.804138
-2.30103,0.80719
-2.30713,0.805664
-2.31323,0.804138
-2.31781,0.808716
-2.32391,0.805664
-2.33154,0.80719
-2.33612,0.804138
-2.34528,0.808716
-2.34833,0.80719
-2.35443,0.80719
-2.36206,0.80719
-2.36969,0.80719
-2.37732,0.805664
-2.3819,0.805664
-2.38647,0.805664
-2.3941,0.804138
-2.40173,0.805664
-2.40936,0.804138
-2.41699,0.810242
-2.4231,0.805664
-2.43225,0.805664
-2.43988,0.804138
-2.44598,0.804138
-2.45514,0.80719
-2.46277,0.805664
-2.46887,0.805664
-2.47803,0.801086
-2.4826,0.805664
-2.48413,0.805664
-2.48871,0.810242
-2.49329,0.804138
-2.49176,0.805664
-2.49634,0.801086
-2.49329,0.80719
-2.48413,0.805664
-2.4765,0.805664
-2.46735,0.799561
-2.45209,0.801086
-2.4353,0.80719
-2.41394,0.80719
-2.39716,0.804138
-2.36969,0.801086
-2.34833,0.804138
-2.32239,0.80719
-2.2934,0.805664
-2.26593,0.805664
-2.23846,0.804138
-2.20795,0.799561
-2.17438,0.805664
-2.14233,0.805664
-2.10876,0.804138
-2.0752,0.804138
-2.04468,0.804138
-2.01111,0.805664
-1.97906,0.804138
-1.9455,0.804138
-1.9165,0.801086
-1.88599,0.801086
-1.85852,0.805664
-1.828,0.805664
-1.80359,0.804138
-1.7746,0.804138
-1.75018,0.799561
-1.72577,0.80719
-1.70441,0.808716
-1.68457,0.801086
-1.66779,0.805664
-1.651,0.801086
-1.63879,0.801086
-1.62201,0.805664
-1.61438,0.799561
-1.6037,0.801086
-1.59454,0.799561
-1.58691,0.804138
-1.57776,0.801086
-1.57623,0.804138
-1.57013,0.801086
-1.56403,0.801086
-1.56097,0.804138
-1.55945,0.805664
-1.55945,0.804138
-1.5564,0.804138
-1.55487,0.804138
-1.55792,0.805664
-1.55792,0.80719
-1.55945,0.799561
-1.56097,0.805664
-1.56097,0.801086
-1.56403,0.804138
-1.56555,0.804138
-1.56708,0.804138
-1.57013,0.801086
-1.57471,0.801086
-1.57471,0.804138
-1.57928,0.80719
-1.58386,0.804138
-1.58691,0.801086
-1.58997,0.799561
-1.59607,0.805664
-1.5976,0.805664
-1.60522,0.804138
-1.61133,0.805664
-1.61896,0.801086
-1.62506,0.805664
-1.62811,0.804138
-1.63727,0.804138
-1.64032,0.801086
-1.64795,0.798035
-1.65253,0.805664
-1.66016,0.80719
-1.66626,0.801086
-1.67084,0.799561
-1.67847,0.804138
-1.68457,0.799561
-1.68457,0.805664
-1.68762,0.804138
-1.69525,0.801086
-1.6983,0.801086
-1.69983,0.804138
-1.70898,0.805664
-1.71051,0.804138
-1.71509,0.801086
-1.71509,0.798035
-1.71814,0.801086
-1.72119,0.801086
-1.72119,0.805664
-1.72424,0.799561
-1.72729,0.801086
-1.72882,0.801086
-1.73187,0.805664
-1.73035,0.801086
-1.7334,0.798035
-1.73035,0.801086
-1.7334,0.799561
-1.73492,0.805664
-1.73645,0.801086
-1.73492,0.805664
-1.73645,0.799561
-1.73645,0.799561
-1.74255,0.805664
-1.74255,0.804138
-1.74408,0.799561
-1.74713,0.801086
-1.74866,0.799561
-1.75323,0.804138
-1.75781,0.799561
-1.75934,0.804138
-1.76544,0.796509
-1.76544,0.804138
-1.76849,0.801086
-1.7746,0.801086
-1.77917,0.796509
-1.78223,0.799561
-1.78528,0.799561
-1.79291,0.805664
-1.79749,0.805664
-1.80664,0.798035
-1.81427,0.798035
-1.81885,0.799561
-1.8219,0.801086
-1.83258,0.805664
-1.83716,0.798035
-1.84326,0.799561
-1.85089,0.796509
-1.85699,0.805664
-1.86462,0.801086
-1.87225,0.799561
-1.88293,0.801086
-1.89056,0.799561
-1.89819,0.801086
-1.9043,0.801086
-1.91193,0.801086
-1.92261,0.799561
-1.93024,0.798035
-1.93787,0.804138
-1.94702,0.804138
-1.95465,0.801086
-1.96686,0.799561
-1.97296,0.799561
-1.98059,0.801086
-1.98822,0.804138
-1.99585,0.799561
-2.005,0.799561
-2.01416,0.801086
-2.01874,0.805664
-2.02637,0.799561
-2.03552,0.801086
-2.04315,0.799561
-2.05078,0.798035
-2.05688,0.804138
-2.06299,0.805664
-2.07062,0.798035
-2.07825,0.799561
-2.0813,0.799561
-2.08893,0.799561
-2.09808,0.799561
-2.10419,0.794983
-2.11029,0.801086
-2.12097,0.801086
-2.12402,0.799561
-2.13013,0.798035
-2.13776,0.796509
-2.14081,0.799561
-2.15149,0.799561
-2.15454,0.805664
-2.16064,0.799561
-2.16827,0.799561
-2.17285,0.799561
-2.17743,0.798035
-2.17896,0.804138
-2.18964,0.798035
-2.19574,0.798035
-2.20184,0.796509
-2.20795,0.798035
-2.21405,0.799561
-2.2171,0.804138
-2.22626,0.799561
-2.22626,0.796509
-2.23083,0.796509
-2.23541,0.799561
-2.23846,0.801086
-2.24304,0.801086
-2.25067,0.798035
-2.25372,0.799561
-2.25525,0.801086
-2.26135,0.799561
-2.26746,0.798035
-2.27051,0.799561
-2.27356,0.798035
-2.27966,0.801086
-2.28729,0.798035
-2.2934,0.796509
-2.29492,0.796509
-2.2995,0.799561
-2.30408,0.805664
-2.31018,0.796509
-2.31628,0.798035
-2.32391,0.798035
-2.32849,0.799561
-2.33459,0.801086
-2.34222,0.801086
-2.34375,0.799561
-2.35138,0.798035
-2.35443,0.798035
-2.36206,0.799561
-2.36511,0.799561
-2.37427,0.801086
-2.37579,0.799561
-2.3819,0.799561
-2.388,0.801086
-2.3941,0.801086
-2.3941,0.798035
-2.40021,0.799561
-2.40631,0.798035
-2.41089,0.799561
-2.41699,0.799561
-2.4231,0.799561
-2.4231,0.796509
-2.4292,0.798035
-2.43683,0.801086
-2.43988,0.798035
-2.44446,0.798035
-2.45209,0.799561
-2.45361,0.798035
-2.45819,0.801086
-2.46429,0.801086
-2.4704,0.799561
-2.47498,0.794983
-2.48108,0.796509
-2.48718,0.801086
-2.49634,0.801086
-2.50244,0.796509
-2.50397,0.796509
-2.5116,0.799561
-2.51465,0.801086
-2.51923,0.799561
-2.52533,0.798035
-2.52838,0.799561
-2.53448,0.799561
-2.54364,0.804138
-2.54974,0.799561
-2.55127,0.799561
-2.5528,0.798035
-2.56348,0.799561
-2.56653,0.801086
-2.56958,0.799561
-2.57721,0.799561
-2.58331,0.796509
-2.58789,0.801086
-2.58942,0.804138
-2.59094,0.799561
-2.59552,0.799561
-2.59552,0.796509
-2.58789,0.801086
-2.58484,0.804138
-2.57721,0.804138
-2.56958,0.804138
-2.55737,0.799561
-2.54364,0.798035
-2.5238,0.804138
-2.51007,0.804138
-2.48718,0.799561
-2.46887,0.794983
-2.44446,0.801086
-2.4231,0.799561
-2.39868,0.801086
-2.37427,0.799561
-2.3468,0.798035
-2.31934,0.804138
-2.29034,0.805664
-2.26593,0.805664
-2.23846,0.801086
-2.20947,0.804138
-2.18353,0.799561
-2.15607,0.799561
-2.13013,0.799561
-2.10266,0.799561
-2.07825,0.799561
-2.05078,0.798035
-2.03094,0.799561
-2.01111,0.801086
-1.98669,0.799561
-1.96686,0.798035
-1.9455,0.801086
-1.93024,0.801086
-1.91193,0.801086
-1.89514,0.801086
-1.88293,0.799561
-1.8692,0.805664
-1.85699,0.805664
-1.84631,0.801086
-1.83868,0.801086
-1.82495,0.798035
-1.82037,0.799561
-1.8158,0.801086
-1.81122,0.804138
-1.80817,0.798035
-1.80511,0.801086
-1.80359,0.799561
-1.79749,0.799561
-1.80054,0.804138
-1.79749,0.801086
-1.80054,0.801086
-1.79901,0.799561
-1.80359,0.804138
-1.80511,0.80719
-1.80664,0.804138
-1.80969,0.799561
-1.80969,0.799561
-1.81274,0.804138
-1.81732,0.804138
-1.81885,0.801086
-1.8219,0.804138
-1.82648,0.799561
-1.82953,0.804138
-1.83105,0.804138
-1.83868,0.799561
-1.84326,0.799561
-1.84784,0.801086
-1.85547,0.805664
-1.85852,0.805664
-1.8631,0.801086
-1.8692,0.799561
-1.87378,0.801086
-1.87988,0.804138
-1.88599,0.804138
-1.89209,0.804138
-1.89514,0.799561
-1.89362,0.801086
-1.90277,0.804138
-1.9043,0.804138
-1.91193,0.801086
-1.9165,0.804138
-1.9165,0.804138
-1.92261,0.805664
-1.92261,0.805664
-1.92719,0.805664
-1.92719,0.801086
-1.93024,0.801086
-1.92719,0.805664
-1.93329,0.805664
-1.93481,0.805664
-1.93481,0.804138
-1.93634,0.801086
-1.93634,0.805664
-1.93634,0.804138
-1.93481,0.801086
-1.93481,0.801086
-1.93329,0.801086
-1.93329,0.805664
-1.93481,0.80719
-1.93329,0.804138
-1.93329,0.805664
-1.93329,0.805664
-1.93481,0.805664
-1.93024,0.808716
-1.93176,0.804138
-1.93024,0.804138
-1.93024,0.801086
-1.93024,0.808716
-1.93024,0.80719
-1.93176,0.80719
-1.93634,0.805664
-1.93481,0.805664
-1.93481,0.80719
-1.93481,0.805664
-1.93481,0.804138
-1.93939,0.804138
-1.93939,0.805664
-1.94244,0.80719
-1.94244,0.80719
-1.9455,0.805664
-1.94702,0.804138
-1.95007,0.805664
-1.95465,0.80719
-1.95923,0.80719
-1.9577,0.804138
-1.96686,0.804138
-1.96991,0.805664
-1.97296,0.808716
-1.97754,0.80719
-1.98059,0.804138
-1.98364,0.804138
-1.98669,0.80719
-1.9928,0.805664
-1.99738,0.808716
-2.00195,0.804138
-2.00653,0.805664
-2.00806,0.808716
-2.01111,0.805664
-2.01721,0.80719
-2.02026,0.80719
-2.02942,0.805664
-2.03094,0.805664
-2.03552,0.805664
-2.03857,0.811768
-2.0462,0.805664
-2.05231,0.804138
-2.05383,0.80719
-2.06451,0.805664
-2.06757,0.810242
-2.07214,0.805664
-2.07977,0.80719
-2.0813,0.80719
-2.08893,0.808716
-2.09198,0.810242
-2.09656,0.808716
-2.10266,0.804138
-2.10571,0.805664
-2.10876,0.808716
-2.11487,0.808716
-2.11945,0.810242
-2.12555,0.804138
-2.13013,0.80719
-2.13623,0.805664
-2.14233,0.811768
-2.14539,0.808716
-2.15149,0.804138
-2.15759,0.80719
-2.16217,0.808716
-2.16522,0.808716
-2.17285,0.805664
-2.17438,0.801086
-2.17743,0.80719
-2.18506,0.810242
-2.18506,0.808716
-2.19421,0.80719
-2.19421,0.805664
-2.20032,0.80719
-2.2049,0.80719
-2.2049,0.808716
-2.20795,0.805664
-2.21405,0.805664
-2.21405,0.808716
-2.21863,0.805664
-2.22321,0.808716
-2.22626,0.808716
-2.23083,0.808716
-2.23083,0.80719
-2.23389,0.80719
-2.23389,0.810242
-2.23846,0.810242
-2.24152,0.805664
-2.24915,0.808716
-2.24915,0.810242
-2.25067,0.808716
-2.25372,0.80719
-2.2583,0.80719
-2.25983,0.80719
-2.26288,0.80719
-2.26898,0.80719
-2.26898,0.808716
-2.27356,0.805664
-2.27509,0.808716
-2.27814,0.810242
-2.28577,0.808716
-2.28424,0.808716
-2.28729,0.808716
-2.28882,0.805664
-2.2934,0.808716
-2.29492,0.810242
-2.29797,0.810242
-2.30255,0.804138
-2.30408,0.810242
-2.30713,0.808716
-2.31018,0.810242
-2.31476,0.808716
-2.31628,0.805664
-2.32086,0.808716
-2.32391,0.808716
-2.32697,0.808716
-2.33154,0.811768
-2.33612,0.808716
-2.34222,0.808716
-2.3468,0.810242
-2.34528,0.811768
-2.35291,0.808716
-2.35748,0.805664
-2.36053,0.810242
-2.36359,0.808716
-2.36816,0.808716
-2.37427,0.808716
-2.37885,0.80719
-2.38342,0.805664
-2.38647,0.808716
-2.388,0.811768
-2.3941,0.810242
-2.39868,0.80719
-2.39868,0.80719
-2.41089,0.810242
-2.41394,0.810242
-2.40936,0.808716
-2.41241,0.80719
-2.40936,0.808716
-2.40479,0.810242
-2.39868,0.810242
-2.38953,0.808716
-2.38037,0.805664
-2.36664,0.810242
-2.34985,0.810242
-2.33612,0.811768
-2.31934,0.810242
-2.2995,0.805664
-2.28119,0.808716
-2.2583,0.810242
-2.23389,0.810242
-2.20795,0.811768
-2.18658,0.80719
-2.16217,0.808716
-2.13623,0.813293
-2.11334,0.810242
-2.08588,0.810242
-2.06299,0.805664
-2.03552,0.808716
-2.01416,0.810242
-1.98822,0.808716
-1.96533,0.80719
-1.94397,0.808716
-1.91803,0.80719
-1.89819,0.813293
-1.87683,0.810242
-1.8631,0.810242
-1.84174,0.810242
-1.828,0.80719
-1.80969,0.810242
-1.79596,0.810242
-1.78375,0.80719
-1.77307,0.808716
-1.75934,0.811768
-1.75171,0.808716
-1.74255,0.808716
-1.7334,0.811768
-1.72729,0.805664
-1.72119,0.808716
-1.71814,0.810242
-1.71356,0.80719
-1.71051,0.810242
-1.70441,0.810242
-1.70288,0.808716
-1.70135,0.808716
-1.70288,0.808716
-1.70288,0.808716
-1.70288,0.80719
-1.70288,0.80719
-1.70288,0.813293
-1.70898,0.80719
-1.70898,0.810242
-1.71051,0.80719
-1.71661,0.808716
-1.71814,0.811768
-1.72119,0.810242
-1.72577,0.808716
-1.72882,0.80719
-1.73492,0.80719
-1.73798,0.810242
-1.74255,0.80719
-1.75171,0.80719
-1.75476,0.808716
-1.75934,0.808716
-1.76239,0.810242
-1.76849,0.810242
-1.77612,0.80719
-1.7807,0.80719
-1.78223,0.808716
-1.78833,0.808716
-1.79443,0.808716
-1.79443,0.80719
-1.79901,0.80719
-1.80359,0.808716
-1.80969,0.811768
-1.81122,0.810242
-1.81274,0.80719
-1.8158,0.80719
-1.81885,0.810242
-1.8219,0.808716
-1.8219,0.810242
-1.82495,0.80719
-1.82495,0.808716
-1.82495,0.808716
-1.82648,0.808716
-1.82495,0.808716
-1.82495,0.80719
-1.82648,0.80719
-1.828,0.808716
-1.82495,0.808716
-1.82495,0.808716
-1.82343,0.805664
-1.8219,0.804138
-1.82343,0.808716
-1.82037,0.80719
-1.81885,0.808716
-1.8219,0.808716
-1.81885,0.799561
-1.82037,0.80719
-1.81885,0.808716
-1.8219,0.814819
-1.8219,0.80719
-1.8219,0.804138
-1.82037,0.805664
-1.81732,0.808716
-1.8219,0.808716
-1.81885,0.805664
-1.8219,0.808716
-1.82343,0.808716
-1.82343,0.80719
-1.82648,0.810242
-1.82648,0.808716
-1.83105,0.808716
-1.83105,0.808716
-1.83868,0.80719
-1.84479,0.80719
-1.84631,0.80719
-1.85242,0.810242
-1.85547,0.80719
-1.85852,0.810242
-1.86462,0.80719
-1.87378,0.808716
-1.87836,0.805664
-1.88141,0.805664
-1.88599,0.811768
-1.89362,0.811768
-1.89819,0.805664
-1.9043,0.805664
-1.91193,0.805664
-1.91803,0.80719
-1.92261,0.810242
-1.92719,0.808716
-1.93481,0.804138
-1.94092,0.804138
-1.9455,0.810242
-1.95465,0.810242
-1.95923,0.80719
-1.96381,0.805664
-1.97144,0.805664
-1.97754,0.80719
-1.98212,0.808716
-1.98669,0.80719
-1.99432,0.80719
-2.00195,0.80719
-2.00348,0.810242
-2.00958,0.808716
-2.01569,0.80719
-2.02026,0.805664
-2.02942,0.80719
-2.03552,0.80719
-2.03705,0.80719
-2.04468,0.80719
-2.04926,0.801086
-2.05231,0.805664
-2.05994,0.810242
-2.06757,0.808716
-2.06757,0.805664
-2.07367,0.805664
-2.0752,0.808716
-2.08282,0.808716
-2.08588,0.80719
-2.09503,0.805664
-2.09808,0.80719
-2.10571,0.805664
-2.11182,0.810242
-2.11487,0.810242
-2.12097,0.80719
-2.12708,0.805664
-2.1286,0.804138
-2.13165,0.80719
-2.13776,0.80719
-2.13776,0.808716
-2.14539,0.804138
-2.14691,0.805664
-2.15454,0.810242
-2.15454,0.808716
-2.15912,0.805664
-2.16217,0.805664
-2.1637,0.805664
-2.16827,0.80719
-2.17285,0.808716
-2.17438,0.805664
-2.17743,0.801086
-2.18353,0.80719
-2.18353,0.808716
-2.19269,0.808716
-2.19421,0.805664
-2.19727,0.805664
-2.20337,0.805664
-2.20184,0.80719
-2.20795,0.80719
-2.20947,0.805664
-2.2171,0.805664
-2.22015,0.804138
-2.22473,0.80719
-2.22473,0.808716
-2.22931,0.805664
-2.23389,0.804138
-2.23541,0.80719
-2.23846,0.80719
-2.24152,0.810242
-2.24915,0.808716
-2.2522,0.804138
-2.25677,0.805664
-2.25983,0.804138
-2.2644,0.808716
-2.26593,0.801086
-2.27203,0.805664
-2.27966,0.799561
-2.28424,0.805664
-2.28729,0.80719
-2.29034,0.805664
-2.29645,0.799561
-2.3056,0.804138
-2.30713,0.808716
-2.31323,0.808716
-2.31628,0.805664
-2.32697,0.805664
-2.32697,0.805664
-2.33154,0.80719
-2.33459,0.80719
-2.34222,0.805664
-2.3468,0.804138
-2.35443,0.801086
-2.35748,0.80719
-2.36206,0.808716
-2.36969,0.799561
-2.37579,0.804138
-2.38495,0.808716
-2.388,0.808716
-2.39563,0.808716
-2.39563,0.805664
-2.40631,0.801086
-2.41089,0.805664
-2.41394,0.804138
-2.42004,0.80719
-2.42004,0.805664
-2.42462,0.80719
-2.4231,0.801086
-2.42462,0.80719
-2.42462,0.808716
-2.41852,0.799561
-2.41241,0.805664
-2.40479,0.801086
-2.39563,0.805664
-2.3819,0.810242
-2.36969,0.801086
-2.35748,0.799561
-2.34375,0.805664
-2.32391,0.805664
-2.3056,0.808716
-2.28729,0.804138
-2.26746,0.801086
-2.25067,0.799561
-2.23083,0.805664
-2.211,0.808716
-2.19116,0.804138
-2.17285,0.794983
-2.14844,0.804138
-2.13165,0.804138
-2.10876,0.805664
-2.09198,0.804138
-2.07367,0.804138
-2.05383,0.801086
-2.04163,0.805664
-2.02179,0.804138
-2.00958,0.805664
-1.9989,0.805664
-1.98364,0.804138
-1.97144,0.805664
-1.95923,0.804138
-1.95313,0.80719
-1.94092,0.798035
-1.93329,0.805664
-1.92108,0.805664
-1.92108,0.804138
-1.91193,0.804138
-1.9104,0.808716
-1.90277,0.804138
-1.89972,0.805664
-1.89362,0.799561
-1.89056,0.799561
-1.88751,0.804138
-1.88599,0.80719
-1.88446,0.804138
-1.87988,0.804138
-1.88599,0.799561
-1.88293,0.801086
-1.88141,0.801086
-1.87988,0.805664
-1.88141,0.801086
-1.88446,0.801086
-1.88141,0.801086
-1.88293,0.799561
-1.88446,0.801086
-1.88599,0.805664
-1.88904,0.801086
-1.88904,0.799561
-1.88904,0.798035
-1.89362,0.804138
-1.89514,0.804138
-1.90125,0.805664
-1.9043,0.799561
-1.90735,0.804138
-1.90887,0.805664
-1.91193,0.804138
-1.91803,0.804138
-1.91956,0.804138
-1.92108,0.805664
-1.92413,0.804138
-1.93176,0.80719
-1.93481,0.801086
-1.93787,0.798035
-1.93787,0.799561
-1.94397,0.804138
-1.9455,0.804138
-1.94855,0.805664
-1.94855,0.799561
-1.95007,0.801086
-1.95313,0.801086
-1.95618,0.801086
-1.9577,0.801086
-1.96228,0.801086
-1.96381,0.799561
-1.96381,0.801086
-1.96991,0.804138
-1.96838,0.801086
-1.96838,0.805664
-1.97144,0.801086
-1.97296,0.801086
-1.96991,0.801086
-1.97144,0.799561
-1.97296,0.796509
-1.97144,0.799561
-1.97296,0.804138
-1.97296,0.805664
-1.96991,0.801086
-1.97296,0.799561
-1.97601,0.798035
-1.97144,0.799561
-1.96838,0.801086
-1.97296,0.801086
-1.97296,0.798035
-1.97144,0.801086
-1.97296,0.799561
-1.97449,0.804138
-1.97754,0.799561
-1.97754,0.798035
-1.97449,0.798035
-1.97449,0.798035
-1.98364,0.801086
-1.98364,0.798035
-1.98517,0.798035
-1.98669,0.801086
-1.98669,0.804138
-1.9928,0.801086
-1.9928,0.799561
-1.9989,0.798035
-2.00348,0.801086
-2.00653,0.801086
-2.00958,0.801086
-2.01111,0.801086
-2.01416,0.801086
-2.01721,0.804138
-2.01874,0.801086
-2.02484,0.804138
-2.02789,0.801086
-2.034,0.798035
-2.03705,0.799561
-2.04163,0.804138
-2.0462,0.804138
-2.04773,0.804138
-2.05383,0.799561
-2.05688,0.799561
-2.06299,0.799561
-2.06299,0.801086
-2.07062,0.801086
-2.07062,0.798035
-2.0752,0.801086
-2.07825,0.804138
-2.08282,0.805664
-2.09198,0.801086
-2.09351,0.796509
-2.09961,0.799561
-2.09961,0.801086
-2.10419,0.804138
-2.10876,0.796509
-2.11487,0.798035
-2.11487,0.799561
-2.12097,0.801086
-2.1225,0.801086
-2.13013,0.799561
-2.13318,0.796509
-2.13623,0.799561
-2.13776,0.804138
-2.14539,0.804138
-2.14691,0.804138
-2.15149,0.798035
-2.15607,0.799561
-2.16064,0.799561
-2.1637,0.804138
-2.16675,0.798035
-2.17285,0.799561
-2.1759,0.804138
-2.17896,0.805664
-2.18048,0.801086
-2.18811,0.798035
-2.19116,0.798035
-2.19269,0.798035
-2.19879,0.798035
-2.20337,0.801086
-2.20337,0.799561
-2.2049,0.799561
-2.211,0.799561
-2.21558,0.799561
-2.22015,0.801086
-2.22321,0.799561
-2.22626,0.796509
-2.23083,0.799561
-2.23389,0.801086
-2.23694,0.799561
-2.24152,0.801086
-2.24609,0.799561
-2.24304,0.801086
-2.24915,0.799561
-2.25067,0.804138
-2.2583,0.798035
-2.2583,0.794983
-2.26288,0.799561
-2.26593,0.798035
-2.27356,0.799561
-2.27356,0.799561
-2.28119,0.798035
-2.28271,0.798035
-2.28729,0.798035
-2.29034,0.799561
-2.29645,0.799561
-2.29645,0.798035
-2.30103,0.798035
-2.30408,0.799561
-2.30713,0.804138
-2.31323,0.798035
-2.31781,0.798035
-2.31781,0.799561
-2.32086,0.799561
-2.32391,0.799561
-2.32697,0.799561
-2.33002,0.793457
-2.33002,0.794983
-2.33459,0.801086
-2.33765,0.805664
-2.34222,0.799561
-2.34528,0.794983
-2.34833,0.799561
-2.35138,0.801086
-2.35443,0.798035
-2.35596,0.799561
-2.35901,0.798035
-2.36359,0.796509
-2.36816,0.799561
-2.37579,0.799561
-2.37427,0.798035
-2.38037,0.794983
-2.38342,0.799561
-2.38953,0.799561
-2.38953,0.801086
-2.39563,0.798035
-2.39716,0.794983
-2.40173,0.801086
-2.40479,0.804138
-2.40936,0.801086
-2.41394,0.798035
-2.41547,0.794983
-2.42157,0.799561
-2.42157,0.801086
-2.42615,0.799561
-2.42615,0.798035
-2.43073,0.796509
-2.43835,0.799561
-2.44141,0.804138
-2.44446,0.801086
-2.44751,0.799561
-2.45361,0.796509
-2.45667,0.799561
-2.46124,0.804138
-2.46735,0.799561
-2.4704,0.799561
-2.47192,0.796509
-2.47345,0.798035
-2.47955,0.799561
-2.4826,0.801086
-2.48718,0.798035
-2.48871,0.796509
-2.49481,0.798035
-2.49939,0.798035
-2.50092,0.798035
-2.50702,0.798035
-2.50854,0.799561
-2.51617,0.798035
-2.51923,0.799561
-2.52228,0.796509
-2.53143,0.799561
-2.53143,0.798035
-2.53143,0.793457
-2.53601,0.798035
-2.53601,0.798035
-2.53754,0.799561
-2.53448,0.798035
-2.53601,0.798035
-2.53296,0.799561
-2.52686,0.796509
-2.52075,0.798035
-2.51617,0.794983
-2.51007,0.796509
-2.49634,0.799561
-2.48566,0.801086
-2.47345,0.794983
-2.45667,0.794983
-2.44141,0.798035
-2.42615,0.794983
-2.40631,0.798035
-2.38953,0.796509
-2.37427,0.794983
-2.35443,0.798035
-2.33002,0.799561
-2.31476,0.798035
-2.29034,0.796509
-2.27356,0.796509
-2.2583,0.796509
-2.23846,0.796509
-2.22168,0.798035
-2.2049,0.796509
-2.18964,0.793457
-2.17438,0.793457
-2.15912,0.796509
-2.14233,0.798035
-2.13165,0.798035
-2.12097,0.796509
-2.10724,0.798035
-2.09656,0.798035
-2.09045,0.799561
-2.07977,0.799561
-2.07062,0.794983
-2.06451,0.794983
-2.05994,0.793457
-2.04926,0.798035
-2.0462,0.799561
-2.04315,0.796509
-2.04163,0.796509
-2.03857,0.796509
-2.03094,0.798035
-2.03247,0.798035
-2.02942,0.796509
-2.02942,0.794983
-2.02637,0.798035
-2.02942,0.796509
-2.02789,0.796509
-2.02637,0.794983
-2.02789,0.796509
-2.02789,0.794983
-2.02942,0.799561
-2.02789,0.796509
-2.02637,0.793457
-2.02789,0.798035
-2.02637,0.794983
-2.02942,0.798035
-2.02637,0.798035
-2.02789,0.794983
-2.03094,0.798035
-2.02942,0.796509
-2.03094,0.799561
-2.034,0.794983
-2.03247,0.793457
-2.03857,0.794983
-2.04315,0.798035
-2.04163,0.796509
-2.04315,0.796509
-2.05078,0.791931
-2.05383,0.796509
-2.05383,0.796509
-2.06299,0.799561
-2.06451,0.794983
-2.06757,0.798035
-2.07062,0.793457
-2.06909,0.796509
-2.0752,0.796509
-2.07367,0.798035
-2.07367,0.794983
-2.07672,0.796509
-2.07825,0.798035
-2.07825,0.799561
-2.0813,0.798035
-2.07977,0.793457
-2.07977,0.793457
-2.07977,0.799561
-2.07825,0.798035
-2.07977,0.794983
-2.07672,0.796509
-2.07672,0.793457
-2.0752,0.794983
-2.07367,0.796509
-2.07367,0.799561
-2.07367,0.794983
-2.07214,0.793457
-2.06604,0.796509
-2.06909,0.798035
-2.07062,0.798035
-2.06757,0.793457
-2.06757,0.793457
-2.06604,0.796509
-2.06451,0.799561
-2.06451,0.794983
-2.05994,0.793457
-2.06299,0.791931
-2.05994,0.794983
-2.05688,0.794983
-2.05078,0.794983
-2.05383,0.793457
-2.05078,0.791931
-2.04773,0.794983
-2.04773,0.796509
-2.04773,0.798035
-2.04773,0.791931
-2.0462,0.793457
-2.04315,0.793457
-2.0462,0.798035
-2.04926,0.794983
-2.05078,0.794983
-2.04926,0.796509
-2.05078,0.793457
-2.05231,0.796509
-2.05383,0.794983
-2.05688,0.793457
-2.06146,0.794983
-2.06451,0.794983
-2.06604,0.796509
-2.06604,0.794983
-2.06909,0.794983
-2.07214,0.793457
-2.0752,0.791931
-2.07672,0.796509
-2.07825,0.793457
-2.08435,0.791931
-2.08588,0.794983
-2.09045,0.798035
-2.09351,0.798035
-2.09656,0.796509
-2.10266,0.794983
-2.10419,0.791931
-2.11029,0.794983
-2.11029,0.796509
-2.11487,0.794983
-2.11945,0.794983
-2.12402,0.793457
-2.12402,0.794983
-2.12555,0.796509
-2.1286,0.796509
-2.13318,0.791931
-2.13776,0.791931
-2.13928,0.796509
-2.14081,0.796509
-2.14081,0.794983
-2.14386,0.793457
-2.14691,0.794983
-2.15149,0.794983
-2.14844,0.794983
-2.15607,0.796509
-2.15607,0.794983
-2.15607,0.793457
-2.15759,0.796509
-2.16217,0.798035
-2.16675,0.798035
-2.16522,0.793457
-2.16675,0.794983
-2.1698,0.794983
-2.1759,0.794983
-2.17743,0.796509
-2.18048,0.791931
-2.18506,0.790405
-2.18506,0.794983
-2.18964,0.798035
-2.18964,0.793457
-2.19269,0.793457
-2.19421,0.793457
-2.19574,0.796509
-2.20032,0.796509
-2.20184,0.794983
-2.20642,0.794983
-2.20947,0.793457
-2.20947,0.794983
-2.2171,0.794983
-2.2171,0.793457
-2.22168,0.790405
-2.22168,0.791931
-2.22473,0.794983
-2.22778,0.796509
-2.23389,0.796509
-2.23083,0.793457
-2.23541,0.791931
-2.23541,0.791931
-2.24152,0.794983
-2.24152,0.794983
-2.24609,0.794983
-2.24915,0.791931
-2.24915,0.794983
-2.2522,0.796509
-2.25677,0.794983
-2.25983,0.794983
-2.2583,0.791931
-2.26135,0.793457
-2.26288,0.794983
-2.26135,0.796509
-2.26135,0.794983
-2.26593,0.794983
-2.26593,0.794983
-2.27203,0.793457
-2.27203,0.794983
-2.27966,0.791931
-2.28271,0.791931
-2.28424,0.793457
-2.28882,0.798035
-2.28882,0.794983
-2.29187,0.793457
-2.29187,0.791931
-2.29645,0.794983
-2.29797,0.794983
-2.2995,0.793457
-2.30408,0.793457
-2.3056,0.793457
-2.31171,0.796509
-2.31323,0.796509
-2.31628,0.793457
-2.32239,0.793457
-2.32697,0.791931
-2.32544,0.794983
-2.33002,0.796509
-2.33459,0.793457
-2.33765,0.791931
-2.34375,0.790405
-2.34528,0.796509
-2.34528,0.796509
-2.35291,0.791931
-2.35596,0.793457
-2.35291,0.791931
-2.35596,0.791931
-2.35748,0.794983
-2.36359,0.796509
-2.36511,0.793457
-2.36664,0.791931
-2.36053,0.791931
-2.36359,0.794983
-2.36359,0.793457
-2.35748,0.794983
-2.35596,0.790405
-2.34985,0.791931
-2.34222,0.794983
-2.33307,0.794983
-2.32391,0.791931
-2.31171,0.790405
-2.2995,0.794983
-2.28424,0.794983
-2.26746,0.791931
-2.25677,0.793457
-2.23541,0.793457
-2.22321,0.793457
-2.20642,0.794983
-2.18811,0.791931
-2.17285,0.793457
-2.15607,0.790405
-2.13928,0.793457
-2.12402,0.794983
-2.10724,0.793457
-2.09351,0.791931
-2.07977,0.793457
-2.06757,0.793457
-2.05231,0.794983
-2.0401,0.794983
-2.02789,0.790405
-2.01263,0.794983
-2.00348,0.791931
-1.99432,0.794983
-1.98669,0.791931
-1.97144,0.788879
-1.96533,0.791931
-1.95618,0.794983
-1.9516,0.794983
-1.9455,0.793457
-1.93787,0.791931
-1.93481,0.794983
-1.93024,0.794983
-1.92719,0.796509
-1.91956,0.794983
-1.91803,0.791931
-1.91803,0.791931
-1.91345,0.790405
-1.91498,0.793457
-1.91345,0.794983
-1.91345,0.793457
-1.91193,0.793457
-1.91193,0.793457
-1.91345,0.793457
-1.91345,0.794983
-1.9165,0.790405
-1.9165,0.791931
-1.91803,0.793457
-1.91803,0.794983
-1.91803,0.796509
-1.92261,0.791931
-1.93024,0.791931
-1.92413,0.791931
-1.92719,0.794983
-1.93329,0.793457
-1.93939,0.793457
-1.94244,0.791931
-1.9455,0.793457
-1.9455,0.793457
-1.9516,0.793457
-1.95465,0.790405
-1.95618,0.790405
-1.95923,0.790405
-1.95923,0.794983
-1.96381,0.793457
-1.96686,0.791931
-1.96991,0.793457
-1.96838,0.793457
-1.97144,0.791931
-1.97296,0.793457
-1.97754,0.788879
-1.97754,0.790405
-1.97601,0.787354
-1.97906,0.791931
-1.97754,0.793457
-1.97754,0.791931
-1.97754,0.793457
-1.97754,0.793457
-1.97601,0.793457
-1.97296,0.793457
-1.97296,0.794983
-1.97449,0.791931
-1.97296,0.793457
-1.96991,0.796509
-1.96991,0.793457
-1.96838,0.790405
-1.96686,0.791931
-1.96381,0.790405
-1.96381,0.796509
-1.95923,0.791931
-1.95923,0.788879
-1.95923,0.791931
-1.95618,0.791931
-1.95465,0.793457
-1.95618,0.793457
-1.95313,0.790405
-1.95465,0.793457
-1.95007,0.790405
-1.9516,0.794983
-1.95007,0.791931
-1.95007,0.790405
-1.94855,0.790405
-1.94855,0.790405
-1.94702,0.793457
-1.94702,0.793457
-1.94702,0.790405
-1.94702,0.790405
-1.95007,0.790405
-1.95007,0.793457
-1.94855,0.791931
-1.9516,0.793457
-1.9516,0.790405
-1.95313,0.791931
-1.95618,0.791931
-1.9577,0.791931
-1.9577,0.790405
-1.96381,0.788879
-1.96686,0.794983
-1.96838,0.794983
-1.97296,0.790405
-1.97601,0.790405
-1.97906,0.793457
-1.98212,0.793457
-1.98212,0.794983
-1.98822,0.793457
-1.9928,0.787354
-1.99585,0.788879
-1.9989,0.790405
-2.00348,0.798035
-2.005,0.788879
-2.00806,0.791931
-2.01111,0.788879
-2.01416,0.793457
-2.01874,0.793457
-2.02484,0.790405
-2.02789,0.790405
-2.02942,0.790405
-2.03552,0.793457
-2.034,0.796509
-2.03705,0.791931
-2.04315,0.788879
-2.0462,0.790405
-2.04926,0.790405
-2.04926,0.791931
-2.05841,0.791931
-2.06299,0.791931
-2.06604,0.788879
-2.06909,0.793457
-2.07214,0.794983
-2.07672,0.790405
-2.07977,0.791931
-2.08435,0.791931
-2.08893,0.791931
-2.09351,0.788879
-2.09656,0.790405
-2.09961,0.790405
-2.10114,0.791931
-2.10419,0.790405
-2.10724,0.793457
-2.10876,0.790405
-2.11334,0.791931
-2.11639,0.790405
-2.11945,0.791931
-2.11945,0.791931
-2.12097,0.793457
-2.12555,0.791931
-2.13013,0.788879
-2.13165,0.788879
-2.13165,0.793457
-2.13013,0.793457
-2.13165,0.790405
-2.1347,0.790405
-2.14081,0.793457
-2.13928,0.790405
-2.14081,0.788879
-2.14081,0.788879
-2.14081,0.793457
-2.14233,0.790405
-2.14539,0.796509
-2.14691,0.791931
-2.14844,0.791931
-2.15302,0.787354
-2.15302,0.791931
-2.15454,0.791931
-2.15912,0.790405
-2.16064,0.791931
-2.16217,0.788879
-2.16522,0.788879
-2.16522,0.791931
-2.16522,0.790405
-2.17285,0.790405
-2.17285,0.787354
-2.1759,0.788879
-2.17743,0.791931
-2.17743,0.790405
-2.18353,0.785828
-2.18506,0.791931
-2.18658,0.788879
-2.18811,0.793457
-2.19116,0.790405
-2.18964,0.788879
-2.19727,0.790405
-2.19879,0.791931
-2.20032,0.794983
-2.20184,0.791931
-2.20795,0.791931
-2.20947,0.790405
-2.20947,0.791931
-2.21558,0.791931
-2.21405,0.791931
-2.21863,0.787354
-2.22168,0.787354
-2.22473,0.791931
-2.22626,0.793457
-2.22626,0.791931
-2.22778,0.793457
-2.23236,0.787354
-2.23389,0.791931
-2.23846,0.788879
-2.24304,0.790405
-2.24609,0.787354
-2.24915,0.787354
-2.2522,0.787354
-2.25525,0.794983
-2.2583,0.788879
-2.2583,0.790405
-2.2644,0.790405
-2.26746,0.790405
-2.26746,0.791931
-2.27051,0.791931
-2.27814,0.790405
-2.27966,0.787354
-2.28577,0.791931
-2.28882,0.788879
-2.28882,0.790405
-2.29187,0.788879
-2.29187,0.788879
-2.29187,0.793457
-2.29034,0.793457
-2.28577,0.787354
-2.28424,0.787354
-2.27814,0.790405
-2.27203,0.790405
-2.25983,0.791931
-2.25067,0.793457
-2.23541,0.790405
-2.22473,0.787354
-2.20642,0.788879
-2.18506,0.793457
-2.17285,0.791931
-2.15454,0.788879
-2.13318,0.790405
-2.11182,0.791931
-2.09656,0.791931
-2.0752,0.790405
-2.05688,0.788879
-2.03247,0.788879
-2.01263,0.788879
-1.99432,0.788879
-1.97296,0.790405
-1.95313,0.791931
-1.93634,0.787354
-1.91345,0.788879
-1.89209,0.790405
-1.87531,0.790405
-1.85852,0.788879
-1.84174,0.788879
-1.82343,0.791931
-1.81122,0.791931
-1.79291,0.788879
-1.7807,0.788879
-1.76697,0.790405
-1.75171,0.791931
-1.74103,0.791931
-1.72729,0.788879
-1.71814,0.787354
-1.71204,0.788879
-1.6983,0.788879
-1.68762,0.790405
-1.67999,0.790405
-1.67084,0.788879
-1.66321,0.790405
-1.65405,0.791931
-1.64795,0.793457
-1.64337,0.791931
-1.63574,0.790405
-1.63116,0.787354
-1.62506,0.790405
-1.62201,0.791931
-1.61591,0.790405
-1.61133,0.790405
-1.60675,0.788879
-1.60217,0.790405
-1.59912,0.790405
-1.5976,0.790405
-1.59607,0.788879
-1.58997,0.788879
-1.58997,0.791931
-1.58691,0.791931
-1.58691,0.793457
-1.58539,0.787354
-1.58386,0.788879
-1.58386,0.791931
-1.58234,0.791931
-1.58234,0.788879
-1.58691,0.787354
-1.58691,0.787354
-1.58997,0.788879
-1.58844,0.791931
-1.58539,0.791931
-1.58844,0.788879
-1.59149,0.788879
-1.59302,0.790405
-1.59302,0.790405
-1.59149,0.790405
-1.59454,0.787354
-1.5976,0.787354
-1.5976,0.788879
-1.59454,0.790405
-1.59607,0.791931
-1.5976,0.791931
-1.59912,0.788879
-1.59912,0.790405
-1.60217,0.791931
-1.60217,0.788879
-1.60217,0.790405
-1.60522,0.787354
-1.6037,0.787354
-1.6037,0.791931
-1.60522,0.790405
-1.60522,0.788879
-1.60065,0.787354
-1.59912,0.790405
-1.5976,0.790405
-1.5976,0.790405
-1.5976,0.785828
-1.59607,0.788879
-1.59302,0.790405
-1.59149,0.793457
-1.59302,0.790405
-1.59454,0.788879
-1.58997,0.784302
-1.58844,0.788879
-1.58844,0.793457
-1.58539,0.790405
-1.58844,0.785828
-1.58234,0.787354
-1.57928,0.788879
-1.57928,0.791931
-1.57776,0.790405
-1.57776,0.784302
-1.58234,0.788879
-1.57623,0.790405
-1.57776,0.791931
-1.58234,0.790405
-1.57928,0.790405
-1.57928,0.785828
-1.58386,0.787354
-1.58539,0.790405
-1.58539,0.788879
-1.58844,0.788879
-1.58691,0.787354
-1.58844,0.790405
-1.59149,0.791931
-1.59302,0.788879
-1.59454,0.788879
-1.59607,0.785828
-1.59912,0.787354
-1.60522,0.791931
-1.60828,0.790405
-1.61133,0.787354
-1.61591,0.790405
-1.62354,0.790405
-1.62811,0.790405
-1.63269,0.791931
-1.63879,0.787354
-1.64337,0.788879
-1.64948,0.791931
-1.65558,0.790405
-1.66321,0.787354
-1.66321,0.787354
-1.67084,0.787354
-1.67694,0.788879
-1.68457,0.791931
-1.68915,0.790405
-1.69525,0.788879
-1.70135,0.787354
-1.70441,0.788879
-1.71051,0.793457
-1.71661,0.790405
-1.71814,0.787354
-1.72119,0.785828
-1.72577,0.787354
-1.73035,0.791931
-1.73645,0.787354
-1.74103,0.784302
-1.74561,0.787354
-1.74561,0.787354
-1.75018,0.790405
-1.75476,0.788879
-1.75476,0.787354
-1.76544,0.785828
-1.76697,0.787354
-1.76697,0.791931
-1.77307,0.791931
-1.77765,0.790405
-1.77917,0.785828
-1.78375,0.790405
-1.78833,0.790405
-1.78986,0.788879
-1.79596,0.784302
-1.79901,0.788879
-1.80511,0.788879
-1.80817,0.790405
-1.80969,0.790405
-1.81274,0.785828
-1.8158,0.788879
-1.81885,0.788879
-1.82343,0.790405
-1.82495,0.788879
-1.82953,0.788879
-1.83105,0.787354
-1.83563,0.791931
-1.84021,0.790405
-1.84479,0.790405
-1.84479,0.784302
-1.84937,0.787354
-1.85394,0.787354
-1.85547,0.788879
-1.85547,0.788879
-1.86157,0.788879
-1.86462,0.784302
-1.8692,0.788879
-1.87225,0.791931
-1.87378,0.790405
-1.87683,0.785828
-1.87988,0.787354
-1.88446,0.787354
-1.88599,0.791931
-1.88904,0.790405
-1.89514,0.788879
-1.90277,0.78125
-1.9043,0.790405
-1.9104,0.791931
-1.91193,0.790405
-1.91345,0.790405
-1.91956,0.787354
-1.92261,0.788879
-1.92261,0.790405
-1.93024,0.790405
-1.93634,0.787354
-1.93939,0.788879
-1.94244,0.787354
-1.9455,0.790405
-1.95007,0.790405
-1.95465,0.788879
-1.95618,0.785828
-1.96381,0.788879
-1.96686,0.788879
-1.97144,0.787354
-1.97601,0.787354
-1.98059,0.785828
-1.98517,0.788879
-1.98669,0.790405
-1.9928,0.788879
-1.99585,0.788879
-1.9989,0.787354
-2.005,0.787354
-2.00806,0.790405
-2.01263,0.790405
-2.01874,0.788879
-2.01874,0.788879
-2.02637,0.787354
-2.03247,0.791931
-2.03552,0.788879
-2.03857,0.787354
-2.0462,0.785828
-2.04773,0.790405
-2.05383,0.790405
-2.05994,0.790405
-2.06146,0.785828
-2.06909,0.785828
-2.07062,0.790405
-2.0752,0.791931
-2.07825,0.788879
-2.08282,0.787354
-2.08588,0.788879
-2.09045,0.790405
-2.09656,0.790405
-2.10114,0.790405
-2.10114,0.785828
-2.10571,0.787354
-2.10876,0.787354
-2.11487,0.788879
-2.11487,0.790405
-2.11945,0.788879
-2.11639,0.784302
-2.11334,0.787354
-2.11182,0.790405
-2.10876,0.788879
-2.09961,0.788879
-2.08893,0.785828
-2.07672,0.788879
-2.06604,0.788879
-2.05078,0.788879
-2.03705,0.787354
-2.01721,0.785828
-2.00195,0.788879
-1.98212,0.788879
-1.95923,0.788879
-1.93787,0.788879
-1.9165,0.785828
-1.89209,0.788879
-1.86768,0.791931
-1.84631,0.790405
-1.8219,0.787354
-1.79749,0.785828
-1.77612,0.785828
-1.75171,0.788879
-1.72882,0.788879
-1.70593,0.788879
-1.68304,0.782776
-1.66321,0.790405
-1.64032,0.790405
-1.62201,0.790405
-1.60065,0.787354
-1.58386,0.787354
-1.56555,0.788879
-1.54572,0.787354
-1.53198,0.788879
-1.5152,0.788879
-1.50452,0.785828
-1.48468,0.785828
-1.47552,0.791931
-1.46484,0.787354
-1.45111,0.784302
-1.44806,0.787354
-1.44043,0.788879
-1.43585,0.791931
-1.42822,0.787354
-1.42059,0.785828
-1.41754,0.785828
-1.41296,0.790405
-1.40991,0.790405
-1.40839,0.788879
-1.40228,0.788879
-1.40228,0.787354
-1.40076,0.785828
-1.39618,0.787354
-1.39618,0.788879
-1.39618,0.788879
-1.39313,0.785828
-1.39313,0.788879
-1.39465,0.785828
-1.39313,0.790405
-1.39465,0.785828
-1.39771,0.784302
-1.39771,0.787354
-1.39923,0.790405
-1.39923,0.787354
-1.40686,0.787354
-1.40686,0.785828
-1.40839,0.788879
-1.41144,0.790405
-1.41602,0.788879
-1.42059,0.788879
-1.42212,0.785828
-1.42212,0.787354
-1.42975,0.791931
-1.4328,0.787354
-1.4389,0.785828
-1.44196,0.785828
-1.44501,0.785828
-1.44806,0.785828
-1.45111,0.788879
-1.45721,0.784302
-1.46179,0.785828
-1.46332,0.787354
-1.46484,0.787354
-1.47247,0.790405
-1.474,0.788879
-1.47552,0.785828
-1.47705,0.787354
-1.47858,0.788879
-1.48163,0.788879
-1.4801,0.785828
-1.4801,0.787354
-1.48163,0.785828
-1.48163,0.785828
-1.48468,0.788879
-1.48468,0.785828
-1.48468,0.787354
-1.48163,0.787354
-1.4801,0.788879
-1.48773,0.788879
-1.48163,0.788879
-1.48315,0.785828
-1.48773,0.787354
-1.48773,0.790405
-1.48773,0.787354
-1.49078,0.785828
-1.48926,0.784302
-1.49078,0.787354
-1.49384,0.788879
-1.49384,0.785828
-1.49689,0.784302
-1.49841,0.784302
-1.49994,0.782776
-1.49994,0.788879
-1.50146,0.787354
-1.50452,0.785828
-1.50452,0.787354
-1.50757,0.787354
-1.50757,0.787354
-1.51215,0.790405
-1.5152,0.787354
-1.51672,0.785828
-1.52283,0.784302
-1.52588,0.788879
-1.52588,0.788879
-1.53198,0.787354
-1.53503,0.788879
-1.54114,0.785828
-1.54419,0.787354
-1.55029,0.790405
-1.55945,0.784302
-1.56097,0.787354
-1.56555,0.787354
-1.57166,0.788879
-1.57623,0.787354
-1.58539,0.785828
-1.58997,0.784302
-1.59607,0.784302
-1.6037,0.788879
-1.60828,0.788879
-1.61743,0.787354
-1.62048,0.785828
-1.62659,0.784302
-1.62811,0.788879
-1.63574,0.787354
-1.64337,0.784302
-1.651,0.784302
-1.6571,0.785828
-1.66168,0.787354
-1.66473,0.787354
-1.67389,0.785828
-1.67999,0.784302
-1.6861,0.787354
-1.6922,0.787354
-1.69678,0.787354
-1.70441,0.787354
-1.71051,0.784302
-1.71661,0.784302
-1.72424,0.790405
-1.72729,0.790405
-1.7334,0.784302
-1.73798,0.784302
-1.74866,0.785828
-1.75323,0.788879
-1.75781,0.787354
-1.76239,0.787354
-1.77155,0.785828
-1.7746,0.790405
-1.77917,0.791931
-1.78528,0.790405
-1.78986,0.785828
-1.79443,0.785828
-1.80054,0.78125
-1.80511,0.784302
-1.80817,0.785828
-1.81274,0.785828
-1.82037,0.784302
-1.8219,0.784302
-1.83105,0.787354
-1.83868,0.787354
-1.84174,0.785828
-1.84631,0.787354
-1.85242,0.785828
-1.85394,0.785828
-1.86157,0.787354
-1.86005,0.784302
-1.86768,0.784302
-1.87225,0.784302
-1.87836,0.785828
-1.88293,0.787354
-1.88599,0.788879
-1.89362,0.785828
-1.89819,0.784302
-1.9043,0.787354
-1.90735,0.784302
-1.91193,0.787354
-1.91803,0.782776
-1.92261,0.784302
-1.92719,0.787354
-1.93481,0.787354
-1.94092,0.782776
-1.94702,0.784302
-1.9516,0.785828
-1.95618,0.787354
-1.96228,0.785828
-1.96838,0.787354
-1.97144,0.784302
-1.97449,0.785828
-1.97906,0.790405
-1.98059,0.787354
-1.98975,0.785828
-1.99432,0.785828
-1.9989,0.785828
-2.00348,0.784302
-2.00806,0.782776
-2.00958,0.788879
-2.01569,0.782776
-2.01874,0.785828
-2.02789,0.784302
-2.03247,0.785828
-2.03705,0.787354
-2.04163,0.784302
-2.04926,0.784302
-2.0462,0.784302
-2.05078,0.787354
-2.05841,0.784302
-2.05994,0.782776
-2.06604,0.787354
-2.07062,0.784302
-2.07062,0.788879
-2.0752,0.782776
-2.08282,0.78125
-2.09045,0.784302
-2.09351,0.784302
-2.09808,0.785828
-2.10114,0.785828
-2.10724,0.78125
-2.10876,0.782776
-2.11487,0.787354
-2.11639,0.785828
-2.11945,0.787354
-2.1225,0.782776
-2.1225,0.784302
-2.11945,0.784302
-2.11182,0.787354
-2.10876,0.785828
-2.10266,0.78125
-2.09045,0.782776
-2.07977,0.785828
-2.06604,0.785828
-2.04926,0.787354
-2.03705,0.782776
-2.02026,0.782776
-2.00043,0.787354
-1.98059,0.788879
-1.96228,0.788879
-1.94092,0.78125
-1.91956,0.784302
-1.90125,0.785828
-1.87836,0.782776
-1.85547,0.785828
-1.83868,0.782776
-1.81122,0.787354
-1.79291,0.784302
-1.7746,0.785828
-1.75018,0.784302
-1.73187,0.782776
-1.71509,0.784302
-1.69525,0.784302
-1.67999,0.784302
-1.65863,0.784302
-1.64337,0.782776
-1.62811,0.784302
-1.61438,0.784302
-1.59912,0.784302
-1.58844,0.785828
-1.57166,0.784302
-1.5686,0.785828
-1.55487,0.787354
-1.55029,0.784302
-1.54266,0.784302
-1.53656,0.779724
-1.52893,0.785828
-1.52588,0.784302
-1.5274,0.785828
-1.52283,0.784302
-1.5213,0.784302
-1.5152,0.784302
-1.5152,0.785828
-1.51215,0.784302
-1.51215,0.784302
-1.51367,0.782776
-1.5152,0.784302
-1.51672,0.787354
-1.51978,0.785828
-1.51978,0.784302
-1.52283,0.78125
-1.53046,0.784302
-1.53046,0.782776
-1.53198,0.784302
-1.53809,0.784302
-1.53961,0.784302
-1.54266,0.782776
-1.55029,0.784302
-1.55945,0.785828
-1.5625,0.784302
-1.56708,0.782776
-1.57318,0.78125
-1.57928,0.785828
-1.58844,0.784302
-1.59302,0.784302
-1.59912,0.78125
-1.60675,0.782776
-1.61133,0.784302
-1.61896,0.782776
-1.62354,0.785828
-1.62964,0.778198
-1.63269,0.782776
-1.63879,0.782776
-1.64337,0.785828
-1.64642,0.782776
-1.65405,0.778198
-1.65863,0.779724
-1.66016,0.785828
-1.66321,0.784302
-1.66321,0.784302
-1.66779,0.784302
-1.66931,0.784302
-1.67389,0.785828
-1.67389,0.78125
-1.67847,0.782776
-1.68152,0.78125
-1.68152,0.782776
-1.68457,0.782776
-1.68457,0.782776
-1.68457,0.782776
-1.6861,0.78125
-1.68304,0.784302
-1.68152,0.784302
-1.68304,0.784302
-1.68304,0.782776
-1.68457,0.78125
-1.6861,0.784302
-1.68304,0.782776
-1.6861,0.784302
-1.6861,0.782776
-1.68457,0.784302
-1.68915,0.784302
-1.69067,0.782776
-1.68915,0.785828
-1.6922,0.784302
-1.6922,0.779724
-1.69678,0.779724
-1.6983,0.782776
-1.69983,0.784302
-1.69983,0.782776
-1.70135,0.782776
-1.70441,0.78125
-1.70898,0.785828
-1.71509,0.785828
-1.72119,0.782776
-1.71967,0.78125
-1.72577,0.782776
-1.73035,0.784302
-1.7334,0.782776
-1.73798,0.78125
-1.74561,0.779724
-1.74866,0.782776
-1.75476,0.782776
-1.75934,0.784302
-1.76392,0.782776
-1.77155,0.78125
-1.77917,0.784302
-1.78375,0.782776
-1.79443,0.784302
-1.79749,0.779724
-1.80817,0.78125
-1.81732,0.782776
-1.81885,0.782776
-1.82343,0.782776
-1.83563,0.78125
-1.83868,0.78125
-1.84784,0.78125
-1.85394,0.784302
-1.86005,0.78125
-1.87073,0.779724
-1.87225,0.78125
-1.88141,0.78125
-1.88904,0.785828
-1.89362,0.782776
-1.90125,0.78125
-1.90582,0.78125
-1.91345,0.779724
-1.91956,0.784302
-1.92566,0.78125
-1.93481,0.782776
-1.93939,0.78125
-1.9455,0.779724
-1.95313,0.782776
-1.96228,0.784302
-1.96838,0.782776
-1.97449,0.78125
-1.97906,0.782776
-1.98364,0.78125
-1.98975,0.784302
-1.99585,0.784302
-2.00195,0.779724
-2.00806,0.779724
-2.01416,0.78125
-2.01721,0.784302
-2.02484,0.78125
-2.03094,0.782776
-2.03705,0.78125
-2.0401,0.78125
-2.04773,0.782776
-2.05078,0.779724
-2.05688,0.779724
-2.06146,0.78125
-2.07062,0.782776
-2.07672,0.784302
-2.08282,0.78125
-2.09198,0.779724
-2.09351,0.78125
-2.10266,0.785828
-2.10724,0.78125
-2.11029,0.779724
-2.12097,0.78125
-2.12555,0.78125
-2.1347,0.784302
-2.1347,0.782776
-2.14539,0.784302
-2.14539,0.779724
-2.15302,0.779724
-2.15759,0.78125
-2.16217,0.782776
-2.1637,0.782776
-2.16675,0.78125
-2.17438,0.78125
-2.17743,0.78125
-2.18353,0.78125
-2.18658,0.78125
-2.18964,0.775146
-2.19574,0.78125
-2.20032,0.78125
-2.20032,0.782776
-2.2049,0.782776
-2.211,0.779724
-2.21558,0.779724
-2.22015,0.784302
-2.22168,0.782776
-2.22778,0.782776
-2.22931,0.78125
-2.23541,0.784302
-2.23999,0.78125
-2.24762,0.782776
-2.25372,0.78125
-2.2583,0.778198
-2.26288,0.78125
-2.26593,0.782776
-2.27051,0.78125
-2.27814,0.782776
-2.28271,0.776672
-2.28729,0.782776
-2.28882,0.782776
-2.29492,0.782776
-2.30103,0.782776
-2.30103,0.78125
-2.30408,0.779724
-2.3056,0.785828
-2.30713,0.784302
-2.30713,0.779724
-2.3056,0.779724
-2.30255,0.78125
-2.29492,0.78125
-2.28882,0.785828
-2.28271,0.779724
-2.26746,0.779724
-2.25372,0.78125
-2.23694,0.78125
-2.22473,0.782776
-2.20337,0.78125
-2.18506,0.778198
-2.1637,0.779724
-2.14081,0.78125
-2.1225,0.78125
-2.09808,0.779724
-2.07062,0.779724
-2.0462,0.778198
-2.01874,0.784302
-1.9928,0.78125
-1.96533,0.779724
-1.93787,0.779724
-1.9104,0.785828
-1.88141,0.779724
-1.85242,0.782776
-1.828,0.779724
-1.80359,0.778198
-1.77765,0.779724
-1.75476,0.779724
-1.72882,0.78125
-1.70593,0.78125
-1.6861,0.778198
-1.66168,0.779724
-1.64337,0.778198
-1.62659,0.78125
-1.6098,0.782776
-1.59607,0.779724
-1.57776,0.779724
-1.56403,0.779724
-1.55487,0.78125
-1.54114,0.779724
-1.53198,0.779724
-1.52588,0.776672
-1.5152,0.778198
-1.51062,0.779724
-1.50452,0.779724
-1.49689,0.776672
-1.49384,0.778198
-1.49078,0.778198
-1.48468,0.78125
-1.48163,0.778198
-1.47858,0.779724
-1.47705,0.778198
-1.47705,0.779724
-1.47552,0.78125
-1.47095,0.779724
-1.46942,0.778198
-1.474,0.776672
-1.47247,0.78125
-1.474,0.784302
-1.47247,0.779724
-1.474,0.779724
-1.474,0.779724
-1.47858,0.78125
-1.47858,0.779724
-1.48163,0.778198
-1.48926,0.779724
-1.49384,0.78125
-1.49384,0.776672
-1.49841,0.782776
-1.50452,0.78125
-1.51215,0.775146
-1.5213,0.779724
-1.52435,0.78125
-1.5274,0.78125
-1.53351,0.778198
-1.53961,0.78125
-1.54572,0.779724
-1.54572,0.779724
-1.55792,0.782776
-1.5625,0.779724
-1.5686,0.776672
-1.57013,0.779724
-1.57928,0.778198
-1.57776,0.779724
-1.58997,0.779724
-1.58997,0.776672
-1.5976,0.779724
-1.59912,0.778198
-1.60217,0.776672
-1.60522,0.778198
-1.60675,0.779724
-1.60675,0.776672
-1.60828,0.779724
-1.60675,0.778198
-1.6098,0.778198
-1.6098,0.778198
-1.60828,0.779724
-1.6098,0.779724
-1.61133,0.78125
-1.6098,0.779724
-1.6098,0.776672
-1.61133,0.776672
-1.61133,0.78125
-1.61438,0.779724
-1.61591,0.778198
-1.61743,0.775146
-1.61591,0.778198
-1.61743,0.778198
-1.61438,0.778198
-1.61896,0.78125
-1.62048,0.778198
-1.61896,0.778198
-1.62201,0.779724
-1.62506,0.778198
-1.62201,0.78125
-1.63116,0.778198
-1.63574,0.78125
-1.63879,0.776672
-1.63879,0.78125
-1.64795,0.779724
-1.65253,0.778198
-1.65405,0.779724
-1.66016,0.778198
-1.66473,0.78125
-1.67236,0.778198
-1.67694,0.776672
-1.68304,0.778198
-1.68915,0.779724
-1.69983,0.78125
-1.70135,0.778198
-1.70898,0.776672
-1.71356,0.778198
-1.72272,0.779724
-1.72729,0.779724
-1.73645,0.778198
-1.74255,0.776672
-1.74713,0.778198
-1.75629,0.78125
-1.76392,0.778198
-1.77307,0.779724
-1.7807,0.778198
-1.78528,0.778198
-1.79596,0.778198
-1.80359,0.779724
-1.80969,0.778198
-1.81732,0.775146
-1.82648,0.776672
-1.83716,0.778198
