-1.97601,1.41144,
-1.9516,1.40839,
-1.92413,1.40381,
-1.90582,1.39923,
-1.88293,1.40533,
-1.86615,1.41449,
-1.84937,1.40533,
-1.83868,1.40686,
-1.82953,1.40381,
-1.8158,1.40533,
-1.80511,1.40991,
-1.79443,1.40381,
-1.78986,1.40381,
-1.77917,1.40228,
-1.77612,1.40381,
-1.77307,1.40991,
-1.77307,1.40839,
-1.7746,1.40076,
-1.7746,1.40228,
-1.77002,1.40533,
-1.7746,1.41296,
-1.77612,1.40991,
-1.77307,1.40228,
-1.7746,1.3916,
-1.77307,1.40991,
-1.7746,1.41296,
-1.77765,1.40381,
-1.7807,1.40228,
-1.78223,1.40076,
-1.78528,1.39923,
-1.78986,1.42059,
-1.79901,1.40991,
-1.80511,1.40076,
-1.80664,1.40381,
-1.81274,1.40381,
-1.81885,1.40839,
-1.82648,1.40686,
-1.83411,1.40686,
-1.84631,1.40381,
-1.85394,1.40686,
-1.87073,1.41144,
-1.87836,1.40991,
-1.88293,1.40533,
-1.89514,1.40533,
-1.90582,1.40686,
-1.91193,1.41296,
-1.92108,1.40839,
-1.92719,1.40381,
-1.93024,1.40381,
-1.93481,1.40228,
-1.93787,1.41296,
-1.93939,1.40839,
-1.94397,1.40381,
-1.95313,1.40228,
-1.95313,1.40533,
-1.95923,1.41144,
-1.96686,1.41449,
-1.96838,1.40533,
-1.97601,1.40228,
-1.98212,1.40839,
-1.99127,1.41449,
-2.00348,1.40991,
-2.00958,1.40381,
-2.02179,1.40991,
-2.03094,1.40686,
-2.03705,1.40991,
-2.0462,1.41144,
-2.05383,1.40533,
-2.06451,1.40228,
-2.07367,1.40533,
-2.08282,1.41449,
-2.09961,1.40839,
-2.11334,1.40533,
-2.12097,1.40381,
-2.13623,1.40839,
-2.14539,1.41296,
-2.15759,1.40839,
-2.16522,1.40381,
-2.17743,1.40533,
-2.18353,1.40839,
-2.19421,1.41144,
-2.20642,1.40991,
-2.21252,1.40381,
-2.22778,1.40533,
-2.23999,1.40686,
-2.24915,1.41296,
-2.25983,1.41144,
-2.26746,1.40686,
-2.28424,1.40533,
-2.28882,1.40686,
-2.3056,1.41602,
-2.31323,1.40839,
-2.32086,1.40381,
-2.32849,1.40839,
-2.33459,1.40991,
-2.3468,1.41296,
-2.35138,1.41144,
-2.36053,1.40381,
-2.36664,1.40533,
-2.37122,1.40839,
-2.38037,1.41602,
-2.39105,1.40839,
-2.40326,1.40381,
-2.41241,1.40686,
-2.42157,1.40839,
-2.43683,1.41144,
-2.43988,1.40686,
-2.45514,1.40533,
-2.46887,1.40381,
-2.48108,1.41144,
-2.49786,1.41296,
-2.51312,1.40839,
-2.5238,1.40533,
-2.53906,1.40533,
-2.55432,1.40839,
-2.56042,1.41602,
-2.57111,1.40991,
-2.58942,1.40686,
-2.60315,1.40686,
-2.61688,1.40533,
-2.62756,1.41296,
-2.63519,1.40839,
-2.64893,1.40839,
-2.65961,1.39618,
-2.67181,1.40533,
-2.68097,1.40381,
-2.69012,1.40839,
-2.69775,1.40381,
-2.70538,1.40991,
-2.70844,1.40686,
-2.71912,1.41602,
-2.72369,1.41296,
-2.7359,1.40533,
-2.742,1.40686,
-2.75269,1.40839,
-2.75879,1.41296,
-2.76642,1.40686,
-2.77863,1.40686,
-2.78625,1.40991,
-2.79388,1.40686,
-2.80151,1.41144,
-2.80914,1.41296,
-2.81525,1.40686,
-2.8244,1.40228,
-2.83356,1.40686,
-2.83508,1.41754,
-2.83966,1.41144,
-2.84119,1.40533,
-2.84271,1.40991,
-2.83508,1.40839,
-2.83051,1.41449,
-2.81677,1.41144,
-2.80457,1.40686,
-2.79388,1.40839,
-2.77557,1.41144,
-2.75269,1.41449,
-2.72675,1.41754,
-2.69928,1.41144,
-2.67029,1.40991,
-2.63977,1.40839,
-2.60773,1.41296,
-2.56958,1.40991,
-2.52991,1.40991,
-2.49481,1.40991,
-2.45514,1.40991,
-2.41547,1.41602,
-2.3819,1.41144,
-2.35138,1.40533,
-2.31171,1.41144,
-2.27661,1.40991,
-2.24457,1.41602,
-2.21405,1.40991,
-2.18201,1.40991,
-2.15454,1.41449,
-2.12555,1.41144,
-2.10266,1.41296,
-2.07825,1.40839,
-2.05994,1.40991,
-2.03857,1.40839,
-2.02179,1.41144,
-2.00348,1.41296,
-1.98822,1.41296,
-1.97601,1.40686,
-1.96686,1.40839,
-1.9577,1.40839,
-1.95313,1.41144,
-1.94855,1.41144,
-1.94244,1.40991,
-1.94397,1.40839,
-1.94244,1.40533,
-1.94397,1.41296,
-1.9455,1.40076,
-1.94092,1.40991,
-1.94702,1.41144,
-1.9455,1.40839,
-1.9455,1.41296,
-1.94702,1.41602,
-1.94702,1.40991,
-1.94855,1.41144,
-1.94397,1.40839,
-1.9455,1.41296,
-1.94855,1.41296,
-1.94702,1.41144,
-1.95007,1.40991,
-1.95007,1.41144,
-1.95313,1.41754,
-1.9577,1.41144,
-1.96686,1.40381,
-1.97601,1.41144,
-1.98212,1.41144,
-1.99585,1.41602,
-2.00348,1.41296,
-2.01721,1.40686,
-2.02789,1.41144,
-2.04163,1.40991,
-2.05383,1.41602,
-2.06604,1.41296,
-2.07977,1.40533,
-2.0874,1.41296,
-2.10266,1.40991,
-2.11487,1.41602,
-2.1225,1.41449,
-2.1347,1.40839,
-2.14691,1.40533,
-2.15149,1.40991,
-2.16064,1.41602,
-2.17133,1.41144,
-2.17438,1.40686,
-2.17896,1.40839,
-2.18811,1.41449,
-2.18811,1.41754,
-2.19574,1.40991,
-2.19879,1.40686,
-2.20795,1.40991,
-2.20795,1.41144,
-2.21405,1.41602,
-2.2171,1.40991,
-2.22168,1.40686,
-2.22626,1.41144,
-2.23236,1.40839,
-2.23846,1.41449,
-2.25067,1.41449,
-2.26135,1.40839,
-2.26746,1.40839,
-2.27814,1.41144,
-2.28424,1.40839,
-2.29034,1.41449,
-2.30255,1.40228,
-2.31323,1.40991,
-2.32391,1.41449,
-2.33459,1.41907,
-2.3468,1.41144,
-2.35901,1.40839,
-2.36359,1.41144,
-2.38037,1.40991,
-2.388,1.41602,
-2.39716,1.41602,
-2.41241,1.41144,
-2.42004,1.40991,
-2.43225,1.41144,
-2.44293,1.41754,
-2.44751,1.41296,
-2.45972,1.40686,
-2.46735,1.40839,
-2.47345,1.41144,
-2.48413,1.41754,
-2.49176,1.41144,
-2.50397,1.40533,
-2.51617,1.40839,
-2.52838,1.41296,
-2.54059,1.41449,
-2.5589,1.40686,
-2.57416,1.41144,
-2.58789,1.40991,
-2.60315,1.40839,
-2.61993,1.41754,
-2.63672,1.41449,
-2.65503,1.40839,
-2.67029,1.41144,
-2.69165,1.41144,
-2.71149,1.41754,
-2.7298,1.41449,
-2.74811,1.40533,
-2.76794,1.40991,
-2.78778,1.41144,
-2.80457,1.41602,
-2.8244,1.40991,
-2.84271,1.40839,
-2.86102,1.41296,
-2.87781,1.41449,
-2.89307,1.41449,
-2.90833,1.41144,
-2.92511,1.40686,
-2.93884,1.40839,
-2.95563,1.41296,
-2.96936,1.41907,
-2.98462,1.41449,
-2.99988,1.40686,
-3.01208,1.40991,
-3.02887,1.41296,
-3.04108,1.41296,
-3.05328,1.41144,
-3.06854,1.40381,
-3.0838,1.41449,
-3.09753,1.41144,
-3.10974,1.41754,
-3.12195,1.41144,
-3.13416,1.40839,
-3.14636,1.40839,
-3.15704,1.41144,
-3.1662,1.41754,
-3.18146,1.41296,
-3.19672,1.40839,
-3.21045,1.41144,
-3.22418,1.40991,
-3.24249,1.41907,
-3.25623,1.41449,
-3.27148,1.41449,
-3.28522,1.41144,
-3.29742,1.41144,
-3.30963,1.41602,
-3.31726,1.41449,
-3.31726,1.40991,
-3.32642,1.40381,
-3.32794,1.41144,
-3.32642,1.41449,
-3.32336,1.41296,
-3.31726,1.41296,
-3.30658,1.40686,
-3.29437,1.41144,
-3.28064,1.41907,
-3.26996,1.41296,
-3.25165,1.40533,
-3.22723,1.40686,
-3.20587,1.41144,
-3.18298,1.41754,
-3.15399,1.41296,
-3.1311,1.40839,
-3.10669,1.40839,
-3.07922,1.41602,
-3.04718,1.41602,
-3.02277,1.40991,
-2.99377,1.40991,
-2.96631,1.41144,
-2.93732,1.40686,
-2.91595,1.41602,
-2.89001,1.41449,
-2.86407,1.41296,
-2.83966,1.41449,
-2.82135,1.40991,
-2.80762,1.41602,
-2.79236,1.41449,
-2.78015,1.40533,
-2.76489,1.40991,
-2.75726,1.41296,
-2.742,1.41754,
-2.73285,1.41144,
-2.72369,1.40686,
-2.72064,1.41144,
-2.71301,1.40991,
-2.70386,1.40839,
-2.69775,1.42365,
-2.69623,1.41296,
-2.69165,1.41296,
-2.6886,1.41144,
-2.68707,1.41602,
-2.68402,1.41144,
-2.67639,1.40991,
-2.67639,1.42212,
-2.67792,1.41144,
-2.67487,1.41602,
-2.67334,1.41449,
-2.67639,1.40686,
-2.67334,1.40686,
-2.67181,1.41296,
-2.67487,1.42517,
-2.67487,1.41144,
-2.67029,1.41144,
-2.66876,1.40991,
-2.66876,1.40991,
-2.66113,1.41754,
-2.65961,1.41449,
-2.65503,1.40991,
-2.65045,1.40839,
-2.64893,1.40686,
-2.64282,1.41602,
-2.63824,1.41296,
-2.63214,1.40533,
-2.62299,1.40991,
-2.61536,1.41296,
-2.6062,1.42059,
-2.59705,1.41449,
-2.58484,1.40686,
-2.56958,1.40991,
-2.55432,1.41144,
-2.53906,1.41907,
-2.52075,1.41296,
-2.50092,1.40991,
-2.48413,1.40991,
-2.46429,1.41144,
-2.44751,1.41449,
-2.43378,1.41296,
-2.41394,1.40533,
-2.39716,1.40686,
-2.3819,1.41144,
-2.36969,1.42059,
-2.35901,1.41449,
-2.34375,1.40991,
-2.33154,1.41296,
-2.32086,1.41296,
-2.31476,1.41449,
-2.30713,1.41296,
-2.29797,1.40839,
-2.2995,1.40991,
-2.30255,1.41449,
-2.3056,1.41907,
-2.30865,1.41449,
-2.31628,1.40381,
-2.32239,1.41296,
-2.33307,1.40991,
-2.34222,1.41602,
-2.35138,1.41296,
-2.36816,1.40686,
-2.38495,1.40991,
-2.40479,1.42212,
-2.43073,1.42822,
-2.45361,1.41296,
-2.48108,1.40533,
-2.50702,1.40991,
-2.53601,1.41296,
-2.56805,1.41907,
-2.60315,1.41449,
-2.63519,1.40686,
-2.66571,1.41296,
-2.70538,1.41296,
-2.74048,1.41449,
-2.76947,1.41296,
-2.80762,1.40381,
-2.83966,1.41144,
-2.87476,1.40991,
-2.90527,1.41449,
-2.93732,1.41449,
-2.97394,1.40686,
-3.00751,1.40686,
-3.04108,1.41296,
-3.06854,1.41449,
-3.09753,1.40991,
-3.125,1.40533,
-3.15247,1.40839,
-3.17993,1.41449,
-3.20435,1.41602,
-3.22266,1.40991,
-3.24707,1.41144,
-3.27301,1.41296,
-3.28674,1.40686,
-3.30963,1.41602,
-3.32336,1.41449,
-3.34167,1.40839,
-3.35693,1.40991,
-3.37219,1.41449,
-3.37982,1.41602,
-3.39203,1.40381,
-3.40118,1.40686,
-3.41492,1.41296,
-3.4256,1.40991,
-3.43933,1.41602,
-3.45459,1.41907,
-3.4668,1.40839,
-3.479,1.40991,
-3.48816,1.41449,
-3.49731,1.41296,
-3.51105,1.41144,
-3.5202,1.40991,
-3.52783,1.40839,
-3.54004,1.41144,
-3.55072,1.41449,
-3.56445,1.41296,
-3.57513,1.40839,
-3.58734,1.40839,
-3.59192,1.41144,
-3.60565,1.41602,
-3.62244,1.41144,
-3.63312,1.40839,
-3.6438,1.40991,
-3.65601,1.41144,
-3.66821,1.41602,
-3.67279,1.40991,
-3.685,1.40839,
-3.69568,1.40839,
-3.70026,1.40991,
-3.70636,1.41754,
-3.70789,1.41296,
-3.70483,1.41296,
-3.70331,1.41296,
-3.69568,1.40381,
-3.68652,1.41602,
-3.66821,1.40991,
-3.65143,1.40686,
-3.62396,1.40533,
-3.59344,1.41449,
-3.5614,1.42822,
-3.52936,1.41296,
-3.48663,1.40533,
-3.44391,1.41449,
-3.40576,1.41144,
-3.35693,1.41296,
-3.30963,1.41449,
-3.25775,1.40991,
-3.20892,1.41296,
-3.15399,1.41296,
-3.10669,1.42059,
-3.05481,1.41449,
-3.00598,1.41144,
-2.95868,1.41144,
-2.90833,1.41296,
-2.8656,1.42059,
-2.82135,1.41602,
-2.78168,1.40839,
-2.74963,1.41296,
-2.72064,1.42212,
-2.69318,1.42059,
-2.66724,1.41449,
-2.6535,1.41144,
-2.63977,1.41449,
-2.62604,1.41144,
-2.61078,1.41907,
-2.60315,1.41602,
-2.59552,1.41449,
-2.59399,1.41449,
-2.59399,1.41296,
-2.59705,1.41907,
-2.6001,1.40839,
-2.60773,1.40839,
-2.62146,1.41296,
-2.62909,1.41602,
-2.64587,1.42517,
-2.66113,1.41754,
-2.68097,1.40381,
-2.69775,1.41602,
-2.72369,1.41602,
-2.742,1.42059,
-2.76642,1.41754,
-2.79388,1.41296,
-2.8183,1.41907,
-2.85492,1.41602,
-2.88696,1.41754,
-2.91901,1.41602,
-2.95258,1.41296,
-2.98004,1.41296,
-3.00903,1.41754,
-3.03955,1.42212,
-3.06396,1.42059,
-3.08838,1.41602,
-3.11127,1.41449,
-3.13263,1.41907,
-3.14789,1.42059,
-3.16162,1.41602,
-3.18146,1.41144,
-3.19214,1.41296,
-3.20435,1.41754,
-3.20892,1.42059,
-3.21808,1.42212,
-3.22113,1.41754,
-3.22571,1.41602,
-3.22723,1.41449,
-3.22876,1.42517,
-3.22876,1.42059,
-3.22571,1.41296,
-3.22266,1.41602,
-3.21655,1.42059,
-3.21503,1.42517,
-3.21045,1.42212,
-3.2074,1.41602,
-3.20435,1.41754,
-3.20129,1.41907,
-3.19366,1.42212,
-3.18909,1.42059,
-3.18604,1.41602,
-3.18146,1.41907,
-3.18298,1.42059,
-3.17993,1.42212,
-3.17535,1.42517,
-3.17383,1.41754,
-3.16772,1.41602,
-3.16772,1.42059,
-3.16772,1.42517,
-3.16467,1.42365,
-3.15857,1.42059,
-3.1601,1.42822,
-3.15704,1.42212,
-3.1601,1.42975,
-3.1601,1.42212,
-3.1662,1.42059,
-3.16772,1.42365,
-3.1723,1.42365,
-3.17078,1.43127,
-3.17535,1.42365,
-3.17688,1.4389,
-3.17841,1.42212,
-3.18146,1.42059,
-3.18604,1.42822,
-3.18909,1.42517,
-3.18909,1.42059,
-3.18756,1.41296,
-3.18756,1.42822,
-3.18451,1.43585,
-3.17993,1.42517,
-3.17688,1.42212,
-3.16772,1.42517,
-3.15857,1.42975,
-3.14484,1.42822,
-3.12805,1.42822,
-3.10974,1.43738,
-3.0899,1.42822,
-3.07159,1.42975,
-3.05328,1.43433,
-3.03802,1.4328,
-3.02124,1.42517,
-3.0014,1.42365,
-2.98615,1.43127,
-2.97241,1.4328,
-2.96021,1.43433,
-2.948,1.42517,
-2.93732,1.43127,
-2.93274,1.4328,
-2.92053,1.43585,
-2.91443,1.4328,
-2.90833,1.42975,
-2.9007,1.43433,
-2.89459,1.43433,
-2.89459,1.4389,
-2.89001,1.43433,
-2.88391,1.43127,
-2.87933,1.42822,
-2.87476,1.4328,
-2.87628,1.4389,
-2.87476,1.43585,
-2.87628,1.4328,
-2.88086,1.43585,
-2.88544,1.4389,
-2.88696,1.44348,
-2.89154,1.43585,
-2.89764,1.43433,
-2.9007,1.43585,
-2.9068,1.4389,
-2.90833,1.44043,
-2.9129,1.4389,
-2.92511,1.43738,
-2.93274,1.4389,
-2.93884,1.44043,
-2.94952,1.44501,
-2.95868,1.44043,
-2.96783,1.43738,
-2.96631,1.4389,
-2.97241,1.43738,
-2.97241,1.44653,
-2.97089,1.44348,
-2.96021,1.4389,
-2.9541,1.44043,
-2.94495,1.44348,
-2.93884,1.44958,
-2.92969,1.44196,
-2.91748,1.44196,
-2.91138,1.44043,
-2.90375,1.44501,
-2.90375,1.44348,
-2.90222,1.44348,
-2.89917,1.44196,
-2.90222,1.44196,
-2.90222,1.44653,
-2.9007,1.45111,
-2.9068,1.44348,
-2.91138,1.43738,
-2.9129,1.44348,
-2.91901,1.44653,
-2.92511,1.44958,
-2.92511,1.44653,
-2.92664,1.44348,
-2.92816,1.44806,
-2.92969,1.44653,
-2.93274,1.45111,
-2.93427,1.44653,
-2.93427,1.44348,
-2.94037,1.44806,
-2.93884,1.44958,
-2.93579,1.45416,
-2.94037,1.45416,
-2.93884,1.44501,
-2.94037,1.44958,
-2.94037,1.44806,
-2.94037,1.45111,
-2.93884,1.44806,
-2.94037,1.44501,
-2.94037,1.44653,
-2.94189,1.45111,
-2.93884,1.44806,
-2.93732,1.45264,
-2.93732,1.44806,
-2.93427,1.44653,
-2.93427,1.45264,
-2.93274,1.45569,
-2.92969,1.44958,
-2.92664,1.44806,
-2.92664,1.44958,
-2.92664,1.45264,
-2.92664,1.45874,
-2.92511,1.45264,
-2.92816,1.45111,
-2.92358,1.45111,
-2.92358,1.45721,
-2.92664,1.45721,
-2.92969,1.46484,
-2.92969,1.45111,
-2.93732,1.45416,
-2.94342,1.46179,
-2.94647,1.45874,
-2.95258,1.45874,
-2.96021,1.45264,
-2.96631,1.45111,
-2.97241,1.45264,
-2.98004,1.46332,
-2.98462,1.45721,
-2.98767,1.45264,
-2.98767,1.45264,
-2.9953,1.45874,
-2.99377,1.46179,
-2.9953,1.45111,
-2.9953,1.45874,
-2.99377,1.45721,
-2.99377,1.45264,
-2.9953,1.46484,
-2.98767,1.45874,
-2.98615,1.45721,
-2.98615,1.45569,
-2.98462,1.46484,
-2.98767,1.47095,
-2.98615,1.45416,
-2.98004,1.45721,
-2.98309,1.46179,
-2.98309,1.46637,
-2.98157,1.46637,
-2.98462,1.46484,
-2.98462,1.46179,
-2.9892,1.46332,
-2.9892,1.46332,
-2.9953,1.46637,
-2.99988,1.4679,
-3.00903,1.46332,
-3.00903,1.46179,
-3.01361,1.46637,
-3.01819,1.46942,
-3.02734,1.4679,
-3.0304,1.46484,
-3.03497,1.46179,
-3.04108,1.4679,
-3.03955,1.47095,
-3.03802,1.46637,
-3.0365,1.46484,
-3.03345,1.46942,
-3.02887,1.46942,
-3.02124,1.474,
-3.00903,1.46637,
-2.99835,1.4679,
-2.98004,1.46484,
-2.96783,1.46637,
-2.948,1.474,
-2.92664,1.46942,
-2.9068,1.4679,
-2.88239,1.46637,
-2.8595,1.47552,
-2.84119,1.47705,
-2.82745,1.46942,
-2.80609,1.4679,
-2.78931,1.47247,
-2.77252,1.474,
-2.75726,1.474,
-2.74963,1.474,
-2.7359,1.47095,
-2.72522,1.474,
-2.71759,1.474,
-2.71149,1.47858,
-2.69775,1.47552,
-2.6947,1.46942,
-2.69165,1.474,
-2.68402,1.47858,
-2.68402,1.47705,
-2.68555,1.47552,
-2.68097,1.47552,
-2.68555,1.474,
-2.68097,1.4801,
-2.68097,1.47705,
-2.68707,1.47705,
-2.6886,1.47705,
-2.6947,1.47247,
-2.70081,1.47858,
-2.70386,1.4801,
-2.70844,1.4801,
-2.71454,1.47705,
-2.72064,1.47705,
-2.72217,1.46942,
-2.73285,1.49994,
-2.7359,1.4801,
-2.74353,1.4801,
-2.75269,1.4801,
-2.75421,1.48468,
-2.76642,1.48163,
-2.76947,1.48163,
-2.7832,1.47705,
-2.79236,1.47858,
-2.80304,1.4801,
-2.81372,1.48621,
-2.82288,1.48315,
-2.83356,1.48315,
-2.83813,1.48468,
-2.84424,1.48468,
-2.84882,1.48468,
-2.84576,1.48315,
-2.84576,1.4801,
-2.84729,1.48163,
-2.83813,1.48315,
-2.83203,1.48926,
-2.82135,1.48926,
-2.80914,1.48773,
-2.79236,1.48315,
-2.77405,1.48773,
-2.75879,1.48468,
-2.7298,1.48468,
-2.70538,1.48773,
-2.67487,1.48315,
-2.6413,1.48621,
-2.61078,1.49078,
-2.57568,1.4801,
-2.54211,1.48621,
-2.50702,1.47858,
-2.47345,1.48773,
-2.43683,1.49078,
-2.40326,1.48926,
-2.37122,1.48315,
-2.33459,1.48468,
-2.30255,1.48926,
-2.27509,1.49231,
-2.24457,1.48315,
-2.21252,1.48773,
-2.18506,1.48621,
-2.15759,1.49078,
-2.1286,1.49231,
-2.10419,1.48773,
-2.0813,1.48773,
-2.05841,1.49231,
-2.02637,1.49231,
-2.005,1.49231,
-1.98364,1.49536,
-1.96228,1.48621,
-1.94092,1.48926,
-1.92108,1.48926,
-1.90125,1.49689,
-1.88293,1.49078,
-1.86768,1.48773,
-1.85089,1.49078,
-1.83868,1.49536,
-1.828,1.49841,
-1.81122,1.49231,
-1.79596,1.48926,
-1.78375,1.49231,
-1.77155,1.49078,
-1.75934,1.49689,
-1.75171,1.49689,
-1.7395,1.49536,
-1.73645,1.49689,
-1.72577,1.49536,
-1.71814,1.5152,
-1.71509,1.49994,
-1.70746,1.49078,
-1.70746,1.49231,
-1.70135,1.49994,
-1.69678,1.50299,
-1.69067,1.49841,
-1.6861,1.49536,
-1.68304,1.50299,
-1.67694,1.49841,
-1.67389,1.49994,
-1.67084,1.50146,
-1.66779,1.49994,
-1.66168,1.49689,
-1.65253,1.50452,
-1.6449,1.49994,
-1.63422,1.49841,
-1.62964,1.49841,
-1.62354,1.49994,
-1.6098,1.50452,
-1.60065,1.50299,
-1.58691,1.50299,
-1.57318,1.49994,
-1.5564,1.49994,
-1.53961,1.50299,
-1.5274,1.50452,
-1.51672,1.50452,
-1.50604,1.49994,
-1.49994,1.49841,
-1.49384,1.50604,
-1.48773,1.50604,
-1.474,1.50452,
-1.46637,1.50146,
-1.46179,1.49994,
-1.45721,1.49994,
-1.45264,1.50757,
-1.44958,1.50604,
-1.44653,1.50146,
-1.44196,1.50146,
-1.44043,1.51215,
-1.43738,1.50757,
-1.4389,1.50604,
-1.43433,1.50452,
-1.43433,1.50604,
-1.43433,1.50909,
-1.43433,1.50909,
-1.43585,1.50757,
-1.44196,1.50452,
-1.44806,1.50299,
-1.45721,1.50757,
-1.46179,1.51062,
-1.46484,1.50909,
-1.47095,1.50604,
-1.47705,1.50299,
-1.48621,1.50757,
-1.49231,1.51215,
-1.50299,1.50452,
-1.51062,1.50452,
-1.51825,1.50299,
-1.52283,1.50757,
-1.5274,1.51062,
-1.53198,1.51062,
-1.53046,1.50757,
-1.53351,1.50757,
-1.53656,1.50604,
-1.53656,1.51825,
-1.53809,1.50909,
-1.53961,1.50604,
-1.53961,1.50757,
-1.53809,1.51215,
-1.53503,1.51367,
-1.53503,1.51062,
-1.53351,1.50604,
-1.53046,1.50909,
-1.52893,1.51215,
-1.53046,1.51215,
-1.52893,1.51062,
-1.52435,1.50909,
-1.52435,1.50146,
-1.51978,1.51367,
-1.51215,1.5152,
-1.50757,1.5152,
-1.50909,1.50909,
-1.50146,1.50604,
-1.49994,1.5152,
-1.49841,1.51215,
-1.49689,1.51672,
-1.49384,1.51062,
-1.49384,1.51215,
-1.49536,1.51672,
-1.50604,1.5152,
-1.50757,1.51367,
-1.51062,1.50909,
-1.51978,1.51062,
-1.52435,1.5152,
-1.53656,1.51672,
-1.54266,1.51825,
-1.55792,1.51215,
-1.56708,1.51215,
-1.57776,1.51215,
-1.59454,1.51825,
-1.6098,1.5152,
-1.62659,1.5152,
-1.63879,1.51215,
-1.65558,1.51672,
-1.67847,1.52283,
-1.69525,1.51825,
-1.71204,1.51367,
-1.72577,1.51978,
-1.74408,1.51825,
-1.76086,1.51978,
-1.7746,1.51978,
-1.78375,1.51672,
-1.79291,1.5152,
-1.80054,1.51978,
-1.80511,1.51978,
-1.80359,1.52588,
-1.80054,1.51672,
-1.79443,1.51978,
-1.78528,1.51978,
-1.7746,1.52283,
-1.75934,1.52435,
-1.7395,1.51672,
-1.71356,1.51367,
-1.69983,1.52435,
-1.66931,1.52283,
-1.64337,1.52435,
-1.61438,1.52283,
-1.57776,1.51978,
-1.54114,1.52893,
-1.51062,1.52435,
-1.4679,1.52435,
-1.43127,1.52283,
-1.39008,1.52283,
-1.35956,1.52435,
-1.31989,1.53198,
-1.28326,1.52893,
-1.24207,1.5213,
-1.20544,1.52588,
-1.16119,1.51978,
-1.12,1.53198,
-1.08032,1.52893,
-1.04065,1.52283,
-1.00098,1.52893,
-0.961304,1.52435,
-0.926208,1.53046,
-0.886536,1.53046,
-0.848389,1.51978,
-0.813293,1.52283,
-0.775146,1.52588,
-0.741577,1.53198,
-0.706482,1.52893,
-0.671387,1.52435,
-0.639343,1.52588,
-0.604248,1.53046,
-0.532532,1.53198,
-0.520325,1.52588,
-0.511169,1.5213,
-0.497437,1.52893,
-0.491333,1.53046,
-0.485229,1.53046,
-0.476074,1.53046,
-0.463867,1.52435,
-0.457764,1.52435,
-0.45929,1.53351,
-0.466919,1.53046,
-0.485229,1.53351,
-0.498962,1.52435,
-0.512695,1.52893,
-0.531006,1.52893,
-0.553894,1.53198,
-0.578308,1.52893,
-0.604248,1.51978,
-0.628662,1.52588,
-0.656128,1.52893,
-0.682068,1.52893,
-0.71106,1.53656,
-0.740051,1.52588,
-0.770569,1.52435,
-0.796509,1.53046,
-0.822449,1.53198,
-0.846863,1.53503,
-0.881958,1.52588,
-0.91095,1.52588,
-0.942993,1.53046,
-0.975037,1.53351,
-1.01013,1.53351,
-1.03912,1.52893,
-1.06964,1.52893,
-1.09406,1.53351,
-1.12305,1.53351,
-1.14899,1.53351,
-1.17798,1.52588,
-1.20239,1.52283,
-1.22986,1.52588,
-1.25427,1.53351,
-1.27869,1.53503,
-1.30463,1.52893,
-1.33057,1.52893,
-1.35345,1.52893,
-1.37177,1.53198,
-1.39923,1.53351,
-1.41907,1.52588,
-1.44043,1.52588,
-1.46332,1.53503,
-1.48163,1.53961,
-1.50299,1.53656,
-1.5213,1.52283,
-1.53809,1.53046,
-1.55334,1.53351,
-1.57013,1.53198,
-1.58997,1.53351,
-1.60828,1.53351,
-1.63116,1.52893,
-1.65405,1.53351,
-1.67542,1.53351,
-1.70135,1.53809,
-1.72424,1.52588,
-1.74713,1.52435,
-1.77612,1.53351,
-1.80206,1.53351,
-1.83105,1.53656,
-1.85547,1.53046,
-1.88751,1.53351,
-1.91193,1.53351,
-1.94244,1.53961,
-1.97144,1.53351,
-2.00195,1.53046,
-2.03247,1.53046,
-2.05536,1.53198,
-2.08282,1.53351,
-2.10571,1.54114,
-2.1286,1.53351,
-2.15149,1.52588,
-2.1759,1.53809,
-2.19727,1.53961,
-2.21863,1.53809,
-2.24304,1.52893,
-2.26288,1.53198,
-2.28729,1.53809,
-2.31018,1.53503,
-2.33459,1.53656,
-2.35901,1.53351,
-2.38037,1.53046,
-2.40173,1.53961,
-2.42462,1.53656,
-2.44904,1.53809,
-2.47192,1.53046,
-2.49176,1.53046,
-2.5177,1.53656,
-2.53601,1.53961,
-2.56195,1.54114,
-2.58484,1.53198,
-2.6062,1.52893,
-2.63062,1.54114,
-2.65198,1.53809,
-2.67334,1.53656,
-2.69775,1.53198,
-2.72522,1.53046,
-2.74658,1.53656,
-2.771,1.53961,
-2.78931,1.54114,
-2.81219,1.53351,
-2.83203,1.53198,
-2.85034,1.53809,
-2.87323,1.53961,
-2.89001,1.53809,
-2.9129,1.53351,
-2.92969,1.5213,
-2.948,1.53351,
-2.96936,1.54266,
-2.98462,1.53656,
-3.00751,1.53351,
-3.02887,1.53503,
-3.04565,1.53809,
-3.07007,1.53046,
-3.09753,1.52893,
-3.125,1.53656,
-3.15399,1.53503,
-3.18146,1.53961,
-3.2135,1.54114,
-3.2486,1.54114,
-3.28064,1.53046,
-3.30963,1.52893,
-3.34167,1.53961,
-3.37219,1.53961,
-3.39813,1.53809,
-3.42255,1.53198,
-3.45001,1.53503,
-3.46832,1.53656,
-3.48358,1.54114,
-3.49731,1.53809,
-3.50494,1.53809,
-3.5141,1.52893,
-3.50952,1.53809,
-3.50952,1.53809,
-3.50342,1.53961,
-3.49426,1.53351,
-3.48663,1.5213,
-3.4668,1.53503,
-3.45154,1.54266,
-3.42712,1.54114,
-3.41187,1.53198,
-3.38898,1.53503,
-3.36609,1.53656,
-3.34473,1.53961,
-3.31726,1.53046,
-3.29742,1.53198,
-3.27454,1.53351,
-3.25165,1.54114,
-3.23029,1.53656,
-3.21808,1.53961,
-3.20129,1.53656,
-3.18756,1.53046,
-3.17383,1.53809,
-3.16162,1.53961,
-3.14789,1.54266,
-3.13568,1.53351,
-3.12653,1.53198,
-3.11432,1.53961,
-3.10822,1.54266,
-3.10211,1.54419,
-3.09143,1.53046,
-3.08685,1.53503,
-3.08075,1.54266,
-3.07465,1.54114,
-3.07159,1.54266,
-3.06396,1.53809,
-3.05634,1.53198,
-3.04565,1.53809,
-3.04108,1.54114,
-3.03345,1.53961,
-3.02429,1.53351,
-3.01819,1.53198,
-3.01361,1.54114,
-3.01056,1.54114,
-3.00903,1.53961,
-3.00446,1.53198,
-2.99683,1.53198,
-2.99835,1.53961,
-2.99072,1.53961,
-2.98615,1.54114,
-2.98004,1.53198,
-2.97852,1.53809,
-2.97852,1.54114,
-2.97241,1.53961,
-2.96326,1.54114,
-2.96021,1.53961,
-2.948,1.53198,
-2.94342,1.54266,
-2.93884,1.54266,
-2.93121,1.54114,
-2.92816,1.53656,
-2.92358,1.53503,
-2.92053,1.54266,
-2.9129,1.54266,
-2.90985,1.54114,
-2.90527,1.53198,
-2.90375,1.53503,
-2.9007,1.53961,
-2.89307,1.54114,
-2.89154,1.54266,
-2.89001,1.53809,
-2.88696,1.52588,
-2.88544,1.53961,
-2.88391,1.54419,
-2.88391,1.53961,
-2.87781,1.53503,
-2.87628,1.53198,
-2.87323,1.54266,
-2.8717,1.54419,
-2.87018,1.53961,
-2.8717,1.54114,
-2.86865,1.53656,
-2.87018,1.54266,
-2.86865,1.54114,
-2.86713,1.54266,
-2.86713,1.53656,
-2.8656,1.53351,
-2.86713,1.54114,
-2.87018,1.53961,
-2.87018,1.54114,
-2.87476,1.53656,
-2.87476,1.53198,
-2.87781,1.54266,
-2.87933,1.53961,
-2.88239,1.53961,
-2.88086,1.53351,
-2.88696,1.55029,
-2.89307,1.53809,
-2.90527,1.54419,
-2.91748,1.53809,
-2.93427,1.53656,
-2.95258,1.53198,
-2.97089,1.54114,
-2.99377,1.54572,
-3.01666,1.52893,
-3.04108,1.53656,
-3.07159,1.53656,
-3.09906,1.53809,
-3.12195,1.54266,
-3.14789,1.54114,
-3.17078,1.53351,
-3.19519,1.53503,
-3.21655,1.54266,
-3.24097,1.53961,
-3.25928,1.53961,
-3.28064,1.53351,
-3.29895,1.53503,
-3.31726,1.53656,
-3.3371,1.53961,
-3.35388,1.54114,
-3.37067,1.53351,
-3.3844,1.53198,
-3.39661,1.53656,
-3.40729,1.54266,
-3.42255,1.54572,
-3.43475,1.53809,
-3.44696,1.53198,
-3.46069,1.54114,
-3.47748,1.54266,
-3.48969,1.54419,
-3.50037,1.52893,
-3.50952,1.53656,
-3.52325,1.53961,
-3.52936,1.54114,
-3.54462,1.53961,
-3.55225,1.53656,
-3.5614,1.53198,
-3.56903,1.53809,
-3.57513,1.53809,
-3.58276,1.54266,
-3.59039,1.53046,
-3.59497,1.54419,
-3.60107,1.54114,
-3.60413,1.54419,
-3.6087,1.54266,
-3.61481,1.53503,
-3.61938,1.53503,
-3.62396,1.54419,
-3.63159,1.54572,
-3.63464,1.53046,
-3.63464,1.53503,
-3.63464,1.53198,
-3.63464,1.53809,
-3.62854,1.53809,
-3.62244,1.54266,
-3.61176,1.53503,
-3.59497,1.52283,
-3.58582,1.53809,
-3.57056,1.54114,
-3.55988,1.54419,
-3.54004,1.53351,
-3.52631,1.53198,
-3.50494,1.53961,
-3.48511,1.53809,
-3.45917,1.53656,
-3.43628,1.53503,
-3.41034,1.53198,
-3.38287,1.53503,
-3.35388,1.53961,
-3.32489,1.53809,
-3.29285,1.53503,
-3.25928,1.53046,
-3.22266,1.53503,
-3.18756,1.53961,
-3.14941,1.53656,
-3.11432,1.53503,
-3.07465,1.53503,
-3.04108,1.53809,
-3.00293,1.54114,
-2.97241,1.54114,
-2.93732,1.53198,
-2.90527,1.53351,
-2.88239,1.53656,
-2.85797,1.53656,
-2.84119,1.54114,
-2.81525,1.53503,
-2.79999,1.53503,
-2.7832,1.53656,
-2.76794,1.53809,
-2.75726,1.54114,
-2.74811,1.53503,
-2.742,1.53503,
-2.73438,1.53351,
-2.72827,1.53961,
-2.72675,1.53503,
-2.72217,1.53046,
-2.71912,1.53503,
-2.71759,1.53961,
-2.71454,1.53198,
-2.70844,1.53351,
-2.71301,1.53503,
-2.71912,1.53046,
-2.72369,1.53656,
-2.73285,1.53656,
-2.74353,1.53809,
-2.75879,1.54114,
-2.77252,1.53503,
-2.78778,1.53351,
-2.80304,1.53809,
-2.82288,1.53503,
-2.84119,1.52893,
-2.86865,1.53046,
-2.89307,1.53046,
-2.91748,1.53809,
-2.94495,1.53809,
-2.97241,1.52893,
-2.99835,1.53046,
-3.02887,1.53809,
-3.05481,1.53809,
-3.0838,1.53656,
-3.11127,1.53351,
-3.13721,1.5213,
-3.1601,1.53351,
-3.18451,1.53198,
-3.20587,1.53656,
-3.22418,1.53046,
-3.24402,1.53198,
-3.2608,1.52893,
-3.27759,1.53656,
-3.29285,1.53656,
-3.30963,1.52588,
-3.32489,1.53198,
-3.34015,1.53656,
-3.3493,1.53503,
-3.36456,1.53198,
-3.37677,1.52893,
-3.38745,1.53046,
-3.38898,1.53351,
-3.39661,1.54114,
-3.40118,1.53809,
-3.40729,1.53351,
-3.41492,1.53046,
-3.41492,1.53198,
-3.41949,1.53809,
-3.4256,1.53809,
-3.43018,1.52588,
-3.4317,1.53198,
-3.43628,1.53198,
-3.44543,1.53809,
-3.44849,1.53351,
-3.45612,1.52893,
-3.45612,1.53351,
-3.46375,1.53198,
-3.46832,1.53351,
-3.47595,1.52893,
-3.48511,1.52893,
-3.49121,1.53503,
-3.49731,1.53198,
-3.508,1.53503,
-3.51105,1.53503,
-3.51563,1.53198,
-3.5202,1.52893,
-3.52631,1.53198,
-3.53241,1.53198,
-3.53394,1.53198,
-3.53851,1.52435,
-3.53699,1.52283,
-3.53851,1.53656,
-3.53699,1.52588,
-3.54004,1.5213,
-3.53699,1.53046,
-3.53851,1.52435,
-3.53851,1.53198,
-3.53241,1.53351,
-3.53241,1.52893,
-3.52631,1.53961,
-3.51868,1.53503,
-3.50342,1.52435,
-3.49579,1.53351,
-3.48969,1.53351,
-3.479,1.52893,
-3.4668,1.52893,
-3.45612,1.52588,
-3.44696,1.53503,
-3.4317,1.53198,
-3.42407,1.52435,
-3.41339,1.53198,
-3.41187,1.52893,
-3.40881,1.53046,
-3.40271,1.52893,
-3.39508,1.52893,
-3.39508,1.52588,
-3.38898,1.52893,
-3.3844,1.53198,
-3.37982,1.53198,
-3.37219,1.53046,
-3.37372,1.52435,
-3.36609,1.52893,
-3.36609,1.53351,
-3.36456,1.52893,
-3.36304,1.52588,
-3.36151,1.52588,
-3.36456,1.53046,
-3.36304,1.53046,
-3.36456,1.52893,
-3.37067,1.52588,
-3.36609,1.53046,
-3.36609,1.52283,
-3.37067,1.52893,
-3.37677,1.53046,
-3.3905,1.52588,
-3.39508,1.52588,
-3.40576,1.52588,
-3.41492,1.53351,
-3.42102,1.53198,
-3.42712,1.52435,
-3.43475,1.52588,
-3.44086,1.52893,
-3.44696,1.53351,
-3.45612,1.52893,
-3.46069,1.52588,
-3.47137,1.52893,
-3.47748,1.52893,
-3.48816,1.52588,
-3.49731,1.53046,
-3.508,1.51825,
-3.5202,1.52435,
-3.53088,1.52435,
-3.54614,1.53198,
-3.55835,1.52893,
-3.57819,1.52435,
-3.59497,1.52283,
-3.61328,1.52588,
-3.63007,1.52893,
-3.64685,1.52588,
-3.66058,1.51978,
-3.66974,1.52893,
-3.67737,1.5213,
-3.68652,1.51978,
-3.68958,1.51825,
-3.6911,1.52283,
-3.68805,1.5213,
-3.685,1.52283,
-3.68042,1.52283,
-3.67126,1.5213,
-3.66364,1.52435,
-3.65448,1.52283,
-3.64075,1.5213,
-3.63464,1.52893,
-3.62701,1.52283,
-3.61633,1.5213,
-3.6087,1.52435,
-3.59802,1.52283,
-3.58582,1.52588,
-3.58124,1.52435,
-3.57361,1.5213,
-3.56445,1.5213,
-3.55682,1.52435,
-3.55072,1.5213,
-3.54462,1.52588,
-3.53546,1.52435,
-3.53851,1.5213,
-3.53394,1.51978,
-3.52631,1.53046,
-3.52173,1.52588,
-3.52173,1.52435,
-3.51868,1.51825,
-3.51715,1.51672,
-3.51715,1.52435,
-3.51715,1.5213,
-3.51563,1.5213,
-3.51257,1.51978,
-3.508,1.5213,
-3.50189,1.52893,
-3.49884,1.52283,
-3.49731,1.52435,
-3.49426,1.51978,
-3.48511,1.51825,
-3.48358,1.53198,
-3.48663,1.51978,
-3.48511,1.51978,
-3.48511,1.5213,
-3.48663,1.52893,
-3.48511,1.52893,
-3.48206,1.52435,
-3.48511,1.51978,
-3.47748,1.52283,
-3.47595,1.51215,
-3.46985,1.51367,
-3.46527,1.51978,
-3.46375,1.51825,
-3.45917,1.51825,
-3.45612,1.5152,
-3.45001,1.52893,
-3.44849,1.5213,
-3.44391,1.51825,
-3.43323,1.51825,
-3.42712,1.51672,
-3.41949,1.52283,
-3.41339,1.51978,
-3.40576,1.51978,
-3.39966,1.51978,
-3.39203,1.51978,
-3.38593,1.5213,
-3.38135,1.51978,
-3.37372,1.51825,
-3.36304,1.51825,
-3.35541,1.5152,
-3.34778,1.52435,
-3.33862,1.51978,
-3.33099,1.51825,
-3.32489,1.51825,
-3.31726,1.51672,
-3.30811,1.51978,
-3.302,1.51978,
-3.29437,1.51672,
-3.28522,1.51672,
-3.27911,1.51825,
-3.26385,1.5213,
-3.25317,1.51978,
-3.24554,1.51215,
-3.23639,1.51215,
-3.23029,1.51367,
-3.22418,1.51978,
-3.22418,1.51978,
-3.21808,1.51672,
-3.2135,1.51978,
-3.21503,1.51672,
-3.21198,1.53961,
-3.20587,1.51825,
-3.20282,1.51215,
-3.20129,1.51367,
-3.19977,1.51825,
-3.19672,1.51978,
-3.19672,1.51367,
-3.19672,1.51672,
-3.19672,1.51672,
-3.19672,1.51672,
-3.19366,1.51825,
-3.20282,1.51367,
-3.20435,1.51672,
-3.20892,1.51672,
-3.21503,1.5152,
-3.2196,1.51825,
-3.22723,1.51672,
-3.23944,1.50757,
-3.24249,1.5152,
-3.25317,1.51367,
-3.25928,1.5152,
-3.27606,1.51672,
-3.28979,1.51215,
-3.30353,1.51367,
-3.32031,1.51367,
-3.33862,1.51978,
-3.35236,1.51672,
-3.36456,1.51215,
-3.37982,1.51367,
-3.38898,1.5152,
-3.39813,1.51825,
-3.41034,1.51825,
-3.41797,1.5152,
-3.4256,1.51062,
-3.43475,1.51215,
-3.44543,1.51825,
-3.46069,1.51825,
-3.47443,1.51672,
-3.48816,1.51367,
-3.50037,1.51672,
-3.5202,1.51825,
-3.53699,1.51367,
-3.55682,1.51215,
-3.57056,1.51215,
-3.59039,1.5152,
-3.59955,1.51215,
-3.61786,1.53046,
-3.62854,1.5152,
-3.6438,1.5152,
-3.65906,1.51215,
-3.66974,1.51672,
-3.685,1.51367,
-3.70331,1.51672,
-3.71857,1.50909,
-3.73535,1.5152,
-3.74908,1.51978,
-3.76434,1.51672,
-3.7735,1.51062,
-3.79028,1.51215,
-3.79791,1.51215,
-3.81165,1.51978,
-3.8269,1.51367,
-3.83148,1.51367,
-3.84369,1.51367,
-3.85742,1.51367,
-3.86505,1.51825,
-3.87421,1.51672,
-3.88947,1.51215,
-3.89862,1.50909,
-3.90778,1.51062,
-3.91846,1.51978,
-3.92914,1.5152,
-3.93677,1.51367,
-3.94745,1.51215,
-3.95813,1.5152,
-3.96576,1.51825,
-3.97034,1.51672,
-3.97491,1.51215,
-3.97797,1.51215,
-3.98254,1.51215,
-3.98254,1.51672,
-3.98712,1.51825,
-3.99323,1.51367,
-3.98712,1.51215,
-3.98407,1.51367,
-3.98254,1.5213,
-3.97491,1.51367,
-3.96881,1.51062,
-3.9566,1.50757,
-3.94135,1.51062,
-3.92151,1.50909,
-3.90015,1.5152,
-3.87726,1.51215,
-3.85284,1.51215,
-3.82538,1.51062,
-3.79486,1.5152,
-3.75977,1.51215,
-3.72925,1.53198,
-3.68958,1.51062,
-3.65448,1.51367,
-3.61786,1.51672,
-3.58276,1.51825,
-3.55225,1.51215,
-3.52173,1.50299,
-3.48816,1.51215,
-3.45459,1.51825,
-3.4256,1.51672,
-3.40118,1.5152,
-3.37372,1.51062,
-3.35541,1.51367,
-3.32642,1.52283,
-3.30353,1.51367,
-3.28369,1.51215,
-3.26538,1.51062,
-3.2486,1.51062,
-3.23334,1.51672,
-3.21808,1.51672,
-3.20282,1.5152,
-3.18451,1.51215,
-3.17535,1.50909,
-3.1662,1.51825,
-3.15399,1.5213,
-3.14636,1.51672,
-3.14178,1.51367,
-3.13568,1.51672,
-3.13263,1.51978,
-3.125,1.51672,
-3.1189,1.51215,
-3.12042,1.5152,
-3.11432,1.5152,
-3.11279,1.51672,
-3.11432,1.51825,
-3.11584,1.5152,
-3.12042,1.51062,
-3.12347,1.51672,
-3.125,1.51978,
-3.13263,1.51978,
-3.13721,1.51367,
-3.14331,1.49841,
-3.14789,1.51215,
-3.15552,1.51978,
-3.16162,1.51672,
-3.16925,1.51367,
-3.17841,1.51367,
-3.19061,1.51672,
-3.19672,1.51978,
-3.21503,1.5152,
-3.22571,1.51672,
-3.24097,1.51215,
-3.25928,1.51215,
-3.27301,1.5213,
-3.28522,1.51978,
-3.29895,1.51825,
-3.31421,1.51367,
-3.32947,1.5152,
-3.34625,1.52283,
-3.35999,1.5213,
-3.37982,1.5152,
-3.39508,1.5152,
-3.41492,1.51367,
-3.43018,1.5213,
-3.44391,1.51672,
-3.46375,1.51672,
-3.47748,1.51825,
-3.49121,1.51367,
-3.508,1.51978,
-3.52173,1.52283,
-3.52936,1.51825,
-3.54309,1.51672,
-3.55682,1.5152,
-3.5675,1.52283,
-3.58276,1.52893,
-3.58887,1.51215,
-3.59802,1.51672,
-3.60565,1.51978,
-3.61328,1.5213,
-3.62091,1.53656,
-3.62396,1.51672,
-3.63007,1.5152,
-3.63464,1.51978,
-3.63464,1.52435,
-3.6377,1.52283,
-3.64227,1.51978,
-3.64838,1.51825,
-3.6499,1.51978,
-3.65448,1.5213,
-3.66211,1.52283,
-3.66211,1.51978,
-3.66821,1.51978,
-3.66974,1.51825,
-3.67432,1.52435,
-3.67432,1.52283,
-3.67584,1.51825,
-3.67432,1.51672,
-3.67126,1.52283,
-3.67737,1.53046,
-3.67737,1.52435,
-3.67584,1.52283,
-3.67432,1.5213,
-3.66821,1.52283,
-3.66669,1.52435,
-3.66364,1.53198,
-3.66058,1.5152,
-3.65448,1.5213,
-3.6499,1.52283,
-3.64075,1.52435,
-3.62701,1.53046,
-3.62549,1.5213,
-3.61176,1.5213,
-3.60107,1.52435,
-3.59192,1.52588,
-3.58276,1.52588,
-3.5675,1.52588,
-3.55225,1.51978,
-3.54309,1.52588,
-3.53546,1.52588,
-3.52936,1.52893,
-3.52631,1.5213,
-3.52478,1.5213,
-3.51563,1.5213,
-3.51105,1.52893,
-3.49884,1.53046,
-3.49426,1.53046,
-3.48663,1.52435,
-3.48358,1.52588,
-3.47748,1.53351,
-3.47595,1.53046,
-3.47137,1.5213,
-3.46527,1.52588,
-3.46069,1.52435,
-3.45764,1.53503,
-3.45764,1.52588,
-3.45459,1.52588,
-3.45459,1.52893,
-3.45001,1.52588,
-3.45001,1.52893,
-3.45001,1.52893,
-3.44849,1.52893,
-3.45154,1.52588,
-3.45001,1.52893,
-3.45459,1.53198,
-3.46222,1.53351,
-3.46832,1.52893,
-3.47595,1.5213,
-3.48511,1.52588,
-3.49579,1.53351,
-3.50037,1.53198,
-3.51563,1.52893,
-3.52173,1.52588,
-3.53546,1.53046,
-3.54309,1.53961,
-3.5553,1.53351,
-3.56293,1.53198,
-3.57361,1.52588,
-3.58276,1.52893,
-3.59344,1.53656,
-3.60565,1.53656,
-3.61328,1.52435,
-3.62549,1.52435,
-3.64075,1.53046,
-3.65753,1.53656,
-3.67432,1.52283,
-3.68652,1.52893,
-3.70483,1.52893,
-3.72162,1.53046,
-3.74146,1.53656,
-3.75671,1.53809,
-3.76892,1.53198,
-3.78418,1.52588,
-3.79333,1.53351,
-3.79944,1.53656,
-3.80249,1.53351,
-3.79944,1.53046,
-3.79486,1.53198,
-3.78876,1.53351,
-3.77808,1.53809,
-3.77197,1.55182,
-3.76129,1.53351,
-3.74908,1.52893,
-3.73993,1.53046,
-3.72314,1.53961,
-3.71246,1.53503,
-3.70483,1.53351,
-3.69263,1.53046,
-3.685,1.53503,
-3.67279,1.53809,
-3.66821,1.53809,
-3.65906,1.53656,
-3.65448,1.53198,
-3.65295,1.53198,
-3.64685,1.53809,
-3.6377,1.53961,
-3.63464,1.53656,
-3.63312,1.53656,
-3.63159,1.53351,
-3.62396,1.54419,
-3.62244,1.53961,
-3.62396,1.53351,
-3.62396,1.53198,
-3.62549,1.53809,
-3.62549,1.53961,
-3.62701,1.53961,
-3.62701,1.53656,
-3.62854,1.53503,
-3.62701,1.53503,
-3.62701,1.54114,
-3.62854,1.54266,
-3.63007,1.53656,
-3.63007,1.53351,
-3.63312,1.53656,
-3.63159,1.54419,
-3.63007,1.54419,
-3.62549,1.53961,
-3.62244,1.53503,
-3.61481,1.53503,
-3.60718,1.54877,
-3.59497,1.54266,
-3.58582,1.53503,
-3.57361,1.53809,
-3.5614,1.54266,
-3.55072,1.53961,
-3.54004,1.54572,
-3.52631,1.53961,
-3.51105,1.53503,
-3.49579,1.53809,
-3.48053,1.54114,
-3.46832,1.54572,
-3.45612,1.53809,
-3.44391,1.53809,
-3.4317,1.54114,
-3.41797,1.54572,
-3.40271,1.54572,
-3.39355,1.53656,
-3.37982,1.53809,
-3.36456,1.54419,
-3.35541,1.54114,
-3.3432,1.54572,
-3.33099,1.54114,
-3.32489,1.53809,
-3.31268,1.54266,
-3.29895,1.54419,
-3.29285,1.54724,
-3.28522,1.54266,
-3.27911,1.53809,
-3.27301,1.53809,
-3.26538,1.54724,
-3.2547,1.54877,
-3.2486,1.54419,
-3.24402,1.53656,
-3.23792,1.54266,
-3.23486,1.54572,
-3.22876,1.54724,
-3.22876,1.54419,
-3.22723,1.53961,
-3.22876,1.54266,
-3.22571,1.54572,
-3.2196,1.55182,
-3.21655,1.54419,
-3.21045,1.54114,
-3.20587,1.53961,
-3.20435,1.55029,
-3.20435,1.55029,
-3.21045,1.54419,
-3.21503,1.53809,
-3.22266,1.54266,
-3.23486,1.54572,
-3.24249,1.54877,
-3.2547,1.53961,
-3.27148,1.54266,
-3.28674,1.54266,
-3.30353,1.54419,
-3.32336,1.54724,
-3.3432,1.54724,
-3.36456,1.54114,
-3.38898,1.53961,
-3.40729,1.55029,
-3.42407,1.54877,
-3.44391,1.54114,
-3.46527,1.54114,
-3.48663,1.54266,
-3.50494,1.54877,
-3.52478,1.54572,
-3.54462,1.54419,
-3.56293,1.54419,
-3.58429,1.54572,
-3.60107,1.54724,
-3.62396,1.55029,
-3.64838,1.54572,
-3.66211,1.54266,
-3.68195,1.54266,
-3.70026,1.54419,
-3.72314,1.55029,
-3.73535,1.54877,
-3.75214,1.53961,
-3.76282,1.54724,
-3.78113,1.54877,
-3.79181,1.55182,
-3.80249,1.54266,
-3.81165,1.54419,
-3.82233,1.54572,
-3.82996,1.55029,
-3.83759,1.55487,
-3.84369,1.54572,
-3.85284,1.54572,
-3.85742,1.54572,
-3.86047,1.54724,
-3.86963,1.55487,
-3.87878,1.54419,
-3.88794,1.54419,
-3.89557,1.54724,
-3.90167,1.55029,
-3.90778,1.55182,
-3.91235,1.54572,
-3.91541,1.54419,
-3.92151,1.54572,
-3.93372,1.55029,
-3.93524,1.55182,
-3.94287,1.54724,
-3.94745,1.54572,
-3.95203,1.54572,
-3.96118,1.55182,
-3.96576,1.55334,
-3.96881,1.5625,
-3.97644,1.54572,
-3.97491,1.54877,
-3.97797,1.55029,
-3.97797,1.55182,
-3.97491,1.54877,
-3.96729,1.55029,
-3.96271,1.55182,
-3.94897,1.55487,
-3.94287,1.54724,
-3.92761,1.54572,
-3.91235,1.54724,
-3.89862,1.54877,
-3.88031,1.55029,
-3.862,1.5564,
-3.84521,1.54724,
-3.81927,1.54724,
-3.79486,1.54724,
-3.7674,1.55182,
-3.73535,1.55487,
-3.70178,1.54877,
-3.66669,1.54114,
-3.63159,1.54877,
-3.59344,1.55334,
-3.55682,1.55334,
-3.5202,1.54877,
-3.48206,1.54877,
-3.44086,1.54724,
-3.40881,1.55487,
-3.37067,1.55182,
-3.3371,1.54877,
-3.30658,1.54724,
-3.27759,1.54877,
-3.25165,1.55334,
-3.22418,1.55334,
-3.2074,1.54877,
-3.18756,1.54877,
-3.17383,1.54877,
-3.15552,1.55792,
-3.14178,1.55334,
-3.13263,1.54724,
-3.12042,1.54572,
-3.11737,1.54877,
-3.11432,1.54877,
-3.11127,1.5564,
-3.11127,1.54877,
-3.11279,1.54877,
-3.12042,1.54877,
-3.1311,1.55029,
-3.13873,1.5564,
-3.15247,1.54724,
-3.16772,1.54114,
-3.18146,1.55029,
-3.19214,1.55182,
-3.21045,1.55792,
-3.22723,1.55029,
-3.2486,1.54724,
-3.26538,1.55029,
-3.28674,1.55182,
-3.30963,1.55487,
-3.32489,1.54419,
-3.3432,1.54877,
-3.36609,1.54877,
-3.3844,1.55334,
-3.40118,1.5564,
-3.42102,1.54877,
-3.44238,1.54877,
-3.46222,1.54266,
-3.47748,1.55182,
-3.49426,1.5564,
-3.5141,1.55029,
-3.53088,1.54724,
-3.54767,1.55029,
-3.55988,1.55029,
-3.57056,1.5564,
-3.58276,1.54877,
-3.5965,1.55182,
-3.60413,1.54877,
-3.62091,1.55029,
-3.62854,1.5564,
-3.63617,1.54724,
-3.6438,1.54877,
-3.65601,1.55029,
-3.66669,1.55334,
-3.66974,1.5564,
-3.67432,1.55029,
-3.68195,1.54724,
-3.68805,1.54877,
-3.68805,1.5564,
-3.6911,1.55792,
-3.6911,1.54877,
-3.69263,1.54877,
-3.68958,1.55182,
-3.68805,1.55334,
-3.68958,1.5564,
-3.6911,1.55182,
-3.69415,1.55029,
-3.6972,1.54877,
-3.69568,1.55487,
-3.69415,1.55487,
-3.6972,1.55029,
-3.69873,1.55029,
-3.6972,1.55182,
-3.69873,1.5564,
-3.70178,1.5564,
-3.69873,1.54877,
-3.69263,1.54877,
-3.6911,1.54877,
-3.68042,1.55487,
-3.66974,1.5564,
-3.66211,1.55182,
-3.6499,1.55029,
-3.63464,1.55029,
-3.62091,1.55334,
-3.60565,1.5564,
-3.59192,1.55182,
-3.57819,1.54724,
-3.5614,1.54724,
-3.54614,1.55334,
-3.52783,1.5564,
-3.5141,1.55182,
-3.49731,1.55029,
-3.479,1.55182,
-3.46527,1.5564,
-3.45306,1.5564,
-3.44696,1.55182,
-3.43018,1.55029,
-3.41949,1.55029,
-3.40729,1.5564,
-3.39813,1.5564,
-3.3905,1.55182,
-3.37982,1.54877,
-3.37524,1.54877,
-3.36609,1.5564,
-3.35999,1.55487,
-3.35388,1.54877,
-3.34778,1.54572,
-3.35083,1.55029,
-3.34473,1.55334,
-3.34473,1.5625,
-3.3432,1.55029,
-3.34167,1.54724,
-3.34167,1.55487,
-3.3371,1.55182,
-3.33405,1.55792,
-3.33405,1.54114,
-3.33252,1.54724,
-3.33405,1.54724,
-3.3371,1.55334,
-3.33405,1.5564,
-3.33405,1.54877,
-3.33405,1.54724,
-3.33862,1.5564,
-3.3371,1.55334,
-3.34015,1.55029,
-3.33862,1.54877,
-3.34015,1.54724,
-3.3371,1.55182,
-3.34167,1.55487,
-3.34625,1.55945,
-3.34778,1.55029,
-3.35541,1.55029,
-3.36151,1.55182,
-3.36761,1.55334,
-3.37677,1.55945,
-3.38593,1.54877,
-3.40118,1.54572,
-3.41644,1.55029,
-3.42712,1.5564,
-3.44238,1.5564,
-3.45764,1.54877,
-3.47595,1.54572,
-3.49121,1.55182,
-3.50494,1.55182,
-3.51868,1.55487,
-3.53546,1.55029,
-3.55377,1.54877,
-3.5675,1.55029,
-3.58582,1.55334,
-3.60565,1.55792,
-3.62701,1.54724,
-3.64227,1.54419,
-3.65906,1.54877,
-3.67737,1.55487,
-3.6911,1.55487,
-3.70636,1.54724,
-3.71857,1.54877,
-3.73077,1.54877,
-3.75366,1.55334,
-3.76434,1.55334,
-3.7796,1.55029,
-3.79028,1.55029,
-3.79791,1.55029,
-3.80554,1.55334,
-3.8147,1.55487,
-3.82538,1.55029,
-3.83148,1.54419,
-3.83453,1.54877,
-3.83759,1.55487,
-3.83759,1.55182,
-3.83453,1.54724,
-3.82843,1.55029,
-3.8147,1.54877,
-3.80402,1.55182,
-3.79333,1.55792,
-3.7735,1.55029,
-3.76129,1.54572,
-3.74298,1.55182,
-3.72162,1.54877,
-3.70178,1.55487,
-3.68195,1.54877,
-3.65753,1.54572,
-3.63464,1.54877,
-3.61328,1.55334,
-3.5965,1.55487,
-3.57208,1.55029,
-3.55072,1.54724,
-3.52936,1.55182,
-3.50342,1.55334,
-3.48663,1.55334,
-3.46222,1.54877,
-3.44543,1.54572,
-3.42255,1.54724,
-3.39966,1.55182,
-3.38287,1.55487,
-3.36304,1.54419,
-3.34625,1.54114,
-3.32642,1.54877,
-3.30811,1.55182,
-3.28674,1.55487,
-3.26843,1.54724,
-3.25317,1.54572,
-3.23944,1.54877,
-3.22723,1.54877,
-3.20892,1.55487,
-3.19672,1.54724,
-3.18451,1.54572,
-3.1723,1.54877,
-3.16467,1.55487,
-3.14941,1.55487,
-3.13721,1.54877,
-3.12805,1.54877,
-3.1189,1.54724,
-3.10974,1.55182,
-3.10059,1.55487,
-3.08838,1.53809,
-3.08228,1.55792,
-3.07465,1.54724,
-3.06549,1.54877,
-3.06702,1.55182,
-3.05939,1.54724,
-3.05328,1.53961,
-3.04565,1.55029,
-3.04718,1.54877,
-3.04565,1.5564,
-3.04413,1.54877,
-3.0426,1.54724,
-3.03802,1.54724,
-3.0426,1.55029,
-3.0426,1.55182,
-3.0426,1.55029,
-3.0426,1.54419,
-3.04108,1.54724,
-3.04108,1.55334,
-3.04565,1.55334,
-3.0426,1.54724,
-3.05023,1.54572,
-3.05481,1.54572,
-3.06396,1.54724,
-3.07159,1.55029,
-3.0777,1.54724,
-3.08685,1.54419,
-3.09906,1.54572,
-3.10974,1.55334,
-3.12042,1.55334,
-3.14178,1.54572,
-3.15094,1.53656,
-3.16925,1.54572,
-3.18146,1.55029,
-3.20282,1.55029,
-3.22266,1.54572,
-3.23944,1.54419,
-3.25623,1.54724,
-3.27301,1.54724,
-3.28827,1.54877,
-3.30658,1.55029,
-3.32184,1.54114,
-3.34167,1.54114,
-3.36304,1.54877,
-3.37677,1.54877,
-3.3905,1.54572,
-3.40118,1.54266,
-3.42102,1.54419,
-3.4317,1.55029,
-3.44391,1.54724,
-3.45459,1.54724,
-3.46832,1.54724,
-3.48358,1.53809,
-3.49426,1.54572,
-3.50494,1.55182,
-3.51715,1.54266,
-3.52631,1.54724,
-3.53394,1.54419,
-3.54919,1.55029,
-3.5614,1.54877,
-3.56903,1.53351,
-3.57513,1.53503,
-3.58582,1.54419,
-3.59192,1.54877,
-3.60413,1.54877,
-3.61328,1.54419,
-3.61328,1.54114,
-3.61938,1.55487,
-3.62244,1.55182,
-3.63159,1.54266,
-3.63464,1.54266,
-3.6377,1.54419,
-3.64227,1.54572,
-3.64838,1.54572,
-3.65143,1.54877,
-3.65601,1.54572,
-3.66058,1.53961,
-3.66364,1.54419,
-3.67126,1.55029,
-3.67584,1.54724,
-3.685,1.54419,
-3.68958,1.54572,
-3.69415,1.54724,
-3.70026,1.54877,
-3.70636,1.54724,
-3.70941,1.54266,
-3.71552,1.54114,
-3.71552,1.54114,
-3.71552,1.54724,
-3.71552,1.54572,
-3.70941,1.54419,
-3.70483,1.54266,
-3.70026,1.54114,
-3.69568,1.54724,
-3.68958,1.54572,
-3.67584,1.53961,
-3.66516,1.53961,
-3.65448,1.54114,
-3.64227,1.54572,
-3.62701,1.53503,
-3.61938,1.54114,
-3.6026,1.53961,
-3.58734,1.53961,
-3.57208,1.54419,
-3.55988,1.54266,
-3.54767,1.54419,
-3.53088,1.53961,
-3.51563,1.54266,
-3.49884,1.54419,
-3.48358,1.54419,
-3.47595,1.54266,
-3.46222,1.53809,
-3.44849,1.53809,
-3.43475,1.54572,
-3.42102,1.53503,
-3.41797,1.54266,
-3.41187,1.53809,
-3.40271,1.54266,
-3.39508,1.54419,
-3.39203,1.54114,
-3.38593,1.54114,
-3.3844,1.53961,
-3.3844,1.54114,
-3.38287,1.54572,
-3.37982,1.54266,
-3.38135,1.54266,
-3.38135,1.53503,
-3.3783,1.54266,
-3.37677,1.54266,
-3.37677,1.54419,
-3.37677,1.54114,
-3.37372,1.53809,
-3.37067,1.54114,
-3.36456,1.54266,
-3.36304,1.54419,
-3.35846,1.54114,
-3.35846,1.53809,
-3.35388,1.53961,
-3.35236,1.54419,
-3.3493,1.54266,
-3.35236,1.54114,
-3.3493,1.53809,
-3.35083,1.54114,
-3.3493,1.54419,
-3.34625,1.53961,
-3.34625,1.54114,
-3.34167,1.53503,
-3.33862,1.53656,
-3.32947,1.54114,
-3.32642,1.54266,
-3.31879,1.53656,
-3.30811,1.53656,
-3.29742,1.53809,
-3.28827,1.54114,
-3.27911,1.53656,
-3.26996,1.53961,
-3.26233,1.54266,
-3.2547,1.53809,
-3.24707,1.53961,
-3.24707,1.54114,
-3.24402,1.53503,
-3.23639,1.53351,
-3.23792,1.52435,
-3.23334,1.5564,
-3.23334,1.53961,
-3.23486,1.54114,
-3.24097,1.53503,
-3.24249,1.53656,
-3.24554,1.54266,
-3.2547,1.53809,
-3.2608,1.53809,
-3.26996,1.53503,
-3.27759,1.53503,
-3.28827,1.53961,
-3.2959,1.53961,
-3.31268,1.53656,
-3.32031,1.53351,
-3.32642,1.53656,
-3.33405,1.54266,
-3.34625,1.53503,
-3.35388,1.53656,
-3.36609,1.53351,
-3.37677,1.53198,
-3.38593,1.54266,
-3.39203,1.53961,
-3.39661,1.53656,
-3.40576,1.53351,
-3.41034,1.53351,
-3.41492,1.53809,
-3.42102,1.53961,
-3.42255,1.53503,
-3.42865,1.53198,
-3.43323,1.53503,
-3.4317,1.53961,
-3.43323,1.53656,
-3.43628,1.53351,
-3.43628,1.53046,
-3.43475,1.53351,
-3.43323,1.53961,
-3.43018,1.53198,
-3.43323,1.53809,
-3.4317,1.53046,
-3.4317,1.53503,
-3.42712,1.53351,
-3.42255,1.53503,
-3.41797,1.53351,
-3.41187,1.53198,
-3.40271,1.53198,
-3.39813,1.53961,
-3.39355,1.53503,
-3.38898,1.53198,
-3.38745,1.52435,
-3.38593,1.53809,
-3.37372,1.53656,
-3.37219,1.53656,
-3.36609,1.53198,
-3.36151,1.53198,
-3.35388,1.53503,
-3.34015,1.53809,
-3.32947,1.53656,
-3.31573,1.53503,
-3.302,1.53046,
-3.28522,1.53351,
-3.27759,1.53656,
-3.26538,1.53809,
-3.2547,1.53198,
-3.24249,1.52893,
-3.23334,1.53198,
-3.21503,1.53351,
-3.20435,1.53351,
-3.18909,1.53198,
-3.17993,1.52893,
-3.16925,1.53656,
-3.15704,1.53198,
-3.15399,1.53351,
-3.15094,1.53046,
-3.14484,1.53046,
-3.14178,1.53198,
-3.13568,1.53503,
-3.12805,1.53503,
-3.12042,1.53198,
-3.10974,1.52893,
-3.10364,1.52893,
-3.10211,1.53656,
-3.09753,1.53351,
-3.09143,1.52893,
-3.08838,1.52435,
-3.08533,1.52893,
-3.08685,1.53656,
-3.08228,1.53046,
-3.08228,1.52893,
-3.08228,1.52893,
-3.08228,1.52588,
-3.08533,1.53198,
-3.08533,1.53351,
-3.08685,1.52893,
-3.08685,1.52283,
-3.09296,1.52893,
-3.10211,1.53351,
-3.11127,1.53656,
-3.12195,1.52435,
-3.12805,1.52283,
-3.14178,1.52435,
-3.15399,1.53351,
-3.16925,1.53046,
-3.18451,1.52435,
-3.20129,1.5213,
-3.2196,1.52588,
-3.23639,1.53046,
-3.2547,1.53046,
-3.27759,1.53046,
-3.29285,1.52435,
-3.31573,1.52435,
-3.33252,1.52893,
-3.35388,1.52588,
-3.3783,1.52893,
-3.39661,1.52283,
-3.41797,1.53198,
-3.43475,1.53046,
-3.45612,1.53046,
-3.47443,1.52893,
-3.48511,1.52588,
-3.50189,1.52588,
-3.51715,1.53198,
-3.53088,1.52893,
-3.54462,1.52588,
-3.55072,1.51978,
-3.55988,1.52435,
-3.57208,1.52283,
-3.57819,1.52893,
-3.58887,1.52588,
-3.5965,1.51367,
-3.60413,1.52588,
-3.61328,1.51825,
-3.61786,1.53046,
-3.62396,1.52283,
-3.63007,1.5213,
-3.63617,1.52435,
-3.63922,1.53046,
-3.64685,1.51672,
-3.65143,1.5213,
-3.65906,1.51978,
-3.65601,1.52435,
-3.66516,1.52588,
-3.66821,1.52283,
-3.66974,1.52588,
-3.67432,1.52283,
-3.68042,1.51825,
-3.68805,1.5152,
-3.69415,1.52588,
-3.6972,1.52283,
-3.70331,1.51825,
-3.70483,1.52435,
-3.71552,1.52588,
-3.72009,1.51672,
-3.7262,1.52283,
-3.72925,1.51978,
-3.73993,1.52435,
-3.74908,1.52588,
-3.75214,1.52283,
-3.75824,1.52283,
-3.75977,1.52283,
-3.75824,1.52283,
-3.75671,1.54572,
-3.75214,1.52893,
-3.75214,1.5213,
-3.74451,1.51367,
-3.73535,1.51978,
-3.7262,1.52435,
-3.71094,1.52283,
-3.69873,1.5213,
-3.67737,1.51978,
-3.65448,1.51978,
-3.63312,1.5213,
-3.60413,1.51825,
-3.57971,1.5213,
-3.55377,1.5213,
-3.52173,1.51825,
-3.49274,1.52283,
-3.46375,1.51825,
-3.43933,1.5213,
-3.40881,1.51672,
-3.37677,1.51672,
-3.34778,1.51978,
-3.31879,1.5213,
-3.29437,1.51825,
-3.26538,1.51672,
-3.24249,1.5213,
-3.2196,1.51978,
-3.19977,1.5213,
-3.17535,1.51825,
-3.15399,1.51825,
-3.13721,1.5213,
-3.12195,1.51978,
-3.10822,1.5213,
-3.09753,1.51672,
-3.08533,1.51672,
-3.0777,1.51978,
-3.06854,1.5213,
-3.05634,1.5213,
-3.05176,1.51672,
-3.04871,1.51367,
-3.0426,1.51825,
-3.0426,1.51672,
-3.03955,1.51825,
-3.03497,1.51672,
-3.03497,1.51367,
-3.03345,1.51672,
-3.03802,1.52435,
-3.03345,1.5213,
-3.02429,1.5152,
-3.02429,1.5152,
-3.02429,1.51215,
-3.02124,1.5213,
-3.02887,1.51825,
-3.01971,1.51367,
-3.01971,1.51367,
-3.02734,1.51062,
-3.0304,1.51978,
-3.03802,1.51978,
-3.04565,1.5152,
-3.05481,1.51367,
-3.06549,1.51367,
-3.07617,1.51672,
-3.08685,1.51825,
-3.09906,1.51367,
-3.10822,1.51215,
-3.12042,1.51215,
-3.12805,1.5152,
-3.13873,1.5213,
-3.15094,1.51215,
-3.16467,1.51062,
-3.1723,1.51367,
-3.18604,1.51978,
-3.19672,1.51672,
-3.21503,1.51215,
-3.22571,1.51062,
-3.24249,1.51672,
-3.25775,1.5152,
-3.27148,1.5152,
-3.28217,1.5152,
-3.29742,1.51062,
-3.31116,1.51672,
-3.32184,1.51062,
-3.33252,1.51825,
-3.34625,1.51367,
-3.35541,1.51672,
-3.35999,1.50452,
-3.37067,1.51367,
-3.3783,1.5152,
-3.38135,1.51215,
-3.38745,1.51062,
-3.39508,1.51367,
-3.39813,1.53198,
-3.39813,1.5152,
-3.40576,1.51367,
-3.41034,1.51062,
-3.41492,1.51367,
-3.42102,1.51367,
-3.4256,1.5152,
-3.43018,1.51062,
-3.42865,1.50757,
-3.43628,1.50909,
-3.44238,1.51367,
-3.44696,1.51367,
-3.45154,1.51215,
-3.45917,1.50909,
-3.45764,1.50757,
-3.45764,1.51367,
-3.45917,1.51062,
-3.45917,1.50909,
-3.46375,1.50757,
-3.46222,1.50909,
-3.45459,1.51367,
-3.45764,1.50909,
-3.45612,1.51062,
-3.45306,1.50909,
-3.44696,1.50757,
-3.44849,1.51215,
-3.44391,1.51367,
-3.43628,1.50909,
-3.43018,1.50604,
-3.42255,1.50757,
-3.42102,1.51367,
-3.41644,1.51215,
-3.41644,1.50757,
-3.41187,1.50757,
-3.41339,1.51062,
-3.40881,1.51215,
-3.40118,1.51062,
-3.39813,1.51062,
-3.39813,1.50909,
-3.39355,1.50909,
-3.38898,1.51215,
-3.3905,1.5152,
-3.38593,1.50757,
-3.38135,1.50757,
-3.38135,1.51215,
-3.3844,1.49994,
-3.37982,1.50757,
-3.3844,1.50909,
-3.38593,1.50604,
-3.38593,1.51215,
-3.3905,1.50909,
-3.39355,1.51215,
-3.39355,1.50757,
-3.39661,1.50757,
-3.39355,1.50452,
-3.39813,1.51062,
-3.39661,1.51062,
-3.39661,1.50757,
-3.39661,1.50299,
-3.39355,1.50452,
-3.39661,1.50909,
-3.39661,1.50909,
-3.39966,1.50604,
-3.40118,1.50452,
-3.40271,1.50452,
-3.40118,1.50909,
-3.40118,1.50909,
-3.40271,1.50604,
-3.40576,1.49536,
-3.40271,1.50452,
-3.40271,1.50909,
-3.40576,1.50757,
-3.40271,1.50452,
-3.40271,1.49994,
-3.40729,1.49994,
-3.40729,1.50757,
-3.40729,1.50909,
-3.40881,1.50452,
-3.40881,1.49994,
-3.41339,1.50146,
-3.41339,1.50604,
-3.41339,1.50604,
-3.41339,1.50299,
-3.41034,1.50146,
-3.39966,1.50146,
-3.39203,1.50604,
-3.3844,1.51062,
-3.37524,1.50452,
-3.35999,1.50299,
-3.34625,1.50146,
-3.32184,1.50757,
-3.30658,1.5213,
-3.28522,1.49841,
-3.26233,1.49841,
-3.24097,1.49994,
-3.21808,1.50909,
-3.20282,1.50757,
-3.18298,1.49231,
-3.1601,1.50452,
-3.14636,1.50146,
-3.1311,1.50757,
-3.11584,1.50604,
-3.10516,1.49841,
-3.09296,1.49994,
-3.08075,1.49841,
-3.07312,1.50299,
-3.07159,1.51062,
-3.06854,1.49841,
-3.06702,1.49841,
-3.06244,1.49994,
-3.05634,1.50452,
-3.05023,1.50452,
-3.05176,1.49841,
-3.04718,1.49994,
-3.04871,1.50299,
-3.04871,1.50757,
-3.05023,1.50604,
-3.04871,1.49994,
-3.05176,1.49994,
-3.05176,1.49689,
-3.05328,1.50299,
-3.05786,1.50452,
-3.06396,1.50146,
-3.07007,1.49841,
-3.0777,1.49841,
-3.08685,1.50299,
-3.09601,1.50604,
-3.10516,1.49689,
-3.10974,1.49994,
-3.12042,1.49994,
-3.12195,1.50452,
-3.1311,1.50604,
-3.13568,1.49231,
-3.14026,1.49841,
-3.14789,1.49994,
-3.15247,1.49994,
-3.15247,1.50452,
-3.1601,1.49689,
-3.15857,1.49536,
-3.16467,1.49841,
-3.16925,1.50452,
-3.17078,1.50757,
-3.17383,1.49689,
-3.17688,1.49841,
-3.18146,1.49841,
-3.18604,1.50299,
-3.18756,1.49841,
-3.19214,1.49536,
-3.19672,1.50146,
-3.19366,1.49536,
-3.19061,1.50299,
-3.19061,1.50299,
-3.18909,1.49689,
-3.18604,1.49536,
-3.18909,1.49536,
-3.18298,1.50146,
-3.18146,1.50299,
-3.18298,1.49231,
-3.18146,1.49536,
-3.18298,1.49231,
-3.17688,1.50146,
-3.17688,1.50452,
-3.1723,1.49231,
-3.17078,1.49536,
-3.17078,1.48926,
-3.17078,1.49994,
-3.17078,1.50299,
-3.1723,1.49536,
-3.17535,1.49841,
-3.17535,1.49536,
-3.17535,1.49841,
-3.17841,1.50299,
-3.17688,1.49078,
-3.17841,1.49536,
-3.17993,1.49536,
-3.17993,1.49841,
-3.17993,1.50299,
-3.17688,1.48926,
-3.17993,1.49231,
-3.18146,1.49841,
-3.18298,1.50299,
-3.18604,1.49994,
-3.19061,1.48926,
-3.19061,1.49231,
-3.19519,1.49078,
-3.19977,1.49231,
-3.20587,1.49841,
-3.20892,1.49078,
-3.21198,1.49536,
-3.21808,1.48926,
-3.2196,1.49994,
-3.22723,1.49994,
-3.22876,1.49231,
-3.23486,1.49078,
-3.23792,1.49078,
-3.24097,1.50146,
-3.24249,1.50146,
-3.24097,1.49231,
-3.23792,1.49689,
-3.24249,1.49231,
-3.24097,1.49078,
-3.24554,1.49536,
-3.24402,1.50604,
-3.24402,1.49078,
-3.24249,1.49231,
-3.24402,1.49536,
-3.24707,1.49841,
-3.25165,1.49078,
-3.25317,1.48926,
-3.25317,1.48926,
-3.25165,1.49536,
-3.25012,1.49689,
-3.2486,1.48926,
-3.24707,1.49078,
-3.24402,1.48926,
-3.23639,1.49231,
-3.23639,1.49994,
-3.22723,1.48773,
-3.22266,1.48926,
-3.21655,1.48773,
-3.21045,1.49536,
-3.2135,1.49689,
-3.20892,1.48926,
-3.20892,1.48926,
-3.20129,1.49231,
-3.19672,1.49689,
-3.19214,1.49689,
-3.18909,1.48621,
-3.18604,1.48926,
-3.18604,1.48926,
-3.18756,1.49231,
-3.18604,1.49689,
-3.17688,1.49078,
-3.17688,1.48926,
-3.18146,1.48773,
-3.17841,1.49231,
-3.17383,1.49689,
-3.17078,1.48773,
-3.1723,1.48926,
-3.17078,1.48315,
-3.17078,1.49078,
-3.16925,1.49841,
-3.17688,1.48621,
-3.17383,1.48621,
-3.16925,1.48926,
-3.17535,1.49231,
-3.17993,1.49536,
-3.17688,1.48621,
-3.18146,1.48468,
-3.18756,1.48468,
-3.19519,1.49078,
-3.19672,1.49078,
-3.20435,1.48926,
-3.20435,1.48468,
-3.20587,1.48773,
-3.20282,1.49231,
-3.20129,1.49689,
-3.19977,1.48315,
-3.19214,1.48926,
-3.18146,1.48621,
-3.17383,1.49231,
-3.1601,1.49841,
-3.15247,1.48315,
-3.14331,1.47705,
-3.13721,1.48621,
-3.12805,1.49078,
-3.1189,1.49078,
-3.10822,1.48926,
-3.10669,1.48468,
-3.09296,1.48621,
-3.08533,1.48773,
-3.08075,1.49078,
-3.07617,1.48926,
-3.07465,1.48315,
-3.07159,1.48621,
-3.07007,1.48773,
-3.07007,1.48926,
-3.06854,1.48621,
-3.06702,1.48621,
-3.06549,1.48926,
-3.06549,1.48773,
-3.06549,1.48926,
-3.06702,1.48621,
-3.06854,1.48773,
-3.07007,1.48468,
-3.07312,1.48773,
-3.07312,1.48926,
-3.07617,1.48621,
-3.08533,1.48315,
-3.08838,1.48468,
-3.09296,1.49078,
-3.09601,1.48773,
-3.10059,1.48468,
-3.10364,1.48315,
-3.10669,1.48468,
-3.10974,1.48468,
-3.11279,1.48773,
-3.11279,1.48315,
-3.11584,1.48468,
-3.12042,1.48468,
-3.12195,1.48468,
-3.11737,1.48773,
-3.1189,1.48773,
-3.11584,1.48468,
-3.11584,1.48773,
-3.10516,1.48621,
-3.10059,1.48773,
-3.09906,1.48468,
-3.08685,1.48315,
-3.08075,1.4801,
-3.07159,1.48621,
-3.06396,1.48163,
-3.05786,1.48621,
-3.04871,1.48468,
-3.03802,1.47552,
-3.02734,1.48621,
-3.01361,1.48773,
-3.0014,1.48773,
-2.9892,1.47858,
-2.98004,1.4801,
-2.96936,1.48468,
-2.96021,1.50452,
-2.95105,1.48621,
-2.94037,1.48163,
-2.93121,1.48468,
-2.92358,1.48773,
-2.91901,1.48621,
-2.90833,1.48468,
-2.9007,1.48163,
-2.89459,1.474,
-2.88391,1.4801,
-2.87933,1.48621,
-2.87018,1.48468,
-2.86865,1.47705,
-2.86865,1.48163,
-2.86407,1.48163,
-2.85797,1.48621,
-2.85492,1.48468,
-2.85187,1.48315,
-2.84729,1.47858,
-2.84119,1.48926,
-2.84119,1.48163,
-2.83203,1.48315,
-2.8244,1.48163,
-2.82593,1.48315,
-2.8183,1.48773,
-2.80914,1.48315,
-2.81067,1.48468,
-2.80914,1.47705,
-2.80609,1.4801,
-2.80914,1.48468,
-2.81067,1.48315,
-2.81219,1.48468,
-2.81219,1.48163,
-2.81677,1.47858,
-2.8183,1.48468,
-2.82288,1.48163,
-2.82745,1.48163,
-2.84119,1.48163,
-2.84729,1.47858,
-2.86255,1.48468,
-2.87476,1.48315,
-2.88391,1.48468,
-2.89612,1.47858,
-2.9068,1.4801,
-2.91748,1.48163,
-2.92969,1.48163,
-2.94342,1.48315,
-2.96173,1.47858,
-2.97394,1.4801,
-2.98767,1.48163,
-2.99988,1.48468,
-3.01666,1.47858,
-3.0304,1.47858,
-3.0426,1.48315,
-3.05786,1.48315,
-3.07159,1.48163,
-3.08075,1.48163,
-3.09296,1.47858,
-3.10516,1.48315,
-3.11584,1.48315,
-3.12805,1.48468,
-3.14484,1.48621,
-3.15399,1.47552,
-3.1662,1.4801,
-3.17841,1.48315,
-3.19366,1.48163,
-3.2074,1.48468,
-3.21808,1.47858,
-3.22723,1.48163,
-3.23792,1.48315,
-3.24707,1.48315,
-3.25623,1.48163,
-3.26233,1.47858,
-3.26843,1.4801,
-3.27911,1.4801,
-3.28064,1.48315,
-3.28522,1.48315,
-3.28979,1.48163,
-3.29437,1.4801,
-3.29437,1.48315,
-3.302,1.48163,
-3.302,1.48468,
-3.30353,1.47247,
-3.302,1.48163,
-3.302,1.4801,
-3.29895,1.48315,
-3.29437,1.4801,
-3.29285,1.47858,
-3.28522,1.48163,
-3.27301,1.48315,
-3.26233,1.48163,
-3.2486,1.48468,
-3.23792,1.4801,
-3.22418,1.4801,
-3.21045,1.48315,
-3.19672,1.4801,
-3.18451,1.48315,
-3.16925,1.47858,
-3.15552,1.47858,
-3.14484,1.48163,
-3.13416,1.48163,
-3.12347,1.47858,
-3.11432,1.47705,
-3.10822,1.4801,
-3.10059,1.48163,
-3.09143,1.48773,
-3.08838,1.48315,
-3.08075,1.4801,
-3.07465,1.48315,
-3.06854,1.47858,
-3.05939,1.48621,
-3.05328,1.48315,
-3.04565,1.46332,
-3.03802,1.47705,
-3.02277,1.48315,
-3.01056,1.48315,
-2.99988,1.48163,
-2.98615,1.47552,
-2.96936,1.4801,
-2.95258,1.49994,
-2.93427,1.48163,
-2.90985,1.48163,
-2.89154,1.474,
-2.8717,1.48163,
-2.84576,1.4801,
-2.82745,1.48315,
-2.80304,1.48621,
-2.78015,1.47705,
-2.76642,1.47705,
-2.74811,1.48315,
-2.73285,1.4801,
-2.72064,1.48315,
-2.70844,1.4801,
-2.70233,1.48163,
-2.69165,1.48315,
-2.6886,1.48621,
-2.68707,1.4801,
-2.6886,1.47705,
-2.68555,1.47858,
-2.69012,1.4801,
-2.6947,1.48468,
-2.69775,1.474,
-2.70844,1.4801,
-2.71301,1.47858,
-2.72217,1.48468,
-2.73285,1.48773,
-2.74506,1.48315,
-2.75574,1.47858,
-2.76489,1.4801,
-2.77405,1.4801,
-2.79083,1.48315,
-2.80151,1.48468,
-2.81067,1.47858,
-2.83051,1.48315,
-2.83813,1.48315,
-2.84424,1.48621,
-2.85797,1.48468,
-2.86713,1.47705,
-2.87628,1.47247,
-2.88696,1.48163,
-2.89307,1.48621,
-2.90222,1.48468,
-2.9068,1.47858,
-2.91138,1.48163,
-2.92053,1.47858,
-2.92816,1.49841,
-2.93427,1.48163,
-2.94342,1.47705,
-2.95105,1.4801,
-2.95258,1.47552,
-2.96173,1.48315,
-2.96326,1.47705,
-2.96326,1.47858,
-2.96631,1.47858,
-2.96936,1.48163,
-2.97089,1.48926,
-2.97241,1.48315,
-2.97546,1.47705,
-2.97089,1.48163,
-2.97089,1.48315,
-2.96936,1.48468,
-2.96936,1.48773,
-2.96326,1.47858,
-2.96173,1.47858,
-2.96021,1.48468,
-2.95563,1.48621,
-2.95105,1.48773,
-2.94952,1.47095,
-2.94495,1.47705,
-2.93884,1.48315,
-2.93579,1.48621,
-2.93121,1.48621,
-2.92664,1.47858,
-2.91901,1.47858,
-2.91595,1.48315,
-2.90985,1.48468,
-2.90833,1.48315,
-2.90527,1.48315,
-2.89764,1.48163,
-2.89764,1.48315,
-2.89459,1.48468,
-2.89154,1.48468,
-2.89154,1.48315,
-2.88391,1.4801,
-2.87781,1.4801,
-2.87323,1.49078,
-2.8717,1.48468,
-2.86713,1.4801,
-2.8656,1.47858,
-2.86407,1.48621,
-2.8595,1.48621,
-2.86255,1.48315,
-2.86102,1.4801,
-2.86102,1.48315,
-2.86407,1.48468,
-2.86102,1.48315,
-2.86102,1.48621,
-2.86407,1.48315,
-2.8656,1.47552,
-2.8656,1.48621,
-2.86865,1.48315,
-2.86713,1.4801,
-2.86713,1.48163,
-2.86407,1.48315,
-2.86407,1.48621,
-2.8656,1.48621,
-2.8717,1.48621,
-2.87628,1.47858,
-2.87628,1.4801,
-2.87323,1.48621,
-2.8717,1.48773,
-2.87018,1.48621,
-2.86865,1.48163,
-2.86102,1.48315,
-2.86255,1.48468,
-2.86407,1.48926,
-2.8595,1.48926,
-2.8595,1.47858,
-2.8595,1.48315,
-2.8595,1.48621,
-2.85645,1.49536,
-2.86102,1.48621,
-2.86407,1.47552,
-2.86102,1.48468,
-2.86407,1.48926,
-2.86713,1.48621,
-2.87018,1.48773,
-2.87476,1.47858,
-2.87933,1.48163,
-2.88086,1.48926,
-2.88391,1.48621,
-2.88696,1.48773,
-2.89307,1.48163,
-2.89307,1.48315,
-2.89917,1.48468,
-2.90375,1.48621,
-2.90985,1.48773,
-2.91595,1.4801,
-2.92053,1.4801,
-2.92816,1.48926,
-2.92816,1.48621,
-2.93579,1.48468,
-2.93884,1.48163,
-2.94342,1.48315,
-2.94952,1.48468,
-2.95868,1.48773,
-2.96173,1.48621,
-2.96478,1.4801,
-2.96783,1.48315,
-2.97394,1.48621,
-2.97241,1.48926,
-2.97546,1.48621,
-2.97699,1.4801,
-2.97699,1.48468,
-2.97546,1.48773,
-2.97241,1.48926,
-2.97089,1.48773,
-2.97394,1.4801,
-2.97394,1.48315,
-2.97699,1.48621,
-2.97852,1.48773,
-2.97852,1.48773,
-2.98004,1.48163,
-2.98004,1.4801,
-2.98309,1.48621,
-2.9892,1.48773,
-2.99835,1.48773,
-3.00598,1.47247,
-3.00903,1.48315,
-3.01361,1.48773,
-3.01361,1.49078,
-3.01056,1.48773,
-3.01361,1.48163,
-3.01361,1.4801,
-3.01056,1.48773,
-2.99988,1.48773,
-2.99072,1.48926,
-2.97852,1.48468,
-2.96783,1.48163,
-2.94952,1.48315,
-2.93274,1.49231,
-2.91138,1.47858,
-2.89459,1.50146,
-2.87476,1.47858,
-2.85645,1.48621,
-2.83661,1.48621,
-2.81677,1.48926,
-2.80151,1.48468,
-2.78168,1.48621,
-2.76031,1.48773,
-2.742,1.48315,
-2.72217,1.48926,
-2.71149,1.48163,
-2.69775,1.48315,
-2.68555,1.48468,
-2.67639,1.49078,
-2.66876,1.49231,
-2.66418,1.48315,
-2.65656,1.4801,
-2.65045,1.48621,
-2.65198,1.48926,
-2.65503,1.48621,
-2.65656,1.48315,
-2.65961,1.48468,
-2.66113,1.48621,
-2.66571,1.49231,
-2.67334,1.48773,
-2.67944,1.48621,
-2.68555,1.4801,
-2.69318,1.48621,
-2.6947,1.49078,
-2.69775,1.49078,
-2.70081,1.4801,
-2.70233,1.48468,
-2.70538,1.49078,
-2.70538,1.49078,
-2.70386,1.49078,
-2.70844,1.48468,
-2.70691,1.48468,
-2.70233,1.49078,
-2.70386,1.48926,
-2.70386,1.48926,
-2.70233,1.48468,
-2.70386,1.48315,
-2.70386,1.49078,
-2.70691,1.49536,
-2.70844,1.49536,
-2.71149,1.48163,
-2.71454,1.4801,
-2.71759,1.48773,
-2.72675,1.49231,
-2.72675,1.48926,
-2.73132,1.48468,
-2.73743,1.48468,
-2.74048,1.49078,
-2.74963,1.48926,
-2.75726,1.48926,
-2.76184,1.48773,
-2.76184,1.48468,
-2.76947,1.48926,
-2.77405,1.48315,
-2.78015,1.48773,
-2.78015,1.48468,
-2.7832,1.48315,
-2.7832,1.48926,
-2.78168,1.49689,
-2.77863,1.48773,
-2.77557,1.47858,
-2.77557,1.48621,
-2.771,1.49078,
-2.76489,1.48926,
-2.75879,1.48926,
-2.75574,1.48621,
-2.74506,1.48468,
-2.7359,1.49536,
-2.72675,1.49536,
-2.71912,1.49078,
-2.70844,1.48315,
-2.70691,1.48621,
-2.70538,1.48926,
-2.70233,1.49231,
-2.69775,1.49536,
-2.69318,1.48773,
-2.68555,1.48468,
-2.68097,1.49078,
-2.68097,1.48926,
-2.67944,1.48926,
-2.67792,1.48621,
-2.67639,1.48468,
-2.67487,1.474,
-2.67181,1.49231,
-2.67334,1.48926,
-2.67487,1.48621,
-2.67181,1.48621,
-2.67181,1.48926,
-2.67334,1.49536,
-2.67334,1.48926,
-2.67334,1.48621,
-2.67334,1.48468,
-2.67334,1.48773,
-2.67334,1.49078,
-2.67029,1.49078,
-2.67181,1.48621,
-2.67181,1.48926,
-2.67029,1.49078,
-2.67181,1.48926,
-2.67181,1.47858,
-2.67639,1.48773,
-2.67334,1.48773,
-2.67487,1.49231,
-2.67639,1.48926,
-2.67792,1.49078,
-2.68097,1.48621,
-2.68097,1.48468,
-2.68097,1.48773,
-2.67944,1.49689,
-2.67792,1.48773,
-2.67487,1.48773,
-2.67334,1.48315,
-2.67334,1.48621,
-2.67334,1.49231,
-2.67639,1.49078,
-2.67792,1.48621,
-2.68097,1.48621,
-2.6886,1.48773,
-2.6947,1.49536,
-2.69623,1.49536,
-2.70386,1.48926,
-2.70996,1.48315,
-2.71301,1.49078,
-2.72369,1.49536,
-2.73132,1.48773,
-2.73438,1.48315,
-2.74353,1.48773,
-2.75421,1.48773,
-2.75879,1.48773,
-2.76642,1.49231,
-2.771,1.48926,
-2.7832,1.48468,
-2.79694,1.48926,
-2.80457,1.49536,
-2.81067,1.49078,
-2.81677,1.48468,
-2.8244,1.49841,
-2.83051,1.48621,
-2.83813,1.49536,
-2.84576,1.49078,
-2.85034,1.48773,
-2.85034,1.48621,
-2.85645,1.49689,
-2.86255,1.49231,
-2.86407,1.48773,
-2.86713,1.48468,
-2.8717,1.48315,
-2.8717,1.48773,
-2.87323,1.49231,
-2.87018,1.49078,
-2.86713,1.48621,
-2.8595,1.48621,
-2.85492,1.49231,
-2.84424,1.49689,
-2.83203,1.49231,
-2.81677,1.48621,
-2.79694,1.48773,
-2.78015,1.49231,
-2.76489,1.49536,
-2.742,1.49231,
-2.72217,1.48773,
-2.70233,1.48621,
-2.67487,1.49078,
-2.65503,1.49231,
-2.63367,1.49078,
-2.61078,1.48621,
-2.58942,1.48468,
-2.57111,1.48926,
-2.55585,1.49536,
-2.54059,1.49231,
-2.52075,1.48926,
-2.50854,1.48468,
-2.49634,1.49078,
-2.48413,1.49689,
-2.47498,1.49231,
-2.46735,1.48773,
-2.45819,1.48773,
-2.45667,1.49078,
-2.44751,1.49231,
-2.43988,1.49078,
-2.4353,1.49078,
-2.43073,1.48773,
-2.4292,1.48773,
-2.4292,1.49841,
-2.42767,1.49078,
-2.42615,1.48621,
-2.42767,1.48468,
-2.42615,1.49231,
-2.42767,1.49689,
-2.4292,1.49231,
-2.4292,1.48621,
-2.43073,1.48926,
-2.42767,1.49231,
-2.4353,1.49536,
-2.43835,1.49231,
-2.44293,1.48468,
-2.44904,1.48621,
-2.44751,1.49078,
-2.45056,1.49689,
-2.45667,1.49078,
-2.45819,1.48621,
-2.46124,1.48315,
-2.46582,1.49078,
-2.46887,1.49536,
-2.47345,1.49994,
-2.47498,1.48773,
-2.47955,1.48163,
-2.48108,1.49536,
-2.48566,1.49689,
-2.49481,1.48926,
-2.50092,1.48926,
-2.50549,1.48163,
-2.51312,1.48926,
-2.52228,1.49841,
-2.52838,1.48926,
-2.53754,1.48621,
-2.54974,1.48621,
-2.56042,1.49231,
-2.57568,1.49841,
-2.59094,1.48926,
-2.6001,1.48468,
-2.6123,1.48621,
-2.62604,1.49231,
-2.63824,1.49231,
-2.64587,1.48773,
-2.66113,1.48468,
-2.66724,1.48468,
-2.67639,1.49536,
-2.68555,1.49231,
-2.69318,1.49536,
-2.69775,1.48773,
-2.70081,1.48163,
-2.69928,1.49231,
-2.69928,1.49689,
-2.70081,1.49078,
-2.70386,1.48468,
-2.70691,1.48468,
-2.70844,1.49231,
-2.70996,1.48926,
-2.70996,1.49078,
-2.70844,1.48621,
-2.70844,1.48315,
-2.70691,1.49078,
-2.69623,1.49536,
-2.69012,1.48926,
-2.68097,1.48773,
-2.67029,1.48468,
-2.65503,1.48926,
-2.63977,1.49689,
-2.62604,1.49231,
-2.61078,1.48468,
-2.59705,1.48468,
-2.57568,1.48926,
-2.56042,1.49536,
-2.54364,1.48926,
-2.52991,1.48621,
-2.5177,1.48468,
-2.50244,1.49078,
-2.49023,1.48773,
-2.47803,1.49536,
-2.47192,1.48621,
-2.46277,1.48773,
-2.45361,1.49078,
-2.44751,1.49536,
-2.43988,1.49689,
-2.43225,1.48468,
-2.43225,1.48468,
-2.42767,1.48926,
-2.42462,1.49536,
-2.42004,1.49078,
-2.41852,1.49078,
-2.41241,1.48621,
-2.40936,1.49078,
-2.40479,1.49689,
-2.40631,1.48926,
-2.40479,1.48621,
-2.40479,1.48621,
-2.40479,1.48773,
-2.40173,1.49841,
-2.40173,1.48773,
-2.40631,1.48773,
-2.41394,1.48773,
-2.41394,1.49078,
-2.42157,1.49078,
-2.4292,1.49078,
-2.43683,1.48468,
-2.44293,1.48468,
-2.45361,1.48315,
-2.46735,1.48773,
-2.47498,1.48773,
-2.49329,1.48926,
-2.50244,1.48621,
-2.51923,1.48926,
-2.52991,1.49231,
-2.54059,1.48621,
-2.55432,1.48773,
-2.56653,1.48621,
-2.58179,1.48773,
-2.59705,1.49536,
-2.6123,1.49078,
-2.62756,1.48621,
-2.63977,1.48621,
-2.65808,1.49536,
-2.67487,1.49536,
-2.68097,1.48773,
-2.70081,1.48773,
-2.71454,1.48621,
-2.72675,1.48621,
-2.74353,1.49536,
-2.75879,1.49078,
-2.76794,1.48773,
-2.7832,1.48621,
-2.78778,1.49078,
-2.80304,1.49536,
-2.81219,1.49078,
-2.81525,1.48773,
-2.8183,1.48621,
-2.82745,1.48621,
-2.83813,1.49536,
-2.84271,1.48773,
-2.84729,1.48468,
-2.84119,1.48621,
-2.84119,1.48926,
-2.83661,1.49231,
-2.83203,1.48773,
-2.82135,1.48468,
-2.81067,1.48468,
-2.79694,1.49078,
-2.78168,1.49536,
-2.76337,1.49078,
-2.74658,1.48773,
-2.73132,1.48621,
-2.70844,1.48468,
-2.68555,1.49536,
-2.66266,1.48773,
-2.63977,1.48621,
-2.61993,1.48621,
-2.60315,1.48926,
-2.58331,1.49231,
-2.56348,1.48926,
-2.54211,1.48621,
-2.5238,1.48926,
-2.50549,1.48315,
-2.48871,1.49231,
-2.46887,1.48773,
-2.45361,1.48621,
-2.43378,1.48926,
-2.41852,1.48926,
-2.40173,1.49231,
-2.38647,1.4801,
-2.37122,1.48315,
-2.35748,1.48773,
-2.3407,1.48773,
-2.32544,1.49536,
-2.31171,1.48926,
-2.2934,1.48468,
-2.28119,1.48773,
-2.26288,1.48315,
-2.24762,1.49231,
-2.23236,1.48773,
-2.21252,1.48468,
-2.19879,1.48468,
-2.18658,1.48621,
-2.17285,1.49536,
-2.16217,1.48926,
-2.15149,1.48773,
-2.13928,1.48163,
-2.1286,1.48926,
-2.12097,1.49689,
-2.10876,1.48621,
-2.10419,1.48621,
-2.09503,1.48621,
-2.0874,1.48773,
-2.07825,1.48621,
-2.07062,1.48926,
-2.06146,1.48468,
-2.05078,1.48773,
-2.0401,1.48621,
-2.034,1.49078,
-2.02484,1.50299,
-2.01721,1.48315,
-2.01111,1.48621,
-2.00653,1.48773,
-1.9989,1.49689,
-1.98822,1.48773,
-1.98364,1.48315,
-1.97906,1.48621,
-1.97449,1.48926,
-1.97296,1.49078,
-1.97296,1.48773,
-1.97296,1.48315,
-1.96991,1.48621,
-1.97601,1.48621,
-1.97601,1.49078,
-1.97754,1.49078,
-1.98364,1.48163,
-1.98517,1.48468,
-1.99127,1.48773,
-2.00043,1.49231,
-2.00348,1.48468,
-2.00806,1.48315,
-2.01263,1.48926,
-2.01874,1.48773,
-2.01874,1.48926,
-2.02332,1.48773,
-2.02789,1.48163,
-2.03857,1.4801,
-2.0401,1.48773,
-2.04773,1.49536,
-2.05383,1.48468,
-2.06757,1.48315,
-2.07214,1.48315,
-2.08282,1.48773,
-2.09503,1.48773,
-2.11029,1.48926,
-2.12708,1.48163,
-2.14081,1.48621,
-2.15454,1.48315,
-2.17133,1.49231,
-2.18353,1.48621,
-2.20184,1.4801,
-2.20947,1.48773,
-2.21863,1.48621,
-2.23236,1.48926,
-2.23999,1.48621,
-2.24762,1.47705,
-2.25983,1.48468,
-2.27051,1.48315,
-2.27356,1.48773,
-2.28271,1.48621,
-2.29187,1.4801,
-2.2995,1.4801,
-2.31476,1.48621,
-2.32391,1.49078,
-2.33154,1.48621,
-2.34528,1.4801,
-2.35138,1.48621,
-2.35748,1.50299,
-2.36206,1.48926,
-2.36969,1.48773,
-2.37732,1.47858,
-2.37885,1.48468,
-2.3819,1.48315,
-2.3819,1.49078,
-2.38495,1.47858,
-2.39258,1.48468,
-2.39563,1.48315,
-2.40173,1.48315,
-2.40479,1.49536,
-2.41699,1.48773,
-2.4231,1.47705,
-2.42767,1.4801,
-2.4292,1.48621,
-2.4353,1.48926,
-2.43835,1.48926,
-2.44446,1.48315,
-2.43988,1.48163,
-2.43683,1.48621,
-2.4353,1.48621,
-2.43073,1.48468,
-2.42767,1.4801,
-2.42157,1.48315,
-2.41547,1.48315,
-2.41089,1.48773,
-2.40326,1.48926,
-2.38953,1.48163,
-2.38037,1.4801,
-2.36969,1.48315,
-2.35596,1.48773,
-2.3468,1.48163,
-2.33459,1.48315,
-2.32086,1.48468,
-2.30865,1.48468,
-2.2934,1.48773,
-2.28424,1.48163,
-2.27051,1.48163,
-2.25677,1.48163,
-2.24457,1.48163,
-2.23083,1.49231,
-2.22931,1.48926,
-2.22168,1.4801,
-2.21405,1.48163,
-2.20795,1.48468,
-2.19879,1.48926,
-2.19116,1.48468,
-2.18964,1.4801,
-2.18811,1.48163,
-2.18353,1.48315,
-2.18048,1.49078,
-2.17743,1.4801,
-2.17133,1.48163,
-2.16522,1.48315,
-2.16522,1.48468,
-2.15759,1.48621,
-2.15454,1.48163,
-2.14844,1.48163,
-2.14081,1.4801,
-2.12555,1.4801,
-2.11334,1.48621,
-2.10114,1.48468,
-2.09045,1.4801,
-2.07977,1.4801,
-2.05841,1.48773,
-2.04315,1.48621,
-2.02179,1.48315,
-2.00195,1.4801,
-1.98059,1.47858,
-1.95618,1.48468,
-1.93939,1.48621,
-1.91803,1.48315,
-1.9043,1.47858,
-1.88446,1.48468,
-1.87073,1.48315,
-1.85852,1.49078,
-1.84174,1.48315,
-1.83411,1.47858,
-1.82495,1.47858,
-1.81732,1.48468,
-1.81732,1.48621,
-1.81274,1.48163,
-1.81122,1.47858,
-1.81274,1.48315,
-1.81885,1.48468,
-1.8219,1.48163,
-1.82495,1.48315,
-1.83258,1.4801,
-1.83716,1.47858,
-1.84326,1.48468,
-1.84937,1.48773,
-1.85852,1.48468,
-1.86768,1.47858,
-1.87378,1.47552,
-1.88293,1.48315,
-1.88904,1.48773,
-1.89667,1.48468,
-1.9043,1.4801,
-1.90887,1.47858,
-1.91345,1.48315,
-1.92261,1.48926,
-1.93176,1.48163,
-1.93481,1.48163,
-1.94244,1.4801,
-1.94855,1.4801,
-1.9516,1.48926,
-1.95465,1.48163,
-1.95923,1.48163,
-1.95923,1.47705,
-1.96381,1.48315,
-1.96533,1.48926,
-1.96838,1.48315,
-1.97144,1.47858,
-1.97144,1.4801,
-1.97144,1.48163,
-1.97754,1.48468,
-1.98059,1.48468,
-1.98059,1.4801,
-1.98212,1.47858,
-1.98669,1.48315,
-1.98517,1.48315,
-1.98975,1.48468,
-1.98822,1.4801,
-1.99585,1.47552,
-1.9928,1.48163,
-1.99738,1.48468,
-1.99585,1.48315,
-1.99738,1.47705,
-1.99585,1.4801,
-1.9989,1.48468,
-1.99738,1.48468,
-1.9989,1.48163,
-1.99585,1.4801,
-1.9928,1.47705,
-1.98669,1.4801,
-1.98059,1.48468,
-1.97296,1.48315,
-1.95923,1.47552,
-1.9455,1.47858,
-1.93787,1.47705,
-1.92413,1.48163,
-1.90887,1.48468,
-1.88599,1.474,
-1.87073,1.47858,
-1.85089,1.48163,
-1.83563,1.48773,
-1.8158,1.4801,
-1.80054,1.47858,
-1.78223,1.4801,
-1.76849,1.48163,
-1.75018,1.48315,
-1.73798,1.48163,
-1.72424,1.47705,
-1.71204,1.4801,
-1.69525,1.48315,
-1.68915,1.48315,
-1.67999,1.48315,
-1.67389,1.47705,
-1.66473,1.47552,
-1.6571,1.48315,
-1.64795,1.48315,
-1.64337,1.47858,
-1.63879,1.47858,
-1.62964,1.47705,
-1.62506,1.48315,
-1.61743,1.48468,
-1.61285,1.4801,
-1.60675,1.4801,
-1.60522,1.47705,
-1.60217,1.47552,
-1.60065,1.48163,
-1.5976,1.48468,
-1.60065,1.47858,
-1.59912,1.47705,
-1.59912,1.48163,
-1.60217,1.48163,
-1.6037,1.4801,
-1.6037,1.474,
-1.61285,1.47552,
-1.61896,1.47858,
-1.62506,1.48163,
-1.63116,1.47858,
-1.63879,1.47858,
-1.6449,1.47705,
-1.65558,1.47858,
-1.66016,1.47858,
-1.67389,1.4801,
-1.68152,1.474,
-1.69678,1.474,
-1.70898,1.47858,
-1.71814,1.48315,
-1.7334,1.47858,
-1.74408,1.47705,
-1.75781,1.47858,
-1.77002,1.47705,
-1.78375,1.48163,
-1.80206,1.48163,
-1.81427,1.47552,
-1.828,1.47858,
-1.84021,1.4801,
-1.85547,1.4801,
-1.87225,1.474,
-1.88141,1.47552,
-1.89514,1.47552,
-1.91193,1.47705,
-1.91956,1.4801,
-1.93481,1.4801,
-1.9455,1.474,
-1.95618,1.48468,
-1.96838,1.47247,
-1.97449,1.48315,
-1.98517,1.4801,
-2.00043,1.47552,
-2.01263,1.47705,
-2.02332,1.4801,
-2.034,1.4801,
-2.04468,1.4801,
-2.04926,1.47247,
-2.05994,1.47247,
-2.07062,1.47552,
-2.07367,1.48163,
-2.08282,1.4801,
-2.0874,1.47247,
-2.09503,1.47247,
-2.09961,1.47858,
-2.10571,1.48468,
-2.11029,1.47705,
-2.11639,1.47247,
-2.12097,1.47247,
-2.11945,1.47858,
-2.11945,1.48163,
-2.12402,1.4801,
-2.12097,1.47705,
-2.12402,1.4679,
-2.12555,1.48468,
-2.1225,1.4801,
-2.12402,1.47095,
-2.12402,1.47247,
-2.12097,1.474,
-2.11792,1.47858,
-2.11334,1.4801,
-2.10266,1.48163,
-2.09045,1.474,
-2.07062,1.47095,
-2.05231,1.47552,
-2.034,1.47705,
-2.01111,1.47858,
-1.98822,1.47095,
-1.96533,1.474,
-1.93329,1.47705,
-1.90125,1.47705,
-1.87378,1.48163,
-1.84021,1.47095,
-1.80511,1.47095,
-1.77155,1.47705,
-1.74103,1.47705,
-1.70746,1.49689,
-1.67542,1.47247,
-1.64337,1.47552,
-1.61743,1.47858,
-1.58386,1.47858,
-1.55487,1.47705,
-1.53198,1.47552,
-1.50452,1.474,
-1.48315,1.4679,
-1.46179,1.47552,
-1.4389,1.4801,
-1.42212,1.47247,
-1.40533,1.47095,
-1.39313,1.474,
-1.37329,1.48163,
-1.36261,1.47858,
-1.35345,1.46942,
-1.3443,1.4679,
-1.33362,1.47705,
-1.32141,1.47858,
-1.31989,1.4679,
-1.31683,1.47095,
-1.30157,1.46179,
-1.297,1.47552,
-1.29242,1.47247,
-1.28174,1.47705,
-1.27716,1.47095,
-1.26495,1.4679,
-1.26343,1.47552,
-1.2558,1.47858,
-1.25275,1.4801,
-1.24512,1.4679,
-1.24207,1.47095,
-1.24207,1.47858,
-1.23749,1.47858,
-1.23749,1.474,
-1.23596,1.47247,
-1.24054,1.46179,
-1.23749,1.474,
-1.24054,1.47552,
-1.24817,1.47858,
-1.24817,1.47247,
-1.2558,1.46942,
-1.26038,1.47552,
-1.26495,1.47552,
-1.26648,1.47705,
-1.27869,1.47095,
-1.28632,1.4679,
-1.29395,1.47858,
-1.30005,1.47705,
-1.3092,1.47552,
-1.31836,1.46637,
-1.32751,1.4679,
-1.33057,1.4679,
-1.33209,1.47552,
-1.3382,1.47705,
-1.34277,1.46637,
-1.3443,1.46637,
-1.34735,1.47552,
-1.34888,1.47705,
-1.34888,1.4801,
-1.3504,1.47095,
-1.3504,1.46637,
-1.34735,1.474,
-1.34888,1.474,
-1.35193,1.47247,
-1.35345,1.47095,
-1.35803,1.46637,
-1.35651,1.47552,
-1.36261,1.47552,
-1.36566,1.47552,
-1.36871,1.46637,
-1.37177,1.46942,
-1.37787,1.47552,
-1.37787,1.47247,
-1.38397,1.474,
-1.38397,1.474,
-1.38855,1.46637,
-1.3855,1.474,
-1.3916,1.474,
-1.39465,1.47552,
-1.39923,1.4679,
-1.39923,1.46484,
-1.40228,1.47247,
-1.40533,1.47095,
-1.40839,1.47247,
-1.40839,1.46637,
-1.40839,1.4679,
-1.41296,1.474,
-1.41907,1.47552,
-1.41754,1.47552,
-1.41907,1.4679,
-1.42365,1.46179,
-1.42365,1.47247,
-1.42059,1.47247,
-1.42212,1.47247,
-1.42365,1.4679,
-1.42212,1.46484,
-1.41907,1.47247,
-1.41754,1.47095,
-1.41144,1.4679,
-1.40381,1.46942,
-1.40381,1.46484,
-1.39618,1.47095,
-1.3916,1.47095,
-1.38702,1.47095,
-1.38092,1.4679,
-1.36871,1.46637,
-1.36414,1.47095,
-1.35498,1.474,
-1.34888,1.46637,
-1.33972,1.46637,
-1.33667,1.46484,
-1.33209,1.47247,
-1.32446,1.47247,
-1.32141,1.47247,
-1.31683,1.4679,
-1.31378,1.4679,
-1.3092,1.47247,
-1.30463,1.47095,
-1.30005,1.474,
-1.297,1.46332,
-1.29242,1.46332,
-1.28937,1.46484,
-1.28784,1.47095,
-1.28479,1.46942,
-1.28479,1.46484,
-1.28021,1.46637,
-1.28326,1.47095,
-1.28174,1.47095,
-1.28479,1.46942,
-1.28479,1.46332,
-1.28632,1.46332,
-1.28479,1.47095,
-1.28937,1.4679,
-1.29089,1.474,
-1.29242,1.47247,
-1.29242,1.46637,
-1.29547,1.4679,
-1.30157,1.47247,
-1.3031,1.474,
-1.31073,1.46484,
-1.32294,1.46484,
-1.33057,1.46179,
-1.3382,1.474,
-1.33972,1.47247,
-1.35345,1.46637,
-1.36566,1.46179,
-1.37482,1.46942,
-1.3855,1.46637,
-1.39618,1.46637,
-1.40839,1.46637,
-1.42517,1.46637,
-1.44196,1.4679,
-1.46027,1.46942,
-1.47095,1.474,
-1.48621,1.46484,
-1.49841,1.46179,
-1.51062,1.4679,
-1.51825,1.47095,
-1.52283,1.46942,
-1.52588,1.46484,
-1.52588,1.46942,
-1.52588,1.46637,
-1.51978,1.4679,
-1.51825,1.47247,
-1.50604,1.4679,
-1.50452,1.46332,
-1.49841,1.46484,
-1.49078,1.47095,
-1.48315,1.46942,
-1.47247,1.46332,
-1.46027,1.4679,
-1.44653,1.46637,
-1.43433,1.47095,
-1.42212,1.46484,
-1.40533,1.46484,
-1.39465,1.46637,
-1.38397,1.46637,
-1.37329,1.46942,
-1.35803,1.4679,
-1.34735,1.46484,
-1.33667,1.46484,
-1.32294,1.46484,
-1.31836,1.4679,
-1.30463,1.47247,
-1.29547,1.46179,
-1.28326,1.46332,
-1.27411,1.4679,
-1.26801,1.47095,
-1.26038,1.4679,
-1.25122,1.46484,
-1.24664,1.46332,
-1.23444,1.46942,
-1.22528,1.46942,
-1.21613,1.46637,
-1.21002,1.46637,
-1.20239,1.46484,
-1.19324,1.46179,
-1.18561,1.46942,
-1.17645,1.46332,
-1.17035,1.46484,
-1.16272,1.45874,
-1.15356,1.46484,
-1.14441,1.4679,
-1.1322,1.46637,
-1.12305,1.46179,
-1.11237,1.46637,
-1.10474,1.46484,
-1.09253,1.46942,
-1.08337,1.4679,
-1.08032,1.46332,
-1.07422,1.46637,
-1.07269,1.46637,
-1.06812,1.46637,
-1.06049,1.46484,
-1.05591,1.46179,
-1.0498,1.46332,
-1.04675,1.46179,
-1.0376,1.46637,
-1.03455,1.46484,
-1.02386,1.46637,
-1.02081,1.46484,
-1.01624,1.46484,
-1.01013,1.46637,
-1.00861,1.46484,
-1.00861,1.45416,
-1.00403,1.46484,
-1.00708,1.46332,
-1.00708,1.46637,
-1.00708,1.46484,
-1.01013,1.4679,
-1.00861,1.46332,
-1.01166,1.46332,
-1.00861,1.46637,
-1.01471,1.46332,
-1.01471,1.45721,
-1.02234,1.45874,
-1.02692,1.45721,
-1.02997,1.4679,
-1.03455,1.46484,
-1.04218,1.45111,
-1.0498,1.46484,
-1.06201,1.46179,
-1.07117,1.46332,
-1.07727,1.46484,
-1.08795,1.45874,
-1.09558,1.46179,
-1.11237,1.46179,
-1.12,1.46484,
-1.1322,1.46484,
-1.15051,1.45874,
-1.15967,1.45874,
-1.1734,1.46637,
-1.19019,1.46332,
-1.19934,1.46179,
-1.21307,1.46179,
-1.22375,1.46179,
-1.22986,1.46179,
-1.24207,1.46637,
-1.24969,1.46332,
-1.25275,1.45569,
-1.2558,1.46637,
-1.26495,1.45569,
-1.26801,1.46332,
-1.28174,1.46332,
-1.28479,1.44958,
-1.29395,1.45874,
-1.30157,1.46179,
-1.3092,1.46637,
-1.31683,1.46179,
-1.32141,1.45569,
-1.32751,1.45721,
-1.33057,1.45874,
-1.33057,1.46179,
-1.33514,1.46332,
-1.33667,1.46179,
-1.33972,1.46179,
-1.34583,1.45874,
-1.35193,1.46484,
-1.35498,1.46179,
-1.35498,1.45874,
-1.35498,1.45569,
-1.35345,1.45874,
-1.34888,1.46332,
-1.34583,1.45721,
-1.3443,1.45721,
-1.3382,1.45569,
-1.32751,1.45874,
-1.31683,1.45874,
-1.30463,1.45569,
-1.28937,1.45569,
-1.27411,1.45264,
-1.2558,1.44958,
-1.24054,1.45721,
-1.22528,1.45416,
-1.21002,1.45416,
-1.19629,1.44958,
-1.1795,1.44958,
-1.17035,1.45416,
-1.15051,1.45264,
-1.13983,1.45111,
-1.12457,1.45111,
-1.11542,1.45264,
-1.11389,1.45874,
-1.10474,1.45416,
-1.10168,1.45264,
-1.09558,1.45264,
-1.09406,1.45874,
-1.09406,1.45874,
-1.09558,1.45569,
-1.091,1.45721,
-1.09558,1.45416,
-1.09406,1.45721,
-1.09711,1.46484,
-1.10321,1.4679,
-1.10931,1.44806,
-1.11237,1.45569,
-1.11542,1.45569,
-1.11847,1.46332,
-1.1261,1.46179,
-1.1322,1.45874,
-1.13983,1.45569,
-1.14746,1.45569,
-1.15509,1.46332,
-1.16577,1.45569,
-1.17493,1.45569,
-1.19019,1.45264,
-1.20087,1.45416,
-1.21613,1.46332,
-1.23138,1.45874,
-1.24817,1.45569,
-1.26801,1.45569,
-1.28632,1.45721,
-1.29852,1.46179,
-1.31378,1.45569,
-1.31989,1.45721,
-1.32599,1.45569,
-1.32446,1.45569,
-1.32751,1.47552,
-1.32294,1.46179,
-1.32294,1.45569,
-1.31378,1.45721,
-1.30615,1.45264,
-1.30005,1.45721,
-1.28784,1.45874,
-1.27716,1.45569,
-1.27106,1.45264,
-1.2558,1.45264,
-1.24664,1.46179,
-1.23444,1.45874,
-1.22375,1.45569,
-1.21155,1.45416,
-1.20087,1.45416,
-1.19324,1.46179,
-1.1795,1.45721,
-1.17188,1.45264,
-1.15814,1.45416,
-1.14594,1.45569,
-1.12915,1.46179,
-1.11237,1.45721,
-1.09711,1.45569,
-1.08337,1.45874,
-1.06354,1.45721,
-1.0498,1.46179,
-1.03455,1.45874,
-1.02386,1.45416,
-1.00708,1.45264,
-0.991821,1.45721,
-0.978088,1.46484,
-0.961304,1.45721,
-0.947571,1.45721,
-0.932312,1.45264,
-0.914001,1.45416,
-0.898743,1.46179,
-0.881958,1.45721,
-0.865173,1.45416,
-0.85144,1.45111,
-0.836182,1.45416,
-0.822449,1.45569,
-0.80719,1.46179,
-0.793457,1.45569,
-0.78125,1.45264,
-0.769043,1.45569,
-0.758362,1.45569,
-0.747681,1.45874,
-0.738525,1.45569,
-0.727844,1.45569,
-0.714111,1.45264,
-0.704956,1.46179,
-0.698853,1.46179,
-0.695801,1.45721,
-0.689697,1.45111,
-0.683594,1.45416,
-0.682068,1.45874,
-0.67749,1.45569,
-0.675964,1.45416,
-0.675964,1.45111,
-0.675964,1.45264,
-0.675964,1.45416,
-0.675964,1.45569,
-0.675964,1.45416,
-0.672913,1.44806,
-0.672913,1.45264,
-0.671387,1.45874,
-0.668335,1.45569,
-0.666809,1.44348,
-0.662231,1.44196,
-0.663757,1.44958,
-0.660706,1.45721,
-0.657654,1.45721,
-0.662231,1.44806,
-0.662231,1.45264,
-0.662231,1.45416,
-0.660706,1.46332,
-0.662231,1.44958,
-0.662231,1.44958,
-0.666809,1.45111,
-0.668335,1.44958,
-0.666809,1.45416,
-0.665283,1.45264,
-0.666809,1.45264,
-0.660706,1.44501,
-0.662231,1.45264,
-0.660706,1.45416,
-0.663757,1.45569,
-0.665283,1.44653,
-0.672913,1.44958,
-0.683594,1.44958,
-0.697327,1.45416,
-0.71106,1.45264,
-0.735474,1.45111,
-0.759888,1.45111,
-0.784302,1.45264,
-0.813293,1.45416,
-0.839233,1.45569,
-0.868225,1.44958,
-0.898743,1.44958,
-0.926208,1.44653,
-0.952148,1.45721,
-0.979614,1.45416,
-1.01013,1.45111,
-1.0376,1.44958,
-1.06506,1.45111,
-1.09253,1.45264,
-1.11542,1.45569,
-1.13373,1.44806,
-1.16119,1.44958,
-1.18256,1.44958,
-1.20087,1.45721,
-1.2207,1.45416,
-1.23596,1.45111,
-1.24817,1.44653,
-1.26343,1.44958,
-1.27563,1.45569,
-1.28632,1.45416,
-1.297,1.44806,
-1.30463,1.44958,
-1.31531,1.44806,
-1.32446,1.45721,
-1.33057,1.45416,
-1.33972,1.44806,
-1.3504,1.44806,
-1.35651,1.44806,
-1.36414,1.45569,
-1.37329,1.45416,
-1.38397,1.44653,
-1.38855,1.44806,
-1.39618,1.44806,
-1.39923,1.45721,
-1.40839,1.45264,
-1.42059,1.44958,
-1.42365,1.44501,
-1.42822,1.44653,
-1.4389,1.45264,
-1.44348,1.44958,
-1.44958,1.45111,
-1.45569,1.4389,
-1.45416,1.44958,
-1.45721,1.44348,
-1.46179,1.45264,
-1.4679,1.44653,
-1.47247,1.44348,
-1.4801,1.44653,
-1.48315,1.45416,
-1.48773,1.44501,
-1.48926,1.44653,
-1.48926,1.45111,
-1.49384,1.44653,
-1.49689,1.44958,
-1.49994,1.45111,
-1.50299,1.44653,
-1.50452,1.44958,
-1.51215,1.44653,
-1.51062,1.4389,
-1.51062,1.45111,
-1.50604,1.44806,
-1.50299,1.44501,
-1.49841,1.44653,
-1.49231,1.45111,
-1.48926,1.45264,
-1.48163,1.44958,
-1.474,1.44958,
-1.46637,1.44806,
-1.45111,1.45264,
-1.43585,1.45264,
-1.41754,1.44501,
-1.40076,1.44653,
-1.38397,1.44806,
-1.36261,1.45569,
-1.3443,1.44806,
-1.31989,1.44806,
-1.29242,1.44501,
-1.26648,1.44806,
-1.23444,1.45416,
-1.20697,1.45416,
-1.17493,1.44653,
-1.14441,1.44653,
-1.11542,1.44348,
-1.08185,1.45111,
-1.04828,1.45111,
-1.02081,1.44958,
-0.987244,1.44806,
-0.964355,1.44501,
-0.93689,1.44806,
-0.912476,1.45264,
-0.891113,1.44501,
-0.874329,1.44196,
-0.856018,1.44653,
-0.846863,1.45264,
-0.840759,1.44958,
-0.837708,1.44501,
-0.842285,1.44653,
-0.845337,1.44806,
-0.852966,1.44958,
-0.868225,1.45264,
-0.871277,1.44806,
-0.881958,1.44653,
-0.895691,1.44653,
-0.906372,1.45264,
-0.917053,1.45111,
-0.927734,1.44348,
-0.938416,1.44196,
-0.946045,1.44501,
-0.958252,1.44806,
-0.968933,1.45264,
-0.978088,1.44806,
-0.98877,1.44501,
-0.999451,1.44501,
-1.00861,1.44958,
-1.01318,1.45111,
-1.02539,1.44653,
-1.03607,1.44501,
-1.0437,1.44501,
-1.05133,1.44958,
-1.05896,1.44958,
-1.06201,1.44806,
-1.06964,1.44043,
-1.0788,1.46179,
-1.08032,1.44806,
-1.08643,1.45111,
-1.09558,1.44653,
-1.10168,1.44348,
-1.10168,1.44501,
-1.11084,1.45111,
-1.11694,1.45416,
-1.12457,1.42975,
-1.13068,1.44196,
-1.13678,1.44653,
-1.14899,1.44958,
-1.15662,1.45111,
-1.1673,1.44501,
-1.17493,1.44348,
-1.18256,1.44348,
-1.19019,1.44958,
-1.19019,1.44806,
-1.19781,1.44348,
-1.21155,1.44196,
-1.2146,1.44348,
-1.22528,1.44806,
-1.22986,1.44348,
-1.23444,1.44348,
-1.24359,1.44196,
-1.25275,1.44348,
-1.25427,1.44501,
-1.26343,1.44958,
-1.26648,1.43738,
-1.26495,1.44196,
-1.26953,1.44501,
-1.26495,1.44501,
-1.26495,1.44958,
-1.2619,1.44501,
-1.25885,1.44043,
-1.25122,1.44501,
-1.24359,1.44806,
-1.22986,1.44958,
-1.22223,1.44348,
-1.21155,1.44043,
-1.20239,1.44653,
-1.19171,1.45111,
-1.18713,1.44806,
-1.17798,1.44348,
-1.1673,1.44348,
-1.15967,1.44348,
-1.15509,1.46179,
-1.14746,1.44501,
-1.14288,1.44653,
-1.13831,1.43738,
-1.13678,1.44348,
-1.13373,1.44653,
-1.13373,1.45111,
-1.13068,1.43738,
-1.12762,1.44043,
-1.12305,1.44501,
-1.12305,1.44958,
-1.12,1.44806,
-1.12305,1.4389,
-1.1261,1.44043,
-1.13373,1.44043,
-1.13983,1.44501,
-1.14288,1.45111,
-1.14288,1.44348,
-1.15204,1.4389,
-1.15509,1.44501,
-1.16272,1.44501,
-1.1673,1.44806,
-1.17798,1.44196,
-1.18408,1.4389,
-1.19019,1.44196,
-1.2085,1.44806,
-1.22375,1.45111,
-1.24054,1.44196,
-1.25275,1.44043,
-1.26343,1.44196,
-1.27869,1.44653,
-1.29242,1.44806,
-1.29852,1.44043,
-1.31531,1.4389,
-1.32599,1.44348,
-1.34277,1.44653,
-1.35498,1.44958,
-1.37329,1.44348,
-1.39008,1.44043,
-1.40533,1.44043,
-1.42365,1.44806,
-1.44043,1.44653,
-1.45721,1.44501,
-1.474,1.43738,
-1.49078,1.44501,
-1.50757,1.44806,
-1.5213,1.44653,
-1.53809,1.43738,
-1.55029,1.44196,
-1.56403,1.44958,
-1.57623,1.44653,
-1.59302,1.44806,
-1.60675,1.44196,
-1.62048,1.44196,
-1.63116,1.44501,
-1.64795,1.44501,
-1.65863,1.44958,
-1.66779,1.45721,
-1.68915,1.43738,
-1.69983,1.44043,
-1.71661,1.44348,
-1.72729,1.44806,
-1.73645,1.4389,
-1.74713,1.4389,
-1.75629,1.44348,
-1.76392,1.44348,
-1.77612,1.44806,
-1.7868,1.44501,
-1.79443,1.44196,
-1.80054,1.43738,
-1.80969,1.44806,
-1.81732,1.44806,
-1.82495,1.44348,
-1.83411,1.44043,
-1.84326,1.44348,
-1.85242,1.44348,
-1.86005,1.44806,
-1.8692,1.44043,
-1.87378,1.44043,
-1.87988,1.44501,
-1.88293,1.44806,
-1.88599,1.44958,
-1.89514,1.44043,
-1.89819,1.44196,
-1.90277,1.44348,
-1.90582,1.44348,
-1.90582,1.44806,
-1.9043,1.44501,
-1.89819,1.44196,
-1.88293,1.44043,
-1.86768,1.44653,
-1.85242,1.45111,
-1.83411,1.44043,
-1.8158,1.44043,
-1.79291,1.44348,
-1.77155,1.45111,
-1.74713,1.45111,
-1.72272,1.44348,
-1.70135,1.4389,
-1.67999,1.44501,
-1.6571,1.44653,
-1.64185,1.44806,
-1.62659,1.44653,
-1.61285,1.4389,
-1.60065,1.44501,
-1.59607,1.44806,
-1.58691,1.44348,
-1.58539,1.43738,
-1.57623,1.44196,
-1.57166,1.45416,
-1.56708,1.44958,
-1.56097,1.45416,
-1.55945,1.44501,
-1.55792,1.44196,
-1.55792,1.44653,
-1.55182,1.44348,
-1.55182,1.45264,
-1.54877,1.44501,
-1.55182,1.44501,
-1.55029,1.44501,
-1.54877,1.44653,
-1.54877,1.45416,
-1.54419,1.44348,
-1.54877,1.44501,
-1.55029,1.44501,
-1.55182,1.44653,
-1.54877,1.45264,
-1.54877,1.44501,
-1.55182,1.43738,
-1.55334,1.44348,
-1.55334,1.45111,
-1.55182,1.45111,
-1.55487,1.44501,
-1.5564,1.44348,
-1.5564,1.44806,
-1.56097,1.45264,
-1.56403,1.45111,
-1.55945,1.44806,
-1.55945,1.44501,
-1.55945,1.44958,
-1.5564,1.44806,
-1.5564,1.45264,
-1.55334,1.44958,
-1.54419,1.44348,
-1.54419,1.44653,
-1.53198,1.45264,
-1.52588,1.45264,
-1.51672,1.44653,
-1.51215,1.45111,
-1.50299,1.44806,
-1.49078,1.44958,
-1.48621,1.45416,
-1.47552,1.44806,
-1.46179,1.45111,
-1.44958,1.44348,
-1.44043,1.45416,
-1.42822,1.45264,
-1.41602,1.44958,
-1.40839,1.44653,
-1.40381,1.44806,
-1.39465,1.44958,
-1.38855,1.45721,
-1.3855,1.44958,
-1.37787,1.44501,
-1.37024,1.44806,
-1.36871,1.45264,
-1.36261,1.45111,
-1.35956,1.45111,
-1.35193,1.44653,
-1.34583,1.45264,
-1.34277,1.45264,
-1.33667,1.45569,
-1.3382,1.45416,
-1.33362,1.44806,
-1.33209,1.44806,
-1.32751,1.45416,
-1.31989,1.45874,
-1.31531,1.45111,
-1.31073,1.44501,
-1.30157,1.45264,
-1.29547,1.45721,
-1.29242,1.45874,
-1.28784,1.45416,
-1.29089,1.45264,
-1.29242,1.44958,
-1.297,1.44958,
-1.30005,1.45721,
-1.3031,1.45416,
-1.3092,1.45264,
-1.31378,1.44958,
-1.32294,1.45416,
-1.33057,1.45721,
-1.3443,1.46637,
-1.35345,1.45111,
-1.36261,1.45569,
-1.37482,1.45721,
-1.38702,1.46484,
-1.40228,1.45721,
-1.41754,1.45111,
-1.43127,1.45721,
-1.44653,1.46179,
-1.4679,1.45721,
-1.48926,1.45721,
-1.51062,1.45569,
-1.53198,1.45416,
-1.55182,1.46179,
-1.57166,1.46332,
-1.5976,1.45874,
-1.62048,1.45416,
-1.63727,1.45569,
-1.65863,1.46332,
-1.67694,1.46332,
-1.69067,1.45721,
-1.70593,1.45416,
-1.72424,1.45874,
-1.73645,1.46637,
-1.75476,1.46179,
-1.76849,1.45874,
-1.78223,1.46179,
-1.79596,1.46332,
-1.80969,1.46484,
-1.8219,1.46484,
-1.83105,1.46179,
-1.84174,1.45569,
-1.85852,1.45874,
-1.87073,1.46332,
-1.87988,1.47095,
-1.88904,1.45874,
-1.89972,1.45569,
-1.90735,1.4679,
-1.9165,1.4679,
-1.92261,1.4679,
-1.93176,1.46332,
-1.94092,1.45721,
-1.95007,1.46637,
-1.96228,1.4679,
-1.96838,1.4679,
-1.97601,1.46637,
-1.97906,1.46179,
-1.98669,1.45874,
-1.99127,1.46942,
-1.99738,1.46942,
-2.005,1.46637,
-2.00195,1.4679,
-2.00043,1.46637,
-2.00348,1.4679,
-2.00195,1.47095,
-1.9989,1.46637,
-1.99738,1.46332,
-1.99585,1.46637,
-1.98975,1.47247,
-1.98669,1.47095,
-1.98669,1.47247,
-1.98212,1.4679,
-1.98212,1.4679,
-1.98059,1.47247,
-1.98059,1.474,
-1.97449,1.46942,
-1.96686,1.46484,
-1.95313,1.46942,
-1.9455,1.474,
-1.93176,1.47705,
-1.92261,1.46942,
-1.90735,1.46179,
-1.89056,1.47095,
-1.87531,1.47095,
-1.86157,1.474,
-1.84479,1.47552,
-1.828,1.46942,
-1.81122,1.474,
-1.79749,1.47705,
-1.78375,1.47705,
-1.77307,1.47552,
-1.75781,1.46637,
-1.74408,1.47705,
-1.73187,1.47705,
-1.71509,1.47705,
-1.70288,1.47858,
-1.68915,1.47552,
-1.67389,1.47552,
-1.66016,1.48163,
-1.64642,1.4801,
-1.63879,1.474,
-1.62659,1.47247,
-1.61438,1.47705,
-1.6037,1.4801,
-1.59302,1.4801,
-1.58081,1.47858,
-1.57166,1.47705,
-1.56555,1.47247,
-1.55792,1.48163,
-1.55182,1.48315,
-1.54419,1.47858,
-1.54114,1.47552,
-1.53351,1.47858,
-1.52893,1.48163,
-1.52435,1.48163,
-1.51978,1.48315,
-1.50909,1.4801,
-1.49994,1.4801,
-1.49536,1.48773,
-1.49078,1.4801,
-1.48468,1.48163,
-1.48468,1.47705,
-1.4801,1.48621,
-1.48163,1.48773,
-1.4801,1.48773,
-1.48163,1.48773,
-1.48315,1.48163,
-1.48163,1.48163,
-1.48468,1.48773,
-1.48468,1.49078,
-1.48315,1.48468,
-1.48163,1.4801,
-1.48163,1.48468,
-1.48163,1.49078,
-1.4801,1.48773,
-1.4801,1.48926,
-1.48163,1.4801,
-1.4801,1.47858,
-1.48315,1.48773,
-1.4801,1.48773,
-1.48468,1.48926,
-1.4801,1.48315,
-1.47552,1.48926,
-1.474,1.48773,
-1.474,1.50604,
-1.47247,1.49536,
-1.4679,1.48621,
-1.46942,1.48773,
-1.46942,1.49078,
-1.46942,1.49078,
-1.46942,1.48773,
-1.46484,1.48773,
-1.45874,1.48926,
-1.45416,1.49536,
-1.45416,1.49078,
-1.45416,1.49536,
-1.45264,1.48773,
-1.44958,1.48621,
-1.45111,1.49536,
-1.45264,1.49689,
-1.44958,1.49536,
-1.45264,1.48926,
-1.45264,1.49078,
-1.45416,1.49994,
-1.45569,1.49689,
-1.45721,1.48926,
-1.45721,1.49078,
-1.45721,1.49231,
-1.45721,1.50146,
-1.46179,1.49841,
-1.46332,1.49536,
-1.46637,1.49536,
-1.4679,1.49536,
-1.46942,1.50146,
-1.47095,1.50452,
-1.47552,1.49841,
-1.4801,1.49078,
-1.48468,1.49689,
-1.49078,1.50146,
-1.49384,1.50146,
-1.49994,1.50299,
-1.51062,1.49689,
-1.51825,1.49078,
-1.52283,1.50146,
-1.53198,1.49994,
-1.53198,1.49994,
-1.53961,1.49841,
-1.54266,1.49689,
-1.55029,1.50452,
-1.55182,1.50604,
-1.5564,1.51367,
-1.55945,1.49994,
-1.56403,1.50299,
-1.57318,1.50452,
-1.57776,1.50452,
-1.58691,1.49078,
-1.59607,1.48926,
-1.6037,1.50146,
-1.61438,1.50604,
-1.61896,1.50604,
-1.62811,1.50604,
-1.63727,1.49994,
-1.64795,1.50299,
-1.6571,1.50757,
-1.66779,1.50604,
-1.67847,1.50299,
-1.69525,1.50299,
-1.70441,1.50452,
-1.71814,1.50757,
-1.72577,1.50909,
-1.73798,1.49994,
-1.75171,1.50299,
-1.76239,1.50452,
-1.77612,1.50909,
-1.78986,1.50757,
-1.79749,1.50757,
-1.80511,1.49994,
-1.81885,1.50604,
-1.82953,1.51215,
-1.84174,1.51062,
-1.85089,1.50757,
-1.86157,1.49994,
-1.8692,1.50299,
-1.87836,1.51062,
-1.88599,1.51062,
-1.89514,1.50909,
-1.90582,1.50299,
-1.91193,1.50757,
-1.92108,1.51367,
-1.93176,1.50909,
-1.94244,1.50757,
-1.95007,1.50452,
-1.96228,1.51062,
-1.97601,1.51215,
-1.98822,1.51215,
-1.9989,1.51062,
-2.00958,1.50757,
-2.01263,1.51062,
-2.01874,1.51062,
-2.02332,1.51062,
-2.03247,1.51215,
-2.03094,1.50757,
-2.02637,1.50757,
-2.02789,1.51215,
-2.02179,1.52893,
-2.01263,1.51215,
-2.00043,1.50909,
-1.98517,1.51367,
-1.97144,1.51215,
-1.94855,1.51215,
-1.93024,1.51367,
-1.9043,1.50909,
-1.87988,1.51672,
-1.8631,1.5152,
-1.83563,1.5152,
-1.8158,1.51367,
-1.7868,1.51215,
-1.76544,1.51215,
-1.7395,1.51825,
-1.72272,1.51978,
-1.69678,1.51367,
-1.67694,1.51062,
-1.6571,1.5152,
-1.63879,1.51825,
-1.62659,1.51367,
-1.61896,1.51367,
-1.60675,1.51367,
-1.59912,1.51215,
-1.58997,1.51672,
-1.57928,1.51825,
-1.57318,1.51672,
-1.5686,1.51367,
-1.5625,1.5152,
-1.5564,1.5213,
-1.55182,1.51672,
-1.54877,1.51672,
-1.54266,1.5152,
-1.53809,1.5152,
-1.53351,1.51825,
-1.52588,1.51825,
-1.5274,1.51672,
-1.5213,1.51367,
-1.51825,1.51825,
-1.51215,1.52283,
-1.5152,1.52283,
-1.51215,1.5152,
-1.50909,1.51672,
-1.50757,1.51672,
-1.50757,1.5213,
-1.50909,1.5213,
-1.51215,1.51978,
-1.5213,1.51825,
-1.52435,1.51825,
-1.52893,1.52435,
-1.53503,1.5213,
-1.53961,1.5152,
-1.5564,1.51825,
-1.5625,1.51825,
-1.57471,1.52283,
-1.58691,1.52435,
-1.5976,1.51978,
-1.60217,1.51672,
-1.6098,1.5213,
-1.61743,1.52283,
-1.62354,1.52283,
-1.63116,1.51825,
-1.63727,1.51672,
-1.6449,1.52283,
-1.65405,1.52283,
-1.66473,1.52588,
-1.67542,1.5213,
-1.67847,1.5152,
-1.68762,1.5213,
-1.69525,1.52283,
-1.70441,1.5213,
-1.71204,1.5213,
-1.72272,1.51672,
-1.72729,1.51978,
-1.73645,1.52283,
-1.74561,1.52435,
-1.75476,1.52435,
-1.76544,1.5213,
-1.77307,1.51978,
-1.7807,1.52283,
-1.7868,1.53046,
-1.79443,1.5213,
-1.80054,1.51978,
-1.80206,1.52283,
-1.80359,1.52588,
-1.80511,1.52893,
-1.80664,1.52283,
-1.80511,1.52283,
-1.80664,1.5213,
-1.80359,1.52283,
-1.80054,1.52893,
-1.80054,1.52893,
-1.79749,1.5213,
-1.80206,1.52283,
-1.80054,1.52893,
-1.80206,1.53046,
-1.80359,1.52283,
-1.80511,1.52435,
-1.80359,1.5213,
-1.80206,1.52588,
-1.80206,1.52588,
-1.79901,1.52283,
-1.80054,1.52283,
-1.79291,1.52588,
-1.79138,1.52283,
-1.79138,1.53198,
-1.79443,1.52588,
-1.79749,1.5213,
-1.79749,1.5213,
-1.79901,1.52893,
-1.80054,1.53961,
-1.80511,1.52435,
-1.80054,1.52435,
-1.80206,1.52283,
-1.80969,1.53046,
-1.81122,1.53503,
-1.81122,1.5213,
-1.81427,1.52588,
-1.81427,1.52435,
-1.81274,1.52588,
-1.80817,1.54266,
-1.80969,1.52893,
-1.81122,1.52588,
-1.80969,1.52435,
-1.80969,1.52893,
-1.81122,1.52588,
-1.80511,1.52588,
-1.80206,1.52283,
-1.79901,1.52893,
-1.80054,1.53198,
-1.79749,1.53503,
-1.80054,1.52435,
-1.80054,1.51825,
-1.80206,1.53046,
-1.80664,1.53198,
-1.81274,1.52893,
-1.8158,1.52435,
-1.81732,1.52588,
-1.82648,1.52283,
-1.83105,1.53351,
-1.84479,1.52588,
-1.85242,1.53046,
-1.86615,1.52283,
-1.87225,1.52435,
-1.88599,1.53198,
-1.89972,1.53656,
-1.91193,1.52588,
-1.92108,1.52588,
-1.93481,1.53198,
-1.9455,1.53198,
-1.95465,1.53198,
-1.96533,1.52588,
-1.97144,1.52588,
-1.98669,1.52435,
-1.9928,1.53198,
-2.00348,1.53503,
-2.00806,1.52588,
-2.01721,1.52588,
-2.02637,1.53046,
-2.034,1.53351,
-2.034,1.53809,
-2.03705,1.52893,
-2.03552,1.52588,
-2.02789,1.52893,
-2.02484,1.53198,
-2.01721,1.53351,
-2.00806,1.53046,
-1.9989,1.52588,
-1.98822,1.52893,
-1.97754,1.53351,
-1.96228,1.53351,
-1.94702,1.53198,
-1.93024,1.53198,
-1.90887,1.52893,
-1.89667,1.53809,
-1.87531,1.53503,
-1.86005,1.53198,
-1.83868,1.52893,
-1.82495,1.53046,
-1.80359,1.53656,
-1.79138,1.53656,
-1.7746,1.52588,
-1.75934,1.52893,
-1.74408,1.53046,
-1.73187,1.53503,
-1.71814,1.53503,
-1.71204,1.53198,
-1.69983,1.53046,
-1.68915,1.52893,
-1.67847,1.53503,
-1.67084,1.53961,
-1.66931,1.5213,
-1.66016,1.52588,
-1.66016,1.53046,
-1.6571,1.53503,
-1.65253,1.53503,
-1.65253,1.53046,
-1.64795,1.52435,
-1.64795,1.52893,
-1.65253,1.53198,
-1.65405,1.53503,
-1.65863,1.53046,
-1.66168,1.52588,
-1.66626,1.52588,
-1.66931,1.53351,
-1.67847,1.53809,
-1.68152,1.53198,
-1.69067,1.52893,
-1.69373,1.53351,
-1.70135,1.53961,
-1.70898,1.53656,
-1.71356,1.54114,
-1.71356,1.52893,
-1.71509,1.52893,
-1.72119,1.53656,
-1.71814,1.53503,
-1.71814,1.53351,
-1.72272,1.52893,
-1.72424,1.53046,
-1.72729,1.53503,
-1.73035,1.53809,
-1.73492,1.53198,
-1.73798,1.52893,
-1.74408,1.52588,
-1.75018,1.53656,
-1.75629,1.54114,
-1.76544,1.53351,
-1.7746,1.53198,
-1.78223,1.53046,
-1.79443,1.53351,
-1.80511,1.53351,
-1.8158,1.53046,
-1.82953,1.53198,
-1.84174,1.53198,
-1.85089,1.53351,
-1.86462,1.53809,
-1.87225,1.53198,
-1.88293,1.53046,
-1.89056,1.53351,
-1.89667,1.54114,
-1.90582,1.53809,
-1.91498,1.53198,
-1.92261,1.53351,
-1.92871,1.53198,
-1.93939,1.53809,
-1.9455,1.53961,
-1.9516,1.53351,
-1.95618,1.53351,
-1.96228,1.53046,
-1.96228,1.53503,
-1.96838,1.53656,
-1.97296,1.53351,
-1.97754,1.53198,
-1.98364,1.53351,
-1.98669,1.53656,
-1.9928,1.54114,
-2.00195,1.53503,
-2.00958,1.52893,
-2.01874,1.53656,
-2.02484,1.54114,
-2.03552,1.53351,
-2.03857,1.53198,
-2.04163,1.53656,
-2.04773,1.53809,
-2.05841,1.54114,
-2.06757,1.54266,
-2.0752,1.53503,
-2.08282,1.53198,
-2.09045,1.53351,
-2.09656,1.53961,
-2.10266,1.54114,
-2.11334,1.53351,
-2.11639,1.53656,
-2.12555,1.53656,
-2.1286,1.54114,
-2.13928,1.54419,
-2.14386,1.53656,
-2.14996,1.53198,
-2.15454,1.53656,
-2.16064,1.54266,
-2.1637,1.54114,
-2.17285,1.51825,
-2.17743,1.53656,
-2.18201,1.53809,
-2.18353,1.53809,
-2.19116,1.53809,
-2.19727,1.53503,
-2.19879,1.53961,
-2.211,1.54114,
-2.22015,1.54266,
-2.22626,1.54419,
-2.23389,1.53503,
-2.24304,1.53351,
-2.25372,1.54114,
-2.26288,1.55182,
-2.27356,1.54266,
-2.28271,1.53351,
-2.2934,1.53503,
-2.30103,1.53809,
-2.3056,1.54114,
-2.31171,1.54266,
-2.31781,1.53656,
-2.32544,1.53503,
-2.32697,1.53351,
-2.32849,1.54419,
-2.33307,1.54572,
-2.3407,1.53351,
-2.34222,1.53809,
-2.34833,1.53351,
-2.35291,1.54114,
-2.36053,1.54266,
-2.36511,1.52435,
-2.36664,1.53503,
-2.36664,1.53656,
-2.37427,1.53809,
-2.37579,1.54419,
-2.38037,1.53809,
-2.38342,1.53503,
-2.388,1.53503,
-2.3941,1.53961,
-2.40021,1.54724,
-2.40479,1.53656,
-2.40936,1.53656,
-2.41089,1.54114,
-2.41089,1.54114,
-2.41241,1.54266,
-2.41852,1.53503,
-2.41547,1.53809,
-2.41089,1.53809,
-2.40936,1.54266,
-2.40021,1.54877,
-2.3941,1.53656,
-2.38342,1.53809,
-2.37122,1.53351,
-2.36053,1.54419,
-2.34375,1.54266,
-2.32697,1.53503,
-2.31171,1.53809,
-2.29187,1.53656,
-2.27356,1.54724,
-2.25067,1.54724,
-2.23083,1.53503,
-2.21252,1.53961,
-2.19421,1.53656,
-2.18048,1.54266,
-2.16522,1.54266,
-2.14996,1.53656,
-2.13928,1.53809,
-2.12555,1.53961,
-2.11029,1.54266,
-2.09961,1.54724,
-2.09198,1.53656,
-2.07977,1.53503,
-2.07672,1.54114,
-2.06909,1.54266,
-2.06604,1.54572,
-2.06451,1.53809,
-2.06146,1.53809,
-2.06451,1.54266,
-2.06604,1.53503,
-2.07367,1.54572,
-2.07825,1.53656,
-2.08282,1.53961,
-2.0874,1.53656,
-2.09351,1.54419,
-2.09503,1.54724,
-2.10419,1.53809,
-2.10876,1.53961,
-2.11182,1.53961,
-2.1225,1.54572,
-2.13013,1.54724,
-2.13928,1.53656,
-2.14539,1.53961,
-2.15149,1.54114,
-2.15759,1.54419,
-2.16522,1.54572,
-2.17285,1.53961,
-2.17896,1.54266,
-2.18048,1.54114,
-2.18506,1.54266,
-2.19116,1.54877,
-2.19574,1.54266,
-2.20184,1.53503,
-2.20642,1.52893,
-2.20642,1.53961,
-2.20947,1.54877,
-2.20947,1.53961,
-2.20947,1.54266,
-2.211,1.53961,
-2.20795,1.55029,
-2.2049,1.54419,
-2.20184,1.54114,
-2.19574,1.53961,
-2.19269,1.53961,
-2.19116,1.54419,
-2.18658,1.54572,
-2.18506,1.54266,
-2.17896,1.53961,
-2.17743,1.52588,
-2.17285,1.54724,
-2.1698,1.54419,
-2.1698,1.54266,
-2.1637,1.53656,
-2.1637,1.54114,
-2.15912,1.54572,
-2.15912,1.56403,
-2.15607,1.54266,
-2.14996,1.54572,
-2.14539,1.54266,
-2.14539,1.54266,
-2.13776,1.54877,
-2.13318,1.54114,
-2.12708,1.53961,
-2.12402,1.53809,
-2.12097,1.54572,
-2.1225,1.55029,
-2.12097,1.54572,
-2.12402,1.53961,
-2.1225,1.54419,
-2.1286,1.54572,
-2.13318,1.54419,
-2.14081,1.54266,
-2.14844,1.54114,
-2.15759,1.54724,
-2.16827,1.54724,
-2.18048,1.54572,
-2.19269,1.54266,
-2.20642,1.54114,
-2.2171,1.53961,
-2.23083,1.54724,
-2.24152,1.55182,
-2.25067,1.5625,
-2.25983,1.54114,
-2.27051,1.54419,
-2.28424,1.54724,
-2.2934,1.54724,
-2.2995,1.54419,
-2.31171,1.54114,
-2.31934,1.54114,
-2.32697,1.54877,
-2.33917,1.54877,
-2.3468,1.54572,
-2.35291,1.54266,
-2.36053,1.54419,
-2.37122,1.54572,
-2.37885,1.54877,
-2.38495,1.54419,
-2.39258,1.55487,
-2.39868,1.54724,
-2.40479,1.55029,
-2.40936,1.54877,
-2.41241,1.54419,
-2.41852,1.53961,
-2.42615,1.54572,
-2.42615,1.54419,
-2.43073,1.54572,
-2.43378,1.54572,
-2.44293,1.54419,
-2.44751,1.54572,
-2.45209,1.55029,
-2.45361,1.55182,
-2.45819,1.54877,
-2.46277,1.54266,
-2.46735,1.54419,
-2.47192,1.54724,
-2.47345,1.54877,
-2.47955,1.54724,
-2.48108,1.54419,
-2.48718,1.54572,
-2.49329,1.54877,
-2.49481,1.54724,
-2.49786,1.54572,
-2.50244,1.54266,
-2.50092,1.54572,
-2.50092,1.54266,
-2.49786,1.54724,
-2.49176,1.54572,
-2.49481,1.54266,
-2.49481,1.54724,
-2.49481,1.54877,
-2.49329,1.54877,
-2.49023,1.54877,
-2.49176,1.54266,
-2.49329,1.54877,
-2.48718,1.54724,
-2.48566,1.54724,
-2.48413,1.54877,
-2.48871,1.54419,
-2.48413,1.54724,
-2.48566,1.55029,
-2.48413,1.54114,
-2.47498,1.54724,
-2.47192,1.54419,
-2.46124,1.54419,
-2.44904,1.54877,
-2.4353,1.54877,
-2.4231,1.54572,
-2.40479,1.54266,
-2.38647,1.54724,
-2.36664,1.54877,
-2.34528,1.54724,
-2.32239,1.54724,
-2.2995,1.54572,
-2.27814,1.54572,
-2.25372,1.54724,
-2.22626,1.54877,
-2.20642,1.54572,
-2.18353,1.54572,
-2.16827,1.54419,
-2.14844,1.54572,
-2.13318,1.55029,
-2.11792,1.55182,
-2.10571,1.54114,
-2.09503,1.54572,
-2.08588,1.54572,
-2.0752,1.55029,
-2.06909,1.55029,
-2.06757,1.54724,
-2.05994,1.54877,
-2.05383,1.54877,
-2.05078,1.54877,
-2.05231,1.54877,
-2.05688,1.54572,
-2.05688,1.54724,
-2.05536,1.55029,
-2.06451,1.54114,
-2.0752,1.55029,
-2.08282,1.54419,
-2.09351,1.54419,
-2.10724,1.54877,
-2.1225,1.54877,
-2.13318,1.54266,
-2.14233,1.55182,
-2.15607,1.55487,
-2.16827,1.54572,
-2.1759,1.54572,
-2.18353,1.54877,
-2.19269,1.54724,
-2.20184,1.54419,
-2.211,1.54877,
-2.22168,1.54724,
-2.23694,1.54877,
-2.24609,1.54419,
-2.2583,1.54724,
-2.26593,1.55029,
-2.27814,1.55029,
-2.28729,1.54877,
-2.29645,1.54114,
-2.30255,1.55029,
-2.31323,1.54724,
-2.32239,1.54877,
-2.32544,1.54877,
-2.32849,1.54419,
-2.33917,1.54572,
-2.33612,1.55029,
-2.33917,1.54877,
-2.33612,1.54724,
-2.33612,1.54266,
-2.33459,1.54724,
-2.33002,1.55029,
-2.32697,1.55029,
-2.31781,1.54877,
-2.31628,1.54419,
-2.30713,1.54572,
-2.2995,1.55029,
-2.29187,1.55029,
-2.29187,1.54724,
-2.28577,1.54419,
-2.28271,1.54877,
-2.27814,1.53961,
-2.27203,1.54877,
-2.26593,1.55029,
-2.26593,1.54419,
-2.25677,1.54877,
-2.25525,1.54877,
-2.25372,1.55334,
-2.25372,1.54877,
-2.2522,1.54419,
-2.24915,1.54572,
-2.24457,1.55029,
-2.23999,1.55029,
-2.23236,1.54877,
-2.22778,1.54419,
-2.22168,1.54724,
-2.22015,1.54877,
-2.211,1.54572,
-2.211,1.54877,
-2.21405,1.54724,
-2.21405,1.54572,
-2.21252,1.54572,
-2.2171,1.54877,
-2.22015,1.55029,
-2.22015,1.54419,
-2.22626,1.55029,
-2.23083,1.54877,
-2.24304,1.55029,
-2.2522,1.54724,
-2.2583,1.54114,
-2.27051,1.54572,
-2.27814,1.54724,
-2.29187,1.55029,
-2.30713,1.55029,
-2.31323,1.53961,
-2.33002,1.54877,
-2.34375,1.54724,
-2.36053,1.55029,
-2.37427,1.54877,
-2.39105,1.54266,
-2.40326,1.54724,
-2.41394,1.54114,
-2.42157,1.54877,
-2.4292,1.54724,
-2.43988,1.53961,
-2.44751,1.54724,
-2.44598,1.54724,
-2.44904,1.55029,
-2.44904,1.54877,
-2.45361,1.54266,
-2.45514,1.54724,
-2.45514,1.54572,
-2.45209,1.54877,
-2.45361,1.55029,
-2.45361,1.54266,
-2.45819,1.54419,
-2.45361,1.54724,
-2.45819,1.54877,
-2.45819,1.54572,
-2.45667,1.54266,
-2.45972,1.54724,
-2.45514,1.54419,
-2.45819,1.55029,
-2.46277,1.54724,
-2.46277,1.54266,
-2.4704,1.54572,
-2.47192,1.54419,
-2.47345,1.54724,
-2.47498,1.54877,
-2.47803,1.54114,
-2.48108,1.54877,
-2.47498,1.54419,
-2.48108,1.55182,
-2.4826,1.54572,
-2.48413,1.54114,
-2.48413,1.54266,
-2.48108,1.54724,
-2.47498,1.55029,
-2.47498,1.54877,
-2.47498,1.54114,
-2.47803,1.54572,
-2.4826,1.54419,
-2.4826,1.54724,
-2.48718,1.54572,
-2.49329,1.54114,
-2.49634,1.54572,
-2.49634,1.54572,
-2.49939,1.55029,
-2.49939,1.54877,
-2.49329,1.54114,
-2.48871,1.54266,
-2.4826,1.54419,
-2.47955,1.54724,
-2.4704,1.54724,
-2.46582,1.54114,
-2.45361,1.54114,
-2.44598,1.54724,
-2.43683,1.54877,
-2.4292,1.54877,
-2.41699,1.54266,
-2.40326,1.54114,
-2.39563,1.54266,
-2.38037,1.54877,
-2.37427,1.54572,
-2.36053,1.54572,
-2.34985,1.54266,
-2.34833,1.54266,
-2.3407,1.55029,
-2.33154,1.54572,
-2.32849,1.53961,
-2.32086,1.54266,
-2.31934,1.54419,
-2.31934,1.55029,
-2.31628,1.54572,
-2.31628,1.54266,
-2.31628,1.54572,
-2.31628,1.54419,
-2.31628,1.55182,
-2.31476,1.54114,
-2.31934,1.53961,
-2.32239,1.54266,
-2.32391,1.54266,
-2.32849,1.54877,
-2.33459,1.54724,
-2.33459,1.53809,
-2.33917,1.53809,
-2.33917,1.54419,
-2.34222,1.54724,
-2.34375,1.54572,
-2.34375,1.53656,
-2.3468,1.53961,
-2.34222,1.54419,
-2.34528,1.54724,
-2.3407,1.54419,
-2.34375,1.54266,
-2.34833,1.54419,
-2.34528,1.54266,
-2.34375,1.54877,
-2.34222,1.54572,
-2.34375,1.53961,
-2.34222,1.53961,
-2.34222,1.53351,
-2.34528,1.54724,
-2.34528,1.54419,
-2.34375,1.53809,
-2.34528,1.54419,
-2.3468,1.54266,
-2.34985,1.53198,
-2.3468,1.54419,
-2.35596,1.53961,
-2.36053,1.54114,
-2.36511,1.54572,
-2.37427,1.54572,
-2.37885,1.54419,
-2.388,1.53656,
-2.39563,1.53809,
-2.40326,1.54114,
-2.41394,1.54724,
-2.42615,1.54419,
-2.4353,1.53809,
-2.43835,1.53961,
-2.44446,1.54419,
-2.45209,1.54572,
-2.45209,1.54419,
-2.45667,1.53961,
-2.45514,1.53961,
-2.45361,1.54419,
-2.45667,1.54572,
-2.45972,1.54572,
-2.45514,1.53961,
-2.44904,1.53961,
-2.44598,1.54266,
-2.43988,1.54419,
-2.43378,1.54114,
-2.42615,1.53809,
-2.4231,1.53809,
-2.42004,1.54419,
-2.41852,1.54419,
-2.41089,1.54114,
-2.40479,1.53656,
-2.40173,1.53961,
-2.39868,1.54266,
-2.40021,1.53351,
-2.40173,1.53351,
-2.40326,1.53656,
-2.40326,1.53961,
-2.41089,1.54114,
-2.41547,1.53809,
-2.42004,1.53809,
-2.42462,1.53656,
-2.43225,1.53656,
-2.44446,1.54114,
-2.45514,1.54114,
-2.47498,1.54114,
-2.49329,1.53503,
-2.50854,1.53809,
-2.52686,1.54114,
-2.54669,1.53961,
-2.56653,1.53809,
-2.58789,1.53656,
-2.6001,1.53503,
-2.61841,1.53809,
-2.63062,1.53809,
-2.64587,1.53961,
-2.65808,1.53809,
-2.67181,1.53961,
-2.68402,1.53656,
-2.69318,1.54419,
-2.70386,1.54266,
-2.71454,1.53351,
-2.71912,1.53809,
-2.72827,1.53503,
-2.72827,1.54114,
-2.73285,1.53961,
-2.73438,1.53351,
-2.73285,1.53656,
-2.73743,1.53809,
-2.73743,1.53198,
-2.742,1.54114,
-2.74048,1.53351,
-2.742,1.53809,
-2.742,1.53809,
-2.74353,1.53809,
-2.74353,1.54266,
-2.74963,1.52435,
-2.75269,1.53351,
-2.75269,1.53961,
-2.74963,1.53809,
-2.74963,1.53656,
-2.75421,1.53198,
-2.75574,1.53656,
-2.75726,1.53961,
-2.75726,1.53961,
-2.76184,1.53198,
-2.76794,1.53046,
-2.771,1.53198,
-2.77557,1.53809,
-2.7832,1.53656,
-2.79083,1.53656,
-2.79999,1.53351,
-2.80914,1.53656,
-2.81372,1.53809,
-2.82288,1.54266,
-2.82288,1.53961,
-2.83051,1.52588,
-2.83508,1.53503,
-2.83966,1.53809,
-2.84119,1.53809,
-2.84576,1.53809,
-2.84882,1.53198,
-2.86255,1.53503,
-2.86102,1.53809,
-2.8656,1.53503,
-2.87018,1.53198,
-2.87018,1.53046,
-2.86865,1.53351,
-2.87018,1.53503,
-2.87018,1.53961,
-2.86102,1.53809,
-2.83356,1.51825,
-2.84271,1.53046,
-2.82745,1.53961,
-2.80609,1.54266,
-2.79236,1.53351,
-2.77405,1.52893,
-2.74811,1.52893,
-2.72675,1.53961,
-2.70691,1.53656,
-2.68555,1.53351,
-2.65808,1.53351,
-2.62909,1.53046,
-2.60773,1.53656,
-2.58484,1.53961,
-2.56042,1.53503,
-2.53143,1.52893,
-2.50854,1.53503,
-2.48566,1.52588,
-2.46582,1.53961,
-2.44598,1.53198,
-2.43378,1.52588,
-2.41699,1.52893,
-2.40631,1.53503,
-2.40173,1.53503,
-2.39105,1.53503,
-2.38495,1.52588,
-2.38037,1.53198,
-2.37885,1.53198,
-2.37579,1.53503,
-2.37885,1.53503,
-2.38342,1.52588,
-2.38342,1.52588,
-2.38953,1.53198,
-2.39716,1.53656,
-2.40631,1.53809,
-2.41699,1.52893,
-2.42767,1.52893,
-2.43683,1.53198,
-2.45667,1.53656,
-2.46429,1.53351,
-2.47955,1.52588,
-2.49176,1.52435,
-2.50702,1.53503,
-2.52228,1.53656,
-2.53143,1.53351,
-2.54364,1.52893,
-2.55585,1.52588,
-2.565,1.52893,
-2.57416,1.53503,
-2.58636,1.53503,
-2.59705,1.52588,
-2.60468,1.52588,
-2.6062,1.53198,
-2.6123,1.53656,
-2.61536,1.53351,
-2.61993,1.52435,
-2.62299,1.52588,
-2.62146,1.53351,
-2.62299,1.53351,
-2.62299,1.53503,
-2.62451,1.52588,
-2.63062,1.52893,
-2.63062,1.53351,
-2.63062,1.53351,
-2.63519,1.53198,
-2.63824,1.52893,
-2.64435,1.52588,
-2.64893,1.53809,
-2.65198,1.53198,
-2.65198,1.53503,
-2.65198,1.52588,
-2.65198,1.52893,
-2.65503,1.53351,
-2.65656,1.53809,
-2.65656,1.52435,
-2.66113,1.52588,
-2.66418,1.52893,
-2.66724,1.53198,
-2.66876,1.53351,
-2.67334,1.53198,
-2.67639,1.52893,
-2.67792,1.52435,
-2.68402,1.53198,
-2.68707,1.53351,
-2.6886,1.53198,
-2.6947,1.52435,
-2.69623,1.52893,
-2.69775,1.53351,
-2.70233,1.55029,
-2.70844,1.53503,
-2.71149,1.51978,
-2.71149,1.52588,
-2.71759,1.53198,
-2.71454,1.53503,
-2.71759,1.53198,
-2.71454,1.52435,
-2.71759,1.52893,
-2.71149,1.53046,
-2.71149,1.53198,
-2.70844,1.53503,
-2.70844,1.52893,
-2.70844,1.52435,
-2.70844,1.53503,
-2.70538,1.53351,
-2.70081,1.53198,
-2.69928,1.52435,
-2.69165,1.52283,
-2.69012,1.53656,
-2.67944,1.53198,
-2.67334,1.52893,
-2.66266,1.52435,
-2.65198,1.52893,
-2.63977,1.53198,
-2.63367,1.53351,
-2.62299,1.53351,
-2.61993,1.54572,
-2.61688,1.52435,
-2.61536,1.53046,
-2.60773,1.53656,
-2.60468,1.53198,
-2.60468,1.53046,
-2.60773,1.52435,
-2.61078,1.53198,
-2.61536,1.53503,
-2.62299,1.53656,
-2.62604,1.51825,
-2.63367,1.52588,
-2.6413,1.53198,
-2.65198,1.53198,
-2.65961,1.53046,
-2.66418,1.52283,
-2.67181,1.53046,
-2.67487,1.53351,
-2.68402,1.53351,
-2.6947,1.53351,
-2.70538,1.52588,
-2.71454,1.5213,
-2.72369,1.53503,
-2.73895,1.53198,
-2.74963,1.53656,
-2.76642,1.52588,
-2.77863,1.52588,
-2.79083,1.53198,
-2.80304,1.53351,
-2.81677,1.52588,
-2.82898,1.52893,
-2.84882,1.52435,
-2.86407,1.52893,
-2.87628,1.53351,
-2.89154,1.53046,
-2.90222,1.53046,
-2.91138,1.52435,
-2.92358,1.52893,
-2.93274,1.53503,
-2.94495,1.53198,
-2.95258,1.51672,
-2.95868,1.52588,
-2.96326,1.53198,
-2.97089,1.53351,
-2.97394,1.53046,
-2.97699,1.53046,
-2.97852,1.52588,
-2.98767,1.53351,
-2.99377,1.53503,
-2.99683,1.53198,
-3.0014,1.52283,
-3.00293,1.52893,
-3.00446,1.53046,
-3.00903,1.53351,
-3.01361,1.53198,
-3.01971,1.52893,
-3.02429,1.52435,
-3.02429,1.53503,
-3.03192,1.53198,
-3.03345,1.53503,
-3.03345,1.52435,
-3.03497,1.52588,
-3.03345,1.53046,
-3.02429,1.53198,
-3.01514,1.53351,
-3.00751,1.52893,
-2.99988,1.52588,
-2.98309,1.53046,
-2.97089,1.53809,
-2.95563,1.53046,
-2.94342,1.53046,
-2.92358,1.52588,
-2.90833,1.53351,
-2.89459,1.53809,
-2.87933,1.53198,
-2.86713,1.52435,
-2.84424,1.52588,
-2.83051,1.53198,
-2.8183,1.53503,
-2.80304,1.53351,
-2.79541,1.52588,
-2.78168,1.52893,
-2.77252,1.53198,
-2.76184,1.53809,
-2.75421,1.53351,
-2.74658,1.53198,
-2.73895,1.51978,
-2.73285,1.53198,
-2.7298,1.53503,
-2.72675,1.53351,
-2.72675,1.52893,
-2.72522,1.52435,
-2.72369,1.53503,
-2.72675,1.53503,
-2.72827,1.53503,
-2.7298,1.52893,
-2.73438,1.52435,
-2.73743,1.53198,
-2.7359,1.53656,
-2.73895,1.53198,
-2.74658,1.53351,
-2.74506,1.53046,
-2.74658,1.53351,
-2.75421,1.55182,
-2.75879,1.53351,
-2.76337,1.52893,
-2.76489,1.52588,
-2.76947,1.53351,
-2.77252,1.53503,
-2.78015,1.53503,
-2.77863,1.52588,
-2.78625,1.52435,
-2.78625,1.53351,
-2.78778,1.53198,
-2.79236,1.53351,
-2.79846,1.52893,
-2.80151,1.52893,
-2.80609,1.53198,
-2.81219,1.53351,
-2.82135,1.53351,
-2.82898,1.52893,
-2.83813,1.52588,
-2.84576,1.53656,
-2.84882,1.53503,
-2.8595,1.52893,
-2.86407,1.53046,
-2.86865,1.52893,
-2.87476,1.53656,
-2.87933,1.53503,
-2.88391,1.53503,
-2.89307,1.53351,
-2.89612,1.53046,
-2.90527,1.53046,
-2.90985,1.53503,
-2.91748,1.53503,
-2.92358,1.53198,
-2.92664,1.52588,
-2.92511,1.53351,
-2.92358,1.53809,
-2.92053,1.53198,
-2.91901,1.52893,
-2.92053,1.52893,
-2.91748,1.53198,
-2.92053,1.53656,
-2.91748,1.53503,
-2.92053,1.53046,
-2.91901,1.53351,
-2.92053,1.53503,
-2.91901,1.53351,
-2.92358,1.53351,
-2.92358,1.53046,
-2.92358,1.53046,
-2.92664,1.53351,
-2.92816,1.53503,
-2.92816,1.53656,
-2.92664,1.53198,
-2.92816,1.52893,
-2.92664,1.53503,
-2.92511,1.54114,
-2.92053,1.53351,
-2.91748,1.52893,
-2.91595,1.53046,
-2.91138,1.53503,
-2.9068,1.53809,
-2.9068,1.53351,
-2.90222,1.53198,
-2.89764,1.52893,
-2.89307,1.53351,
-2.89001,1.53656,
-2.89154,1.53351,
-2.88391,1.53198,
-2.88391,1.52435,
-2.88391,1.53961,
-2.88239,1.54266,
-2.88391,1.53656,
-2.89001,1.53351,
-2.89459,1.53046,
-2.89917,1.52435,
-2.89917,1.53503,
-2.90527,1.53198,
-2.90985,1.53046,
-2.91595,1.53198,
-2.92358,1.53198,
-2.92358,1.53503,
-2.92816,1.53656,
-2.93884,1.52893,
-2.94189,1.5213,
-2.95105,1.53198,
-2.95868,1.53503,
-2.96783,1.53809,
-2.96936,1.52893,
-2.97394,1.52893,
-2.97852,1.53656,
-2.98615,1.53656,
-2.99377,1.53351,
-2.99835,1.52893,
-3.00751,1.53198,
-3.01056,1.53351,
-3.01361,1.53656,
-3.01819,1.53198,
-3.02277,1.53198,
-3.02124,1.52435,
-3.02277,1.53503,
-3.02734,1.53503,
-3.0304,1.53351,
-3.03497,1.53046,
-3.03955,1.53046,
-3.04718,1.53503,
-3.05023,1.54114,
-3.05786,1.53656,
-3.07007,1.53351,
-3.07617,1.53046,
-3.08228,1.53351,
-3.09601,1.53656,
-3.09753,1.53351,
-3.10974,1.53198,
-3.12042,1.52893,
-3.12805,1.53198,
-3.13721,1.53809,
-3.14789,1.53503,
-3.15857,1.53503,
-3.16925,1.52588,
-3.17993,1.53351,
-3.18604,1.53656,
-3.19061,1.53503,
-3.19977,1.52893,
-3.20587,1.53046,
-3.2074,1.53503,
-3.2135,1.53503,
-3.21655,1.53503,
-3.2196,1.53046,
-3.22723,1.53046,
-3.22876,1.53503,
-3.23639,1.53503,
-3.23944,1.52283,
-3.24554,1.52893,
-3.24554,1.52588,
-3.25012,1.52893,
-3.24402,1.53656,
-3.24402,1.53809,
-3.23639,1.5213,
-3.23029,1.52893,
-3.21808,1.53656,
-3.21045,1.53809,
-3.19672,1.53351,
-3.18451,1.53046,
-3.16925,1.53046,
-3.14789,1.53351,
-3.1311,1.53961,
-3.10669,1.53198,
-3.08075,1.52588,
-3.05481,1.53046,
-3.03192,1.53503,
-3.00751,1.53503,
-2.98004,1.53656,
-2.94952,1.52893,
-2.92664,1.52588,
-2.9007,1.53503,
-2.87933,1.53351,
-2.86255,1.53198,
-2.84576,1.52893,
-2.83051,1.53046,
-2.81677,1.53503,
-2.81067,1.53809,
-2.80304,1.53198,
-2.79236,1.53198,
-2.7832,1.52588,
-2.7832,1.53351,
-2.78015,1.53961,
-2.77863,1.53351,
-2.7771,1.53503,
-2.7832,1.53046,
-2.78931,1.5213,
-2.79388,1.54114,
-2.79694,1.53503,
-2.80762,1.53046,
-2.81525,1.52588,
-2.82745,1.53198,
-2.84119,1.53503,
-2.85187,1.53198,
-2.86713,1.53198,
-2.88086,1.52893,
-2.89307,1.53351,
-2.90375,1.53351,
-2.91748,1.53198,
-2.92511,1.52893,
-2.93427,1.52588,
-2.93427,1.53503,
-2.93579,1.53656,
-2.94037,1.53503,
-2.94342,1.53046,
-2.94495,1.52283,
-2.948,1.53503,
-2.948,1.53809,
-2.948,1.53046,
-2.95105,1.52893,
-2.94647,1.52283,
-2.94647,1.53351,
-2.948,1.53503,
-2.94495,1.53351,
-2.94342,1.52588,
-2.93884,1.52588,
-2.93427,1.53198,
-2.92664,1.53961,
-2.91901,1.53351,
-2.90833,1.52588,
-2.90222,1.52893,
-2.89459,1.53351,
-2.88239,1.53809,
-2.87476,1.53198,
-2.87018,1.52588,
-2.8595,1.53046,
-2.84882,1.53198,
-2.83966,1.53503,
-2.83203,1.53198,
-2.81677,1.52283,
-2.80609,1.52893,
-2.79694,1.53198,
-2.78625,1.52588,
-2.77863,1.53809,
-2.76947,1.5152,
-2.76184,1.52435,
-2.75879,1.52893,
-2.75269,1.53656,
-2.74353,1.53198,
-2.73743,1.53046,
-2.72522,1.52435,
-2.71454,1.53656,
-2.70844,1.53656,
-2.70233,1.53046,
-2.69318,1.52893,
-2.69165,1.52893,
-2.68097,1.53198,
-2.68555,1.53503,
-2.67639,1.53046,
-2.67792,1.53046,
-2.67944,1.52588,
-2.68402,1.53198,
-2.68707,1.53503,
-2.69165,1.53198,
-2.6947,1.52435,
-2.70081,1.52435,
-2.70996,1.52893,
-2.71301,1.53351,
-2.72369,1.53046,
-2.73132,1.52588,
-2.74048,1.53198,
-2.75574,1.53046,
-2.76642,1.53198,
-2.77863,1.53351,
-2.78778,1.52893,
-2.80151,1.52435,
-2.81372,1.53046,
-2.82745,1.53198,
-2.84119,1.52588,
-2.85645,1.52435,
-2.86713,1.52435,
-2.87933,1.52893,
-2.88696,1.53503,
-2.89917,1.52588,
-2.90527,1.52588,
-2.92053,1.52435,
-2.93121,1.52588,
-2.94189,1.53351,
-2.94952,1.53198,
-2.96021,1.52588,
-2.96631,1.52588,
-2.96783,1.52588,
-2.97241,1.53198,
-2.98157,1.52893,
-2.97852,1.52283,
-2.98004,1.52588,
-2.98767,1.52893,
-2.99072,1.53351,
-2.99988,1.53046,
-3.0014,1.52435,
-2.99988,1.52893,
-3.00293,1.52893,
-2.99988,1.53046,
-3.0014,1.53046,
-3.00293,1.52435,
-3.0014,1.52283,
-3.00598,1.52893,
-3.00903,1.53351,
-3.01514,1.53198,
-3.02277,1.52435,
-3.02734,1.52588,
-3.03192,1.52893,
-3.03802,1.53351,
-3.04413,1.52588,
-3.04565,1.52588,
-3.05023,1.52588,
-3.04871,1.53198,
-3.05176,1.53351,
-3.05176,1.52893,
-3.05328,1.52588,
-3.05939,1.52435,
-3.06396,1.52588,
-3.06702,1.53198,
-3.06854,1.52893,
-3.07007,1.52283,
-3.06702,1.52435,
-3.06396,1.52588,
-3.05939,1.53656,
-3.06244,1.52588,
-3.05939,1.52588,
-3.05786,1.5213,
-3.05634,1.52588,
-3.05481,1.52893,
-3.05481,1.52435,
-3.06244,1.52435,
-3.05939,1.52893,
-3.05939,1.53198,
-3.05328,1.53198,
-3.05176,1.52893,
-3.04871,1.52435,
-3.04718,1.5213,
-3.03955,1.52588,
-3.03497,1.52893,
-3.02734,1.52588,
-3.01361,1.52283,
-3.0014,1.52588,
-2.98004,1.52588,
-2.96631,1.53351,
-2.94952,1.52588,
-2.93427,1.52283,
-2.91748,1.52435,
-2.89612,1.52893,
-2.87933,1.53503,
-2.8656,1.52435,
-2.84424,1.52283,
-2.83356,1.52435,
-2.81677,1.52435,
-2.80609,1.53198,
-2.79236,1.52435,
-2.78778,1.5213,
-2.7771,1.52435,
-2.76947,1.52283,
-2.76337,1.53198,
-2.75879,1.52588,
-2.75726,1.52283,
-2.75421,1.52435,
-2.74963,1.52283,
-2.75574,1.52893,
-2.75269,1.52588,
-2.75574,1.51978,
-2.75726,1.5213,
-2.75574,1.52283,
-2.75574,1.53198,
-2.74963,1.53046,
-2.74811,1.5213,
-2.74963,1.5213,
-2.74811,1.52283,
-2.75269,1.52893,
-2.74811,1.52588,
-2.74353,1.51825,
-2.742,1.52283,
-2.73743,1.52588,
-2.74048,1.53198,
-2.74048,1.52283,
-2.74048,1.51367,
-2.73895,1.52283,
-2.74506,1.51978,
-2.75574,1.53198,
-2.76337,1.52893,
-2.77252,1.5213,
-2.7771,1.51978,
-2.79083,1.51825,
-2.79541,1.53046,
-2.80762,1.52435,
-2.81372,1.51978,
-2.82288,1.52435,
-2.83203,1.52283,
-2.84271,1.52435,
-2.85034,1.52588,
-2.8595,1.51978,
-2.86713,1.5213,
-2.87323,1.5213,
-2.87476,1.52588,
-2.88239,1.52588,
-2.89154,1.51825,
-2.89154,1.51978,
-2.89764,1.5213,
-2.90527,1.52893,
-2.90985,1.52435,
-2.90985,1.52283,
-2.91901,1.51978,
-2.92664,1.52283,
-2.92664,1.51978,
-2.92816,1.5213,
-2.92969,1.51672,
-2.92664,1.51978,
-2.92358,1.51672,
-2.91901,1.52893,
-2.91595,1.5213,
-2.9129,1.51978,
-2.90527,1.5213,
-2.89917,1.51825,
-2.89459,1.52588,
-2.88544,1.51978,
-2.88086,1.51672,
-2.87628,1.52283,
-2.8717,1.52283,
-2.86865,1.52893,
-2.86102,1.51367,
-2.85645,1.51825,
-2.84882,1.52283,
-2.84576,1.5213,
-2.83508,1.5213,
-2.83203,1.52283,
-2.82745,1.51367,
-2.82135,1.53351,
-2.81525,1.51978,
-2.81219,1.52283,
-2.80914,1.52435,
-2.80762,1.51672,
-2.80914,1.51825,
-2.80914,1.52283,
-2.80914,1.52893,
-2.80762,1.5213,
-2.80914,1.51672,
-2.80914,1.51978,
-2.80457,1.5213,
-2.80762,1.52588,
-2.81067,1.51978,
-2.81219,1.51672,
-2.81525,1.51825,
-2.81067,1.5213,
-2.81525,1.52283,
-2.8183,1.5213,
-2.82135,1.51062,
-2.82745,1.51978,
-2.83356,1.51825,
-2.83813,1.52435,
-2.84576,1.5213,
-2.85034,1.51215,
-2.85797,1.51672,
-2.8656,1.51978,
-2.87476,1.52435,
-2.88696,1.5213,
-2.90375,1.51672,
-2.91595,1.51825,
-2.91901,1.51062,
-2.94189,1.52435,
-2.95563,1.5213,
-2.97241,1.5152,
-2.98615,1.51062,
-3.00598,1.51825,
-3.01971,1.52435,
-3.03497,1.51978,
-3.04871,1.5152,
-3.05939,1.5152,
-3.07465,1.51978,
-3.08838,1.52435,
-3.10211,1.51672,
-3.11432,1.51367,
-3.12805,1.51062,
-3.13416,1.51825,
-3.14178,1.5213,
-3.14789,1.52283,
-3.15704,1.51672,
-3.1662,1.51215,
-3.17383,1.51672,
-3.17841,1.52283,
-3.18604,1.51825,
-3.19672,1.51367,
-3.20129,1.5152,
-3.20282,1.51825,
-3.21045,1.5213,
-3.21045,1.51825,
-3.21503,1.51367,
-3.21808,1.5152,
-3.21808,1.51672,
-3.21808,1.5213,
-3.21655,1.5213,
-3.21808,1.51215,
-3.21503,1.5152,
-3.2135,1.52283,
-3.21198,1.52283,
-3.21503,1.51672,
-3.21045,1.51367,
-3.21198,1.51215,
-3.20892,1.51672,
-3.20587,1.5213,
-3.20435,1.51672,
-3.20587,1.51215,
-3.20282,1.51367,
-3.19672,1.51825,
-3.19214,1.51978,
-3.18604,1.51978,
-3.18146,1.51978,
-3.16772,1.52283,
-3.15247,1.5152,
-3.13873,1.51978,
-3.12042,1.5213,
-3.10059,1.51062,
-3.07465,1.5152,
-3.04718,1.51825,
-3.02734,1.51978,
-2.99988,1.51672,
-2.97546,1.50757,
-2.95868,1.51215,
-2.93274,1.51672,
-2.9068,1.51825,
-2.88086,1.51367,
-2.86255,1.51215,
-2.84424,1.51215,
-2.83051,1.5152,
-2.8183,1.5152,
-2.80457,1.5213,
-2.79541,1.51367,
-2.78625,1.51215,
-2.77557,1.51367,
-2.77252,1.51978,
-2.76947,1.51825,
-2.76642,1.51215,
-2.76489,1.51062,
-2.76489,1.51978,
-2.771,1.51978,
-2.7771,1.5152,
-2.78931,1.51062,
-2.79236,1.51367,
-2.79846,1.51367,
-2.80609,1.5213,
-2.81677,1.51367,
-2.82288,1.5152,
-2.83051,1.5152,
-2.83813,1.51367,
-2.84424,1.51978,
-2.84576,1.51978,
-2.85492,1.51215,
-2.8595,1.51215,
-2.86713,1.5152,
-2.87018,1.51825,
-2.87781,1.5152,
-2.87781,1.51062,
-2.87933,1.50299,
-2.87323,1.5152,
-2.87628,1.51672,
-2.87628,1.51825,
-2.87476,1.50909,
-2.87323,1.50909,
-2.87018,1.5152,
-2.86407,1.51672,
-2.86102,1.5152,
-2.85645,1.50757,
-2.84882,1.51215,
-2.84119,1.51367,
-2.83661,1.5152,
-2.82593,1.51215,
-2.81677,1.51062,
-2.81067,1.51367,
-2.80151,1.51367,
-2.79694,1.51825,
-2.78778,1.51367,
-2.77863,1.51062,
-2.77405,1.51367,
-2.76642,1.50452,
-2.76337,1.51978,
-2.75726,1.51215,
-2.75574,1.50909,
-2.75421,1.51062,
-2.74658,1.51215,
-2.74353,1.51672,
-2.7359,1.5152,
-2.7298,1.50909,
-2.7298,1.51062,
-2.72522,1.51367,
-2.72064,1.5152,
-2.72064,1.51215,
-2.72064,1.50909,
-2.71759,1.51215,
-2.71759,1.51062,
-2.71301,1.51367,
-2.71149,1.51062,
-2.70844,1.50909,
-2.71149,1.50909,
-2.71149,1.5152,
-2.71454,1.51672,
-2.72064,1.51062,
-2.72217,1.50909,
-2.72522,1.50909,
-2.72827,1.51215,
-2.73438,1.51825,
-2.73895,1.51062,
-2.74963,1.51062,
-2.75574,1.51062,
-2.76489,1.51062,
-2.77405,1.51825,
-2.78015,1.51215,
-2.79083,1.49994,
-2.79694,1.51062,
-2.80151,1.50909,
-2.81067,1.5152,
-2.82288,1.51367,
-2.83203,1.50299,
-2.84119,1.51215,
-2.85187,1.51062,
-2.85797,1.51367,
-2.86407,1.51367,
-2.87476,1.51062,
-2.87933,1.50909,
-2.88391,1.50909,
-2.89001,1.51215,
-2.89154,1.51215,
-2.89307,1.50604,
-2.89612,1.50604,
-2.89764,1.51215,
-2.89764,1.5152,
-2.89612,1.51062,
-2.89917,1.50452,
-2.90222,1.50757,
-2.9068,1.5152,
-2.9129,1.51367,
-2.91901,1.51062,
-2.91901,1.50604,
-2.92053,1.50757,
-2.92664,1.50909,
-2.92969,1.5152,
-2.92816,1.51062,
-2.92816,1.50909,
-2.92358,1.50604,
-2.92358,1.51215,
-2.91595,1.51215,
-2.91901,1.50909,
-2.92053,1.50757,
-2.91748,1.50757,
-2.92358,1.50909,
-2.91901,1.51215,
-2.92664,1.51367,
-2.92053,1.50757,
-2.92816,1.51215,
-2.92969,1.50604,
-2.92511,1.51062,
-2.92969,1.5152,
-2.93427,1.50604,
-2.93732,1.50452,
-2.93884,1.51062,
-2.94037,1.5152,
-2.94495,1.51062,
-2.95258,1.50757,
-2.95258,1.50604,
-2.95563,1.51215,
-2.96173,1.51215,
-2.96326,1.50909,
-2.96326,1.50604,
-2.96631,1.50452,
-2.96631,1.51062,
-2.96783,1.51367,
-2.97089,1.50909,
-2.96936,1.50757,
-2.96783,1.50604,
-2.96478,1.50604,
-2.96783,1.5152,
-2.96783,1.50909,
-2.96631,1.50452,
-2.96478,1.50757,
-2.96783,1.50909,
-2.96936,1.5152,
-2.96326,1.50909,
-2.96631,1.50452,
-2.96478,1.50604,
-2.96478,1.51062,
