-2.21558,0.585938,
-2.21558,0.582886,
-2.22321,0.575256,
-2.22931,0.576782,
-2.23083,0.582886,
-2.23083,0.584412,
-2.23236,0.58136,
-2.23694,0.576782,
-2.23236,0.575256,
-2.22931,0.584412,
-2.22321,0.579834,
-2.21252,0.585938,
-2.19574,0.575256,
-2.17896,0.576782,
-2.16217,0.584412,
-2.13928,0.582886,
-2.11334,0.584412,
-2.09045,0.576782,
-2.06146,0.579834,
-2.03705,0.58136,
-2.00806,0.58136,
-1.97601,0.582886,
-1.94397,0.57373,
-1.90582,0.58136,
-1.87073,0.58136,
-1.84174,0.58136,
-1.80817,0.579834,
-1.7807,0.57373,
-1.75476,0.570679,
-1.72729,0.578308,
-1.70135,0.579834,
-1.68304,0.579834,
-1.66321,0.575256,
-1.64642,0.579834,
-1.63269,0.58136,
-1.62048,0.58136,
-1.61133,0.58136,
-1.59912,0.57373,
-1.5976,0.58136,
-1.59454,0.582886,
-1.59302,0.585938,
-1.59149,0.585938,
-1.58997,0.575256,
-1.59149,0.578308,
-1.59149,0.584412,
-1.59302,0.584412,
-1.5976,0.58136,
-1.60065,0.575256,
-1.60065,0.57373,
-1.60675,0.578308,
-1.6098,0.58136,
-1.61743,0.58136,
-1.62506,0.572205,
-1.63269,0.576782,
-1.63727,0.578308,
-1.64185,0.584412,
-1.65558,0.584412,
-1.66168,0.57373,
-1.67389,0.57373,
-1.67694,0.584412,
-1.6922,0.58136,
-1.69983,0.579834,
-1.70898,0.578308,
-1.72119,0.58136,
-1.7334,0.582886,
-1.74103,0.585938,
-1.75171,0.578308,
-1.76544,0.576782,
-1.77307,0.576782,
-1.7807,0.585938,
-1.79291,0.582886,
-1.80359,0.579834,
-1.80969,0.575256,
-1.8219,0.576782,
-1.83411,0.579834,
-1.84326,0.58136,
-1.85547,0.579834,
-1.86615,0.572205,
-1.87378,0.578308,
-1.88293,0.58136,
-1.88599,0.585938,
-1.89056,0.579834,
-1.89667,0.575256,
-1.89667,0.576782,
-1.89514,0.582886,
-1.89667,0.584412,
-1.89819,0.578308,
-1.89819,0.576782,
-1.89514,0.575256,
-1.89056,0.578308,
-1.88904,0.582886,
-1.89056,0.58136,
-1.88599,0.575256,
-1.88446,0.576782,
-1.87988,0.58136,
-1.87378,0.58136,
-1.87378,0.582886,
-1.87073,0.57373,
-1.87531,0.575256,
-1.86768,0.58136,
-1.86615,0.584412,
-1.86615,0.579834,
-1.86615,0.57373,
-1.87073,0.566101,
-1.87073,0.58136,
-1.87531,0.58136,
-1.87988,0.576782,
-1.88751,0.572205,
-1.89056,0.579834,
-1.89514,0.578308,
-1.90277,0.587463,
-1.9043,0.579834,
-1.90887,0.575256,
-1.91193,0.57373,
-1.91803,0.579834,
-1.91956,0.584412,
-1.92108,0.588989,
-1.93024,0.576782,
-1.93787,0.579834,
-1.93939,0.58136,
-1.9455,0.579834,
-1.9516,0.579834,
-1.95618,0.576782,
-1.96228,0.578308,
-1.96838,0.579834,
-1.97296,0.582886,
-1.98212,0.578308,
-1.98822,0.57373,
-1.99738,0.576782,
-2.005,0.579834,
-2.00958,0.579834,
-2.01416,0.576782,
-2.02484,0.570679,
-2.034,0.576782,
-2.04315,0.58136,
-2.0462,0.587463,
-2.05536,0.579834,
-2.05994,0.575256,
-2.06757,0.57373,
-2.07367,0.582886,
-2.07977,0.582886,
-2.08435,0.572205,
-2.09656,0.567627,
-2.10114,0.576782,
-2.10876,0.579834,
-2.11334,0.579834,
-2.11792,0.579834,
-2.12402,0.57373,
-2.1347,0.576782,
-2.14081,0.576782,
-2.14233,0.578308,
-2.14996,0.578308,
-2.14996,0.575256,
-2.15607,0.578308,
-2.15759,0.578308,
-2.16217,0.582886,
-2.16827,0.579834,
-2.1698,0.575256,
-2.17743,0.575256,
-2.18048,0.578308,
-2.18658,0.584412,
-2.18658,0.576782,
-2.19727,0.570679,
-2.20184,0.57373,
-2.20947,0.579834,
-2.21405,0.578308,
-2.22321,0.57373,
-2.22626,0.57373,
-2.23694,0.57373,
-2.23846,0.579834,
-2.24152,0.58136,
-2.24762,0.579834,
-2.24762,0.570679,
-2.2522,0.57373,
-2.24915,0.58136,
-2.24762,0.58136,
-2.24457,0.576782,
-2.23236,0.572205,
-2.22473,0.579834,
-2.21252,0.58136,
-2.19574,0.582886,
-2.18048,0.578308,
-2.15912,0.572205,
-2.13013,0.576782,
-2.10114,0.579834,
-2.06757,0.582886,
-2.03552,0.576782,
-2.00043,0.57373,
-1.96381,0.575256,
-1.92871,0.58136,
-1.89362,0.582886,
-1.86005,0.579834,
-1.828,0.572205,
-1.79749,0.575256,
-1.76239,0.579834,
-1.73492,0.584412,
-1.70593,0.579834,
-1.68152,0.576782,
-1.6571,0.57373,
-1.63574,0.579834,
-1.62201,0.58136,
-1.6037,0.576782,
-1.58691,0.572205,
-1.57471,0.567627,
-1.56555,0.582886,
-1.5564,0.579834,
-1.55029,0.58136,
-1.54114,0.572205,
-1.53961,0.572205,
-1.54114,0.576782,
-1.53809,0.582886,
-1.54266,0.58136,
-1.55487,0.570679,
-1.5564,0.570679,
-1.5625,0.578308,
-1.5625,0.58136,
-1.56555,0.582886,
-1.57013,0.57373,
-1.57623,0.576782,
-1.57928,0.576782,
-1.58691,0.58136,
-1.58844,0.582886,
-1.59302,0.575256,
-1.59912,0.572205,
-1.6037,0.578308,
-1.61285,0.576782,
-1.61896,0.582886,
-1.62201,0.572205,
-1.62354,0.572205,
-1.62659,0.575256,
-1.63269,0.579834,
-1.63727,0.582886,
-1.63727,0.570679,
-1.64185,0.570679,
-1.64948,0.575256,
-1.65558,0.58136,
-1.66016,0.58136,
-1.66473,0.567627,
-1.67389,0.569153,
-1.67542,0.578308,
-1.68304,0.582886,
-1.69067,0.579834,
-1.6983,0.572205,
-1.70135,0.575256,
-1.70898,0.576782,
-1.71509,0.58136,
-1.72577,0.576782,
-1.73187,0.572205,
-1.73798,0.572205,
-1.74255,0.57373,
-1.75018,0.576782,
-1.75934,0.576782,
-1.75934,0.57373,
-1.75934,0.584412,
-1.76239,0.576782,
-1.76392,0.579834,
-1.76544,0.58136,
-1.76849,0.572205,
-1.77155,0.579834,
-1.77155,0.576782,
-1.7746,0.579834,
-1.7746,0.578308,
-1.77765,0.572205,
-1.77917,0.575256,
-1.77917,0.579834,
-1.77765,0.575256,
-1.77917,0.575256,
-1.77307,0.570679,
-1.76849,0.575256,
-1.76697,0.575256,
-1.76849,0.58136,
-1.76849,0.579834,
-1.76849,0.572205,
-1.76392,0.572205,
-1.76392,0.576782,
-1.76849,0.58136,
-1.76849,0.58136,
-1.77307,0.563049,
-1.77612,0.575256,
-1.77917,0.576782,
-1.77917,0.582886,
-1.77917,0.579834,
-1.78375,0.567627,
-1.79138,0.572205,
-1.79596,0.579834,
-1.80359,0.578308,
-1.80664,0.579834,
-1.81122,0.572205,
-1.81885,0.572205,
-1.828,0.579834,
-1.83258,0.582886,
-1.83716,0.578308,
-1.84174,0.570679,
-1.84631,0.572205,
-1.85089,0.578308,
-1.85852,0.582886,
-1.86005,0.579834,
-1.86768,0.569153,
-1.8692,0.569153,
-1.87683,0.578308,
-1.88141,0.582886,
-1.88599,0.578308,
-1.88904,0.569153,
-1.89972,0.569153,
-1.90125,0.576782,
-1.90887,0.582886,
-1.91803,0.578308,
-1.92108,0.570679,
-1.93329,0.570679,
-1.93634,0.578308,
-1.94092,0.584412,
-1.94702,0.575256,
-1.95465,0.570679,
-1.96381,0.572205,
-1.97449,0.578308,
-1.98212,0.582886,
-1.98669,0.576782,
-1.9989,0.572205,
-2.00653,0.570679,
-2.01416,0.575256,
-2.02179,0.584412,
-2.03247,0.569153,
-2.03552,0.57373,
-2.04315,0.570679,
-2.04773,0.57373,
-2.04926,0.58136,
-2.05994,0.576782,
-2.06451,0.570679,
-2.07367,0.572205,
-2.07825,0.576782,
-2.0874,0.58136,
-2.09198,0.578308,
-2.09656,0.572205,
-2.10114,0.570679,
-2.10571,0.57373,
-2.11029,0.58136,
-2.11945,0.576782,
-2.1225,0.575256,
-2.12708,0.569153,
-2.1347,0.575256,
-2.14081,0.582886,
-2.14233,0.579834,
-2.14844,0.570679,
-2.15607,0.572205,
-2.15759,0.576782,
-2.15912,0.58136,
-2.16522,0.57373,
-2.16827,0.570679,
-2.17438,0.570679,
-2.17896,0.575256,
-2.18353,0.579834,
-2.18964,0.576782,
-2.18811,0.57373,
-2.19269,0.567627,
-2.18506,0.572205,
-2.17743,0.578308,
-2.16522,0.575256,
-2.14691,0.572205,
-2.13013,0.566101,
-2.11029,0.57373,
-2.08282,0.576782,
-2.05231,0.575256,
-2.02179,0.570679,
-1.99127,0.569153,
-1.95618,0.572205,
-1.92108,0.576782,
-1.88446,0.575256,
-1.84784,0.569153,
-1.81122,0.572205,
-1.77765,0.575256,
-1.74408,0.579834,
-1.71204,0.575256,
-1.67694,0.567627,
-1.6449,0.570679,
-1.61438,0.578308,
-1.58997,0.578308,
-1.56097,0.576782,
-1.53503,0.570679,
-1.51062,0.570679,
-1.49384,0.575256,
-1.47247,0.58136,
-1.45721,0.575256,
-1.44806,0.569153,
-1.43738,0.566101,
-1.42822,0.579834,
-1.41907,0.579834,
-1.41144,0.57373,
-1.40686,0.57373,
-1.40381,0.567627,
-1.40076,0.579834,
-1.39923,0.579834,
-1.39771,0.576782,
-1.39923,0.57373,
-1.40076,0.566101,
-1.40381,0.579834,
-1.40839,0.572205,
-1.41449,0.575256,
-1.41449,0.570679,
-1.41907,0.569153,
-1.43433,0.579834,
-1.4389,0.579834,
-1.44196,0.575256,
-1.44806,0.570679,
-1.44653,0.566101,
-1.45416,0.579834,
-1.46332,0.578308,
-1.4679,0.575256,
-1.47247,0.570679,
-1.47552,0.567627,
-1.4801,0.578308,
-1.48773,0.58136,
-1.49536,0.579834,
-1.49689,0.570679,
-1.50146,0.570679,
-1.50757,0.576782,
-1.51978,0.578308,
-1.5274,0.578308,
-1.53809,0.570679,
-1.54877,0.570679,
-1.5564,0.57373,
-1.56555,0.579834,
-1.57166,0.576782,
-1.58386,0.572205,
-1.59302,0.57373,
-1.60217,0.576782,
-1.6098,0.57373,
-1.61896,0.578308,
-1.62354,0.569153,
-1.63269,0.567627,
-1.63574,0.578308,
-1.64032,0.579834,
-1.64337,0.58136,
-1.64795,0.570679,
-1.65253,0.572205,
-1.64948,0.578308,
-1.65558,0.578308,
-1.65405,0.578308,
-1.65405,0.570679,
-1.65405,0.567627,
-1.64948,0.578308,
-1.64948,0.579834,
-1.64642,0.579834,
-1.64337,0.572205,
-1.6449,0.569153,
-1.63727,0.576782,
-1.63879,0.578308,
-1.63727,0.579834,
-1.63574,0.567627,
-1.63422,0.569153,
-1.63422,0.57373,
-1.63422,0.576782,
-1.63269,0.576782,
-1.63116,0.569153,
-1.63574,0.570679,
-1.63574,0.575256,
-1.64032,0.576782,
-1.64185,0.578308,
-1.64185,0.57373,
-1.64642,0.570679,
-1.65405,0.576782,
-1.65405,0.57373,
-1.65558,0.576782,
-1.66168,0.570679,
-1.66626,0.569153,
-1.66931,0.576782,
-1.67694,0.576782,
-1.67999,0.575256,
-1.6861,0.57373,
-1.6922,0.57373,
-1.69678,0.559998,
-1.69983,0.572205,
-1.71356,0.578308,
-1.72119,0.570679,
-1.72882,0.572205,
-1.73798,0.578308,
-1.74866,0.569153,
-1.76086,0.576782,
-1.76697,0.567627,
-1.77307,0.570679,
-1.7807,0.576782,
-1.7868,0.576782,
-1.79749,0.576782,
-1.80511,0.570679,
-1.81274,0.572205,
-1.8219,0.578308,
-1.83258,0.575256,
-1.84174,0.576782,
-1.85089,0.570679,
-1.85394,0.575256,
-1.86615,0.578308,
-1.87683,0.578308,
-1.87988,0.575256,
-1.89362,0.569153,
-1.89972,0.570679,
-1.90277,0.575256,
-1.9104,0.57373,
-1.92108,0.576782,
-1.92413,0.570679,
-1.93481,0.57373,
-1.93939,0.579834,
-1.9455,0.563049,
-1.95465,0.576782,
-1.96228,0.569153,
-1.96991,0.570679,
-1.97754,0.578308,
-1.98669,0.576782,
-1.9989,0.576782,
-2.00806,0.569153,
-2.01111,0.572205,
-2.01569,0.57373,
-2.02179,0.579834,
-2.034,0.578308,
-2.0401,0.572205,
-2.04468,0.57373,
-2.05078,0.576782,
-2.05841,0.576782,
-2.06909,0.575256,
-2.07367,0.567627,
-2.07977,0.569153,
-2.07977,0.572205,
-2.0874,0.576782,
-2.09198,0.575256,
-2.09656,0.561523,
-2.10266,0.569153,
-2.10724,0.578308,
-2.10724,0.575256,
-2.11182,0.572205,
-2.11945,0.566101,
-2.1225,0.566101,
-2.13013,0.572205,
-2.13318,0.575256,
-2.13623,0.570679,
-2.13318,0.566101,
-2.1347,0.563049,
-2.1286,0.57373,
-2.12555,0.578308,
-2.11945,0.578308,
-2.11029,0.566101,
-2.09351,0.570679,
-2.07825,0.572205,
-2.05841,0.579834,
-2.03552,0.572205,
-2.01263,0.566101,
-1.98822,0.567627,
-1.95465,0.570679,
-1.92719,0.579834,
-1.89667,0.576782,
-1.8631,0.563049,
-1.82953,0.57373,
-1.80054,0.576782,
-1.77155,0.58136,
-1.73645,0.576782,
-1.71204,0.567627,
-1.67999,0.569153,
-1.6571,0.569153,
-1.63422,0.58136,
-1.60828,0.575256,
-1.58844,0.567627,
-1.56708,0.572205,
-1.54877,0.576782,
-1.52588,0.582886,
-1.5152,0.57373,
-1.49841,0.569153,
-1.48468,0.570679,
-1.474,0.578308,
-1.46637,0.582886,
-1.46027,0.576782,
-1.45874,0.569153,
-1.45569,0.570679,
-1.45416,0.57373,
-1.44958,0.578308,
-1.44958,0.576782,
-1.45264,0.570679,
-1.45264,0.570679,
-1.45569,0.57373,
-1.45569,0.578308,
-1.45874,0.57373,
-1.46484,0.57373,
-1.46484,0.570679,
-1.4679,0.575256,
-1.47095,0.58136,
-1.474,0.576782,
-1.47705,0.575256,
-1.4801,0.567627,
-1.4801,0.575256,
-1.4801,0.58136,
-1.48163,0.578308,
-1.48468,0.57373,
-1.48773,0.570679,
-1.49384,0.576782,
-1.49689,0.584412,
-1.50299,0.579834,
-1.50604,0.570679,
-1.50909,0.57373,
-1.51978,0.576782,
-1.5274,0.578308,
-1.53503,0.579834,
-1.54114,0.569153,
-1.55029,0.57373,
-1.5564,0.572205,
-1.56708,0.58136,
-1.56708,0.57373,
-1.57623,0.572205,
-1.58386,0.57373,
-1.59149,0.570679,
-1.5976,0.58136,
-1.6037,0.578308,
-1.60675,0.572205,
-1.60828,0.575256,
-1.6037,0.57373,
-1.60522,0.576782,
-1.6098,0.578308,
-1.60217,0.578308,
-1.60217,0.572205,
-1.60675,0.569153,
-1.60675,0.578308,
-1.6098,0.575256,
-1.60828,0.572205,
-1.6098,0.570679,
-1.60828,0.575256,
-1.60828,0.578308,
-1.61133,0.576782,
-1.61285,0.572205,
-1.61438,0.570679,
-1.61285,0.575256,
-1.61743,0.578308,
-1.61438,0.578308,
-1.61896,0.57373,
-1.61438,0.572205,
-1.61743,0.575256,
-1.61743,0.579834,
-1.61896,0.575256,
-1.61896,0.57373,
-1.62201,0.572205,
-1.62201,0.575256,
-1.62048,0.579834,
-1.62354,0.579834,
-1.62659,0.570679,
-1.63269,0.572205,
-1.63727,0.572205,
-1.64337,0.579834,
-1.6449,0.576782,
-1.64642,0.570679,
-1.65558,0.572205,
-1.66016,0.572205,
-1.66779,0.578308,
-1.67389,0.57373,
-1.68152,0.572205,
-1.68915,0.570679,
-1.6922,0.576782,
-1.70135,0.58136,
-1.70135,0.566101,
-1.70898,0.569153,
-1.71509,0.572205,
-1.72577,0.57373,
-1.73187,0.579834,
-1.73492,0.578308,
-1.74408,0.570679,
-1.75629,0.570679,
-1.76392,0.578308,
-1.77155,0.58136,
-1.77307,0.58136,
-1.78375,0.570679,
-1.7868,0.57373,
-1.79443,0.58136,
-1.80511,0.579834,
-1.81274,0.575256,
-1.8219,0.570679,
-1.83258,0.572205,
-1.83563,0.58136,
-1.84174,0.58136,
-1.84631,0.575256,
-1.85242,0.569153,
-1.86005,0.572205,
-1.86768,0.578308,
-1.87531,0.58136,
-1.88141,0.575256,
-1.89514,0.572205,
-1.9043,0.57373,
-1.91803,0.576782,
-1.92719,0.582886,
-1.93787,0.570679,
-1.94702,0.57373,
-1.9577,0.57373,
-1.96686,0.576782,
-1.97601,0.578308,
-1.98059,0.575256,
-1.98975,0.570679,
-2.00043,0.575256,
-2.00653,0.579834,
-2.01263,0.58136,
-2.01721,0.578308,
-2.02026,0.572205,
-2.02332,0.570679,
-2.03094,0.58136,
-2.03552,0.579834,
-2.04163,0.578308,
-2.04315,0.57373,
-2.05078,0.572205,
-2.05536,0.563049,
-2.05841,0.575256,
-2.06451,0.585938,
-2.06604,0.570679,
-2.06909,0.570679,
-2.07214,0.579834,
-2.07214,0.575256,
-2.07214,0.579834,
-2.07367,0.569153,
-2.07062,0.570679,
-2.06146,0.57373,
-2.05231,0.579834,
-2.03857,0.58136,
-2.02026,0.57373,
-2.00653,0.569153,
-1.98059,0.57373,
-1.9577,0.576782,
-1.93176,0.57373,
-1.90277,0.570679,
-1.87378,0.566101,
-1.84021,0.572205,
-1.80664,0.576782,
-1.77155,0.579834,
-1.73645,0.569153,
-1.70441,0.572205,
-1.67542,0.57373,
-1.6449,0.579834,
-1.62201,0.579834,
-1.5976,0.569153,
-1.57318,0.569153,
-1.54877,0.575256,
-1.5274,0.579834,
-1.50757,0.58136,
-1.49689,0.57373,
-1.47705,0.569153,
-1.46637,0.576782,
-1.45721,0.579834,
-1.45111,0.579834,
-1.4389,0.570679,
-1.42975,0.57373,
-1.42517,0.57373,
-1.41602,0.58136,
-1.41449,0.578308,
-1.40839,0.57373,
-1.41144,0.572205,
-1.41144,0.575256,
-1.41296,0.582886,
-1.41449,0.578308,
-1.41907,0.57373,
-1.42212,0.570679,
-1.42975,0.578308,
-1.4328,0.578308,
-1.4328,0.578308,
-1.4389,0.57373,
-1.44043,0.57373,
-1.44653,0.578308,
-1.45416,0.579834,
-1.45721,0.582886,
-1.46179,0.57373,
-1.47095,0.576782,
-1.474,0.576782,
-1.48315,0.58136,
-1.49231,0.578308,
-1.49841,0.576782,
-1.50604,0.57373,
-1.5152,0.576782,
-1.5274,0.582886,
-1.53503,0.575256,
-1.54419,0.575256,
-1.5564,0.57373,
-1.56403,0.576782,
-1.57318,0.579834,
-1.58386,0.567627,
-1.58691,0.570679,
-1.59454,0.579834,
-1.59912,0.575256,
-1.60675,0.579834,
-1.61285,0.575256,
-1.61896,0.572205,
-1.62048,0.57373,
-1.62201,0.578308,
-1.62201,0.579834,
-1.62354,0.578308,
-1.62201,0.57373,
-1.62048,0.576782,
-1.62354,0.576782,
-1.62659,0.579834,
-1.62506,0.579834,
-1.62964,0.57373,
-1.62964,0.576782,
-1.63116,0.578308,
-1.62964,0.578308,
-1.62811,0.578308,
-1.62354,0.57373,
-1.62048,0.576782,
-1.62048,0.582886,
-1.61896,0.578308,
-1.62201,0.578308,
-1.62506,0.570679,
-1.62506,0.575256,
-1.62659,0.575256,
-1.63269,0.58136,
-1.63574,0.578308,
-1.63574,0.570679,
-1.63727,0.578308,
-1.64185,0.576782,
-1.64337,0.578308,
-1.64948,0.578308,
-1.65405,0.570679,
-1.66168,0.575256,
-1.66931,0.572205,
-1.67542,0.579834,
-1.67847,0.579834,
-1.68152,0.57373,
-1.69067,0.572205,
-1.69525,0.575256,
-1.70135,0.58136,
-1.71051,0.578308,
-1.71661,0.569153,
-1.72424,0.567627,
-1.72882,0.567627,
-1.74103,0.582886,
-1.74866,0.576782,
-1.75934,0.569153,
-1.76392,0.57373,
-1.77307,0.578308,
-1.78223,0.582886,
-1.79291,0.575256,
-1.80054,0.569153,
-1.81122,0.575256,
-1.8219,0.579834,
-1.82953,0.58136,
-1.83563,0.575256,
-1.84937,0.570679,
-1.86462,0.572205,
-1.87225,0.58136,
-1.88446,0.58136,
-1.89819,0.579834,
-1.90735,0.570679,
-1.9165,0.570679,
-1.92871,0.576782,
-1.93787,0.585938,
-1.95313,0.578308,
-1.96533,0.572205,
-1.97601,0.57373,
-1.98517,0.579834,
-1.99127,0.585938,
-2.00043,0.576782,
-2.00806,0.575256,
-2.01874,0.570679,
-2.02179,0.576782,
-2.02637,0.585938,
-2.04163,0.572205,
-2.04926,0.57373,
-2.05536,0.572205,
-2.05841,0.578308,
-2.07214,0.587463,
-2.0813,0.576782,
-2.08588,0.57373,
-2.09351,0.57373,
-2.10114,0.578308,
-2.09961,0.576782,
-2.11334,0.58136,
-2.11945,0.57373,
-2.11945,0.572205,
-2.12402,0.578308,
-2.12555,0.582886,
-2.1286,0.576782,
-2.13318,0.57373,
-2.12555,0.57373,
-2.11792,0.575256,
-2.10876,0.584412,
-2.09198,0.579834,
-2.07672,0.572205,
-2.05688,0.572205,
-2.034,0.57373,
-2.00653,0.582886,
-1.97906,0.578308,
-1.9455,0.575256,
-1.91193,0.575256,
-1.88141,0.575256,
-1.84784,0.584412,
-1.81274,0.579834,
-1.7807,0.57373,
-1.74561,0.575256,
-1.71051,0.576782,
-1.67694,0.584412,
-1.64795,0.579834,
-1.62201,0.563049,
-1.59149,0.567627,
-1.56403,0.576782,
-1.54266,0.578308,
-1.51978,0.57373,
-1.49994,0.578308,
-1.48315,0.563049,
-1.47095,0.595093,
-1.45721,0.585938,
-1.44958,0.579834,
-1.44043,0.576782,
-1.43127,0.57373,
-1.42975,0.575256,
-1.42365,0.579834,
-1.42059,0.579834,
-1.41602,0.575256,
-1.41602,0.575256,
-1.41449,0.578308,
-1.41907,0.582886,
-1.4267,0.582886,
-1.43127,0.57373,
-1.4328,0.572205,
-1.43738,0.578308,
-1.44043,0.58136,
-1.44348,0.58136,
-1.44653,0.578308,
-1.45111,0.575256,
-1.45416,0.576782,
-1.46027,0.58136,
-1.46484,0.576782,
-1.47095,0.566101,
-1.474,0.57373,
-1.4801,0.578308,
-1.48773,0.579834,
-1.49078,0.579834,
-1.49536,0.576782,
-1.50146,0.572205,
-1.50299,0.578308,
-1.51062,0.579834,
-1.52283,0.578308,
-1.52588,0.575256,
-1.53656,0.575256,
-1.54266,0.578308,
-1.55029,0.584412,
-1.55487,0.576782,
-1.56403,0.576782,
-1.57318,0.575256,
-1.58386,0.578308,
-1.58997,0.584412,
-1.59607,0.576782,
-1.60065,0.575256,
-1.60675,0.576782,
-1.61133,0.582886,
-1.61743,0.582886,
-1.62354,0.579834,
-1.62506,0.575256,
-1.62811,0.575256,
-1.63269,0.584412,
-1.63574,0.575256,
-1.63879,0.579834,
-1.64337,0.576782,
-1.63879,0.575256,
-1.64337,0.582886,
-1.63727,0.58136,
-1.63727,0.578308,
-1.63574,0.575256,
-1.63116,0.572205,
-1.63116,0.58136,
-1.62964,0.587463,
-1.62811,0.575256,
-1.62659,0.578308,
-1.62659,0.57373,
-1.62964,0.576782,
-1.63116,0.58136,
-1.62811,0.576782,
-1.62659,0.575256,
-1.62811,0.57373,
-1.63269,0.576782,
-1.63422,0.582886,
-1.63727,0.579834,
-1.64337,0.578308,
-1.64642,0.572205,
-1.65405,0.58136,
-1.65863,0.58136,
-1.66321,0.579834,
-1.66931,0.576782,
-1.67236,0.57373,
-1.67999,0.570679,
-1.68762,0.575256,
-1.6922,0.579834,
-1.70135,0.57373,
-1.70898,0.579834,
-1.71356,0.578308,
-1.72272,0.582886,
-1.72729,0.598145,
-1.73798,0.575256,
-1.74255,0.57373,
-1.74866,0.579834,
-1.76239,0.585938,
-1.76392,0.58136,
-1.7746,0.578308,
-1.78375,0.587463,
-1.79291,0.58136,
-1.80054,0.584412,
-1.80817,0.579834,
-1.81885,0.575256,
-1.82037,0.572205,
-1.83258,0.579834,
-1.84326,0.585938,
-1.85089,0.582886,
-1.86462,0.578308,
-1.87073,0.57373,
-1.88293,0.579834,
-1.88904,0.584412,
-1.89667,0.585938,
-1.9043,0.57373,
-1.9165,0.572205,
-1.92413,0.58136,
-1.93634,0.585938,
-1.94397,0.585938,
-1.9516,0.575256,
-1.95923,0.57373,
-1.96686,0.58136,
-1.96991,0.587463,
-1.97754,0.582886,
-1.97601,0.57373,
-1.99585,0.576782,
-2.00043,0.58136,
-2.00958,0.584412,
-2.01416,0.584412,
-2.01874,0.576782,
-2.02484,0.572205,
-2.03247,0.58136,
-2.03857,0.587463,
-2.04468,0.584412,
-2.05383,0.578308,
-2.05688,0.572205,
-2.06757,0.579834,
-2.06909,0.588989,
-2.0813,0.579834,
-2.08282,0.576782,
-2.09351,0.578308,
-2.09961,0.58136,
-2.10876,0.588989,
-2.11487,0.587463,
-2.12097,0.579834,
-2.1347,0.575256,
-2.13623,0.582886,
-2.13928,0.58136,
-2.14691,0.585938,
-2.15302,0.578308,
-2.15912,0.575256,
-2.1637,0.582886,
-2.17438,0.584412,
-2.17438,0.582886,
-2.17743,0.576782,
-2.17133,0.578308,
-2.1698,0.584412,
-2.16064,0.585938,
-2.14386,0.585938,
-2.13013,0.576782,
-2.11182,0.578308,
-2.0874,0.582886,
-2.05688,0.582886,
-2.02789,0.585938,
-1.9928,0.575256,
-1.95618,0.58136,
-1.91498,0.58136,
-1.87531,0.584412,
-1.83563,0.582886,
-1.79749,0.579834,
-1.76239,0.578308,
-1.72424,0.58136,
-1.6922,0.587463,
-1.6571,0.585938,
-1.62048,0.579834,
-1.58844,0.576782,
-1.55945,0.582886,
-1.52893,0.585938,
-1.50299,0.584412,
-1.4801,0.579834,
-1.46027,0.579834,
-1.44043,0.582886,
-1.42212,0.582886,
-1.40686,0.584412,
-1.39618,0.579834,
-1.38702,0.575256,
-1.37482,0.584412,
-1.36871,0.584412,
-1.35803,0.584412,
-1.36261,0.579834,
-1.35803,0.582886,
-1.35956,0.582886,
-1.35651,0.575256,
-1.35651,0.585938,
-1.36108,0.576782,
-1.36108,0.58136,
-1.36108,0.582886,
-1.36414,0.582886,
-1.36566,0.585938,
-1.36261,0.578308,
-1.36414,0.58136,
-1.36566,0.584412,
-1.36871,0.588989,
-1.36871,0.582886,
-1.36871,0.578308,
-1.36414,0.582886,
-1.36719,0.582886,
-1.35956,0.575256,
-1.35956,0.584412,
-1.36108,0.58136,
-1.36566,0.578308,
-1.36871,0.58136,
-1.37787,0.587463,
-1.38397,0.584412,
-1.3855,0.592041,
-1.39008,0.579834,
-1.40076,0.585938,
-1.40533,0.585938,
-1.41449,0.584412,
-1.42212,0.58136,
-1.4328,0.579834,
-1.44196,0.585938,
-1.44958,0.588989,
-1.46027,0.587463,
-1.46637,0.579834,
-1.47247,0.582886,
-1.48163,0.584412,
-1.48315,0.587463,
-1.48773,0.585938,
-1.49384,0.579834,
-1.49536,0.58136,
-1.49536,0.579834,
-1.49841,0.585938,
-1.49689,0.587463,
-1.49994,0.58136,
-1.50146,0.579834,
-1.50146,0.584412,
-1.50146,0.590515,
-1.49841,0.588989,
-1.50299,0.576782,
-1.49994,0.579834,
-1.49994,0.585938,
-1.50146,0.590515,
-1.50299,0.584412,
-1.49536,0.578308,
-1.50146,0.579834,
-1.49994,0.585938,
-1.49689,0.588989,
-1.50146,0.584412,
-1.49994,0.578308,
-1.50452,0.582886,
-1.50146,0.582886,
-1.50604,0.592041,
-1.50909,0.588989,
-1.50909,0.570679,
-1.51672,0.578308,
-1.51978,0.587463,
-1.51978,0.587463,
-1.52435,0.585938,
-1.52893,0.58136,
-1.52893,0.584412,
-1.53656,0.585938,
-1.54114,0.590515,
-1.54877,0.587463,
-1.54877,0.578308,
-1.55487,0.58136,
-1.56097,0.587463,
-1.56403,0.588989,
-1.57013,0.585938,
-1.57471,0.579834,
-1.57928,0.578308,
-1.58844,0.585938,
-1.5976,0.587463,
-1.60675,0.585938,
-1.60828,0.578308,
-1.61438,0.578308,
-1.62506,0.585938,
-1.63574,0.592041,
-1.64795,0.587463,
-1.66016,0.58136,
-1.67084,0.58136,
-1.68152,0.585938,
-1.69067,0.598145,
-1.69983,0.587463,
-1.70898,0.579834,
-1.72119,0.578308,
-1.72729,0.585938,
-1.7334,0.592041,
-1.74561,0.585938,
-1.75629,0.579834,
-1.76544,0.578308,
-1.77307,0.593567,
-1.78375,0.604248,
-1.79443,0.585938,
-1.80359,0.578308,
-1.81122,0.578308,
-1.82495,0.585938,
-1.83105,0.595093,
-1.84174,0.588989,
-1.85242,0.578308,
-1.8631,0.579834,
-1.87225,0.585938,
-1.87683,0.595093,
-1.88293,0.582886,
-1.89056,0.578308,
-1.90125,0.58136,
-1.90735,0.585938,
-1.91345,0.590515,
-1.92261,0.585938,
-1.93024,0.570679,
-1.93329,0.578308,
-1.94092,0.585938,
-1.9455,0.593567,
-1.94855,0.588989,
-1.95618,0.579834,
-1.95923,0.579834,
-1.96686,0.584412,
-1.97449,0.590515,
-1.97906,0.587463,
-1.98364,0.58136,
-1.99127,0.58136,
-1.99585,0.585938,
-2.00653,0.592041,
-2.01263,0.584412,
-2.01569,0.58136,
-2.02179,0.579834,
-2.02637,0.585938,
-2.03552,0.593567,
-2.03857,0.587463,
-2.0462,0.579834,
-2.04773,0.58136,
-2.05383,0.585938,
-2.05688,0.593567,
-2.06146,0.588989,
-2.06909,0.582886,
-2.07367,0.590515,
-2.07977,0.587463,
-2.08435,0.595093,
-2.08435,0.582886,
-2.08282,0.579834,
-2.07672,0.584412,
-2.07367,0.585938,
-2.05841,0.590515,
-2.0462,0.592041,
-2.02637,0.58136,
-2.00348,0.582886,
-1.97906,0.584412,
-1.95313,0.592041,
-1.91956,0.584412,
-1.88446,0.584412,
-1.85242,0.584412,
-1.81427,0.585938,
-1.7807,0.6073,
-1.74866,0.587463,
-1.71051,0.582886,
-1.67999,0.585938,
-1.64642,0.582886,
-1.61896,0.592041,
-1.59454,0.587463,
-1.5625,0.584412,
-1.54114,0.584412,
-1.51672,0.585938,
-1.49841,0.590515,
-1.48163,0.588989,
-1.46484,0.58136,
-1.45264,0.585938,
-1.43433,0.585938,
-1.42517,0.592041,
-1.41602,0.592041,
-1.40533,0.584412,
-1.39923,0.582886,
-1.3916,0.585938,
-1.3916,0.595093,
-1.38855,0.588989,
-1.38397,0.584412,
-1.38397,0.582886,
-1.38245,0.584412,
-1.38092,0.590515,
-1.38245,0.588989,
-1.38397,0.576782,
-1.38702,0.584412,
-1.38855,0.585938,
-1.39313,0.588989,
-1.40076,0.588989,
-1.40381,0.582886,
-1.41144,0.585938,
-1.41296,0.585938,
-1.41296,0.588989,
-1.41449,0.590515,
-1.41602,0.582886,
-1.41449,0.584412,
-1.41754,0.584412,
-1.41907,0.590515,
-1.4267,0.588989,
-1.42822,0.587463,
-1.43127,0.57373,
-1.43738,0.585938,
-1.44348,0.592041,
-1.44806,0.588989,
-1.45264,0.587463,
-1.45874,0.582886,
-1.45721,0.585938,
-1.45874,0.590515,
-1.46637,0.592041,
-1.47095,0.587463,
-1.47552,0.584412,
-1.47552,0.587463,
-1.4801,0.590515,
-1.48468,0.590515,
-1.48926,0.585938,
-1.48773,0.579834,
-1.48926,0.588989,
-1.48773,0.595093,
-1.49078,0.588989,
-1.49231,0.588989,
-1.49384,0.587463,
-1.49536,0.584412,
-1.49536,0.592041,
-1.49689,0.587463,
-1.49994,0.585938,
-1.49841,0.582886,
-1.49689,0.585938,
-1.49536,0.593567,
-1.49536,0.588989,
-1.49689,0.585938,
-1.49689,0.584412,
-1.49536,0.587463,
-1.49078,0.593567,
-1.49231,0.588989,
-1.49231,0.585938,
-1.49231,0.585938,
-1.49384,0.587463,
-1.49078,0.593567,
-1.49078,0.587463,
-1.49078,0.587463,
-1.49231,0.58136,
-1.49384,0.587463,
-1.49536,0.590515,
-1.49231,0.587463,
-1.49536,0.582886,
-1.49689,0.584412,
-1.50146,0.588989,
-1.50452,0.592041,
-1.50604,0.588989,
-1.51062,0.588989,
-1.51062,0.584412,
-1.51672,0.590515,
-1.52588,0.592041,
-1.53198,0.587463,
-1.53503,0.585938,
-1.54114,0.584412,
-1.55029,0.588989,
-1.55182,0.593567,
-1.56097,0.588989,
-1.56555,0.585938,
-1.57166,0.582886,
-1.58081,0.590515,
-1.58691,0.592041,
-1.59149,0.590515,
-1.60065,0.585938,
-1.60828,0.582886,
-1.61896,0.592041,
-1.62506,0.592041,
-1.63422,0.588989,
-1.64185,0.587463,
-1.65253,0.582886,
-1.65863,0.595093,
-1.66626,0.593567,
-1.66931,0.585938,
-1.67999,0.585938,
-1.69067,0.584412,
-1.69525,0.585938,
-1.70135,0.587463,
-1.70593,0.587463,
-1.71356,0.58136,
-1.72119,0.587463,
-1.72577,0.588989,
-1.73645,0.595093,
-1.7395,0.587463,
-1.75171,0.587463,
-1.75934,0.584412,
-1.76697,0.592041,
-1.77155,0.588989,
-1.77917,0.585938,
-1.7868,0.585938,
-1.79443,0.584412,
-1.79901,0.595093,
-1.80969,0.592041,
-1.81732,0.587463,
-1.82495,0.584412,
-1.83411,0.582886,
-1.83868,0.588989,
-1.84631,0.593567,
-1.85394,0.590515,
-1.8631,0.582886,
-1.87073,0.584412,
-1.87836,0.590515,
-1.88751,0.590515,
-1.89819,0.587463,
-1.90582,0.582886,
-1.91345,0.582886,
-1.92719,0.590515,
-1.93787,0.592041,
-1.94244,0.585938,
-1.95465,0.584412,
-1.96381,0.582886,
-1.96838,0.588989,
-1.97144,0.590515,
-1.97296,0.593567,
-1.97144,0.582886,
-1.96228,0.585938,
-1.95313,0.590515,
-1.94092,0.595093,
-1.92261,0.590515,
-1.90125,0.585938,
-1.87836,0.58136,
-1.84631,0.588989,
-1.8219,0.587463,
-1.79443,0.593567,
-1.76544,0.585938,
-1.73187,0.582886,
-1.70441,0.588989,
-1.67389,0.593567,
-1.64337,0.595093,
-1.61438,0.585938,
-1.58386,0.582886,
-1.55792,0.588989,
-1.53198,0.592041,
-1.50757,0.598145,
-1.48468,0.579834,
-1.46332,0.582886,
-1.44958,0.588989,
-1.43433,0.592041,
-1.41907,0.590515,
-1.41144,0.587463,
-1.39771,0.584412,
-1.3916,0.590515,
-1.38245,0.593567,
-1.37939,0.595093,
-1.37787,0.584412,
-1.37482,0.584412,
-1.37177,0.588989,
-1.36719,0.593567,
-1.36719,0.595093,
-1.36719,0.585938,
-1.36871,0.582886,
-1.37177,0.585938,
-1.37329,0.59967,
-1.37787,0.593567,
-1.38245,0.582886,
-1.38245,0.582886,
-1.3855,0.587463,
-1.3916,0.593567,
-1.39313,0.595093,
-1.39618,0.585938,
-1.40228,0.582886,
-1.40228,0.590515,
-1.40686,0.593567,
-1.41754,0.59967,
-1.4267,0.585938,
-1.4328,0.585938,
-1.44043,0.592041,
-1.45111,0.595093,
-1.46027,0.593567,
-1.46942,0.588989,
-1.47247,0.585938,
-1.48468,0.588989,
-1.49078,0.593567,
-1.50452,0.595093,
-1.51062,0.587463,
-1.51978,0.585938,
-1.52893,0.590515,
-1.54266,0.592041,
-1.55334,0.592041,
-1.56097,0.584412,
-1.5686,0.588989,
-1.57471,0.587463,
-1.58386,0.593567,
-1.58691,0.593567,
-1.59149,0.585938,
-1.5976,0.587463,
-1.60217,0.592041,
-1.6037,0.590515,
-1.60675,0.592041,
-1.6098,0.585938,
-1.61743,0.585938,
-1.62048,0.588989,
-1.62506,0.592041,
-1.62659,0.592041,
-1.62964,0.585938,
-1.62964,0.584412,
-1.63269,0.590515,
-1.63422,0.593567,
-1.63422,0.590515,
-1.63574,0.585938,
-1.63574,0.590515,
-1.6449,0.582886,
-1.64337,0.593567,
-1.64642,0.590515,
-1.65405,0.587463,
-1.65558,0.588989,
-1.65558,0.590515,
-1.65863,0.592041,
-1.66473,0.598145,
-1.66779,0.585938,
-1.67084,0.587463,
-1.67999,0.590515,
-1.6861,0.592041,
-1.68762,0.593567,
-1.69525,0.590515,
-1.70288,0.590515,
-1.70898,0.588989,
-1.71509,0.590515,
-1.72577,0.595093,
-1.73187,0.587463,
-1.73798,0.587463,
-1.74561,0.590515,
-1.75018,0.592041,
-1.76239,0.593567,
-1.77155,0.585938,
-1.7807,0.587463,
-1.7868,0.587463,
-1.79596,0.593567,
-1.80206,0.592041,
-1.81122,0.584412,
-1.82037,0.587463,
-1.83258,0.592041,
-1.83563,0.593567,
-1.84174,0.590515,
-1.84937,0.585938,
-1.85547,0.588989,
-1.86157,0.593567,
-1.86615,0.592041,
-1.87225,0.590515,
-1.87225,0.582886,
-1.87531,0.587463,
-1.88293,0.590515,
-1.88446,0.595093,
-1.88751,0.592041,
-1.89667,0.587463,
-1.90582,0.588989,
-1.90887,0.590515,
-1.91193,0.595093,
-1.91345,0.595093,
-1.91498,0.585938,
-1.91956,0.587463,
-1.92108,0.590515,
-1.92871,0.593567,
-1.93481,0.593567,
-1.94397,0.584412,
-1.94702,0.588989,
-1.95313,0.592041,
-1.95923,0.59967,
-1.96838,0.590515,
-1.97449,0.585938,
-1.98364,0.587463,
-1.99127,0.592041,
-2.00348,0.598145,
-2.01263,0.592041,
-2.01874,0.585938,
-2.03705,0.585938,
-2.04468,0.588989,
-2.05383,0.592041,
-2.06604,0.592041,
-2.0752,0.582886,
-2.0813,0.585938,
-2.08893,0.590515,
-2.09656,0.601196,
-2.10876,0.593567,
-2.11029,0.584412,
-2.11792,0.585938,
-2.1225,0.593567,
-2.1347,0.602722,
-2.14233,0.592041,
-2.14844,0.582886,
-2.15607,0.582886,
-2.16522,0.590515,
-2.17438,0.595093,
-2.18811,0.592041,
-2.19727,0.585938,
-2.20642,0.584412,
-2.21558,0.588989,
-2.22321,0.598145,
-2.23236,0.588989,
-2.23999,0.584412,
-2.23846,0.584412,
-2.24152,0.588989,
-2.24304,0.595093,
-2.23846,0.592041,
-2.22778,0.585938,
-2.2171,0.578308,
-2.20184,0.58136,
-2.17896,0.592041,
-2.15759,0.590515,
-2.1286,0.584412,
-2.10266,0.584412,
-2.07214,0.588989,
-2.03857,0.601196,
-2.005,0.592041,
-1.97296,0.595093,
-1.93787,0.579834,
-1.90277,0.590515,
-1.87073,0.59967,
-1.83868,0.592041,
-1.80206,0.585938,
-1.77155,0.584412,
-1.74408,0.595093,
-1.71661,0.59967,
-1.6922,0.592041,
-1.66931,0.584412,
-1.64795,0.585938,
-1.62964,0.590515,
-1.61285,0.598145,
-1.6037,0.595093,
-1.58997,0.584412,
-1.57623,0.582886,
-1.5686,0.588989,
-1.55792,0.59967,
-1.55334,0.593567,
-1.54572,0.587463,
-1.54572,0.588989,
-1.54114,0.593567,
-1.54419,0.593567,
-1.54114,0.592041,
-1.54572,0.587463,
-1.55182,0.588989,
-1.5564,0.587463,
-1.56555,0.601196,
-1.57013,0.590515,
-1.57471,0.585938,
-1.58386,0.585938,
-1.58844,0.593567,
-1.59607,0.595093,
-1.6037,0.590515,
-1.60828,0.585938,
-1.61896,0.584412,
-1.62811,0.587463,
-1.63727,0.595093,
-1.64337,0.592041,
-1.64948,0.584412,
-1.66016,0.584412,
-1.66779,0.588989,
-1.67694,0.593567,
-1.6922,0.585938,
-1.6983,0.58136,
-1.70441,0.584412,
-1.71204,0.587463,
-1.72577,0.593567,
-1.73798,0.585938,
-1.74866,0.584412,
-1.75934,0.58136,
-1.76544,0.587463,
-1.77002,0.593567,
-1.78223,0.590515,
-1.79291,0.585938,
-1.80359,0.582886,
-1.80817,0.592041,
-1.81732,0.595093,
-1.82648,0.592041,
-1.83411,0.588989,
-1.84174,0.588989,
-1.84784,0.587463,
-1.85242,0.601196,
-1.85547,0.590515,
-1.86157,0.587463,
-1.86615,0.585938,
-1.87225,0.587463,
-1.87531,0.598145,
-1.87988,0.593567,
-1.88293,0.590515,
-1.88599,0.582886,
-1.88751,0.578308,
-1.89362,0.598145,
-1.89362,0.590515,
-1.89514,0.590515,
-1.89819,0.584412,
-1.89667,0.587463,
-1.89667,0.598145,
-1.89972,0.590515,
-1.89667,0.598145,
-1.90125,0.58136,
-1.89819,0.588989,
-1.89972,0.601196,
-1.89972,0.588989,
-1.89972,0.587463,
-1.89667,0.585938,
-1.89514,0.588989,
-1.89972,0.595093,
-1.89819,0.592041,
-1.90125,0.587463,
-1.90277,0.587463,
-1.89819,0.590515,
-1.90277,0.59967,
-1.90277,0.595093,
-1.90582,0.592041,
-1.90887,0.582886,
-1.91345,0.584412,
-1.91345,0.595093,
-1.92413,0.590515,
-1.92871,0.587463,
-1.93939,0.584412,
-1.94702,0.590515,
-1.9516,0.598145,
-1.96381,0.587463,
-1.97296,0.590515,
-1.98364,0.582886,
-1.9928,0.588989,
-2.00348,0.59967,
-2.01111,0.592041,
-2.02026,0.590515,
-2.03247,0.58136,
-2.04163,0.592041,
-2.05688,0.593567,
-2.06604,0.590515,
-2.0813,0.587463,
-2.0874,0.587463,
-2.10266,0.592041,
-2.11182,0.598145,
-2.11945,0.593567,
-2.12555,0.588989,
-2.13776,0.585938,
-2.14844,0.595093,
-2.15912,0.59967,
-2.16522,0.593567,
-2.17438,0.584412,
-2.17743,0.585938,
-2.18658,0.590515,
-2.19269,0.595093,
-2.20337,0.590515,
-2.21558,0.592041,
-2.22473,0.587463,
-2.23083,0.590515,
-2.24152,0.595093,
-2.2522,0.593567,
-2.26288,0.584412,
-2.26746,0.585938,
-2.27814,0.588989,
-2.28577,0.601196,
-2.29645,0.588989,
-2.30255,0.587463,
-2.31018,0.582886,
-2.32086,0.593567,
-2.33307,0.595093,
-2.33917,0.585938,
-2.3468,0.584412,
-2.35748,0.588989,
-2.36206,0.592041,
-2.37732,0.601196,
-2.38647,0.595093,
-2.39716,0.58136,
-2.40936,0.587463,
-2.42004,0.585938,
-2.4292,0.598145,
-2.4353,0.588989,
-2.44751,0.582886,
-2.44751,0.587463,
-2.45667,0.592041,
-2.46277,0.59967,
-2.47192,0.588989,
-2.47803,0.584412,
-2.48566,0.587463,
-2.49176,0.592041,
-2.49939,0.595093,
-2.51312,0.588989,
-2.51923,0.584412,
-2.5238,0.584412,
-2.53143,0.592041,
-2.53448,0.593567,
-2.53754,0.588989,
-2.53143,0.585938,
-2.52686,0.584412,
-2.51465,0.590515,
-2.49939,0.598145,
-2.48108,0.588989,
-2.45819,0.584412,
-2.43073,0.585938,
-2.40326,0.588989,
-2.36816,0.601196,
-2.33459,0.595093,
-2.29797,0.588989,
-2.2644,0.576782,
-2.22931,0.593567,
-2.19421,0.59967,
-2.16064,0.590515,
-2.12708,0.590515,
-2.09656,0.587463,
-2.06604,0.593567,
-2.03857,0.598145,
-2.00653,0.590515,
-1.97906,0.584412,
-1.95313,0.582886,
-1.93481,0.590515,
-1.91498,0.598145,
-1.89667,0.590515,
-1.87988,0.587463,
-1.86615,0.585938,
-1.85242,0.592041,
-1.84631,0.59967,
-1.83868,0.592041,
-1.83411,0.584412,
-1.83258,0.585938,
-1.82953,0.588989,
-1.82953,0.595093,
-1.82953,0.592041,
-1.83258,0.584412,
-1.83563,0.582886,
-1.83563,0.590515,
-1.84174,0.598145,
-1.84326,0.590515,
-1.84937,0.582886,
-1.85242,0.584412,
-1.86157,0.585938,
-1.86768,0.595093,
-1.87073,0.587463,
-1.87836,0.582886,
-1.88599,0.58136,
-1.89514,0.587463,
-1.90125,0.590515,
-1.91193,0.588989,
-1.92413,0.58136,
-1.93329,0.58136,
-1.93939,0.590515,
-1.94855,0.593567,
-1.95465,0.588989,
-1.95923,0.585938,
-1.96991,0.576782,
-1.97601,0.585938,
-1.98212,0.595093,
-1.98669,0.585938,
-1.99738,0.585938,
-1.9989,0.579834,
-2.00653,0.592041,
-2.01569,0.593567,
-2.02484,0.592041,
-2.03247,0.585938,
-2.04163,0.58136,
-2.04163,0.587463,
-2.0462,0.585938,
-2.05383,0.593567,
-2.05688,0.582886,
-2.06146,0.578308,
-2.06757,0.585938,
-2.07214,0.598145,
-2.0752,0.593567,
-2.07825,0.585938,
-2.07672,0.584412,
-2.07977,0.588989,
-2.07672,0.598145,
-2.0752,0.593567,
-2.07672,0.587463,
-2.0752,0.582886,
-2.07825,0.590515,
-2.07672,0.595093,
-2.07825,0.593567,
-2.07367,0.587463,
-2.0752,0.584412,
-2.07214,0.587463,
-2.0752,0.595093,
-2.07672,0.593567,
-2.07672,0.585938,
-2.07825,0.582886,
-2.07672,0.588989,
-2.07214,0.59967,
-2.07367,0.592041,
-2.07825,0.585938,
-2.07672,0.585938,
-2.0813,0.592041,
-2.08435,0.598145,
-2.0874,0.592041,
-2.08893,0.585938,
-2.09351,0.585938,
-2.10114,0.588989,
-2.10571,0.593567,
-2.11182,0.593567,
-2.11792,0.585938,
-2.1225,0.582886,
-2.12555,0.590515,
-2.13776,0.59967,
-2.14081,0.59967,
-2.14844,0.585938,
-2.15759,0.585938,
-2.16522,0.590515,
-2.1759,0.595093,
-2.18353,0.593567,
-2.19269,0.587463,
-2.20642,0.584412,
-2.21252,0.590515,
-2.22473,0.595093,
-2.23389,0.598145,
-2.24762,0.588989,
-2.25525,0.587463,
-2.27051,0.593567,
-2.27814,0.598145,
-2.29187,0.598145,
-2.30865,0.587463,
-2.31628,0.585938,
-2.32544,0.592041,
-2.33917,0.595093,
-2.34833,0.590515,
-2.35748,0.584412,
-2.36816,0.582886,
-2.37732,0.588989,
-2.388,0.593567,
-2.39563,0.585938,
-2.40479,0.585938,
-2.41089,0.587463,
-2.42004,0.593567,
-2.43073,0.595093,
-2.43683,0.593567,
-2.44751,0.588989,
-2.45819,0.585938,
-2.46277,0.592041,
-2.4704,0.595093,
-2.47803,0.592041,
-2.48566,0.587463,
-2.48871,0.587463,
-2.49634,0.588989,
-2.50397,0.595093,
-2.50854,0.590515,
-2.51617,0.582886,
-2.52075,0.584412,
-2.52686,0.590515,
-2.53143,0.593567,
-2.53296,0.588989,
-2.53906,0.585938,
-2.54364,0.588989,
-2.5528,0.590515,
-2.55432,0.595093,
-2.56195,0.588989,
-2.56958,0.585938,
-2.57568,0.587463,
-2.58179,0.588989,
-2.58331,0.595093,
-2.59094,0.590515,
-2.59705,0.585938,
-2.6062,0.584412,
-2.6123,0.590515,
-2.62451,0.593567,
-2.62909,0.593567,
-2.63824,0.585938,
-2.64435,0.588989,
-2.64893,0.587463,
-2.6535,0.598145,
-2.65808,0.590515,
-2.66876,0.587463,
-2.67181,0.584412,
-2.67944,0.588989,
-2.68402,0.598145,
-2.6886,0.588989,
-2.69012,0.590515,
-2.69165,0.588989,
-2.68707,0.590515,
-2.67792,0.598145,
-2.66876,0.592041,
-2.65656,0.587463,
-2.63824,0.588989,
-2.61688,0.590515,
-2.59399,0.592041,
-2.56653,0.590515,
-2.53906,0.587463,
-2.50397,0.588989,
-2.47345,0.592041,
-2.43835,0.593567,
-2.40173,0.593567,
-2.36816,0.587463,
-2.33459,0.590515,
-2.30103,0.588989,
-2.26746,0.593567,
-2.23236,0.590515,
-2.2049,0.584412,
-2.17438,0.587463,
-2.14691,0.588989,
-2.11945,0.593567,
-2.10266,0.590515,
-2.07825,0.587463,
-2.06451,0.578308,
-2.05078,0.590515,
-2.0401,0.592041,
-2.03094,0.593567,
-2.02332,0.585938,
-2.02179,0.588989,
-2.01874,0.588989,
-2.01569,0.592041,
-2.01721,0.592041,
-2.02179,0.587463,
-2.02484,0.590515,
-2.03247,0.587463,
-2.03857,0.595093,
-2.04163,0.588989,
-2.04773,0.579834,
-2.05688,0.587463,
-2.06146,0.590515,
-2.07062,0.595093,
-2.07672,0.588989,
-2.08282,0.587463,
-2.0874,0.588989,
-2.09351,0.590515,
-2.10419,0.595093,
-2.10419,0.590515,
-2.10876,0.590515,
-2.11792,0.587463,
-2.12402,0.592041,
-2.1286,0.587463,
-2.13623,0.592041,
-2.14386,0.590515,
-2.15454,0.588989,
-2.15912,0.592041,
-2.17438,0.593567,
-2.17896,0.579834,
-2.18811,0.58136,
-2.19727,0.588989,
-2.20947,0.587463,
-2.21558,0.595093,
-2.22626,0.592041,
-2.23236,0.582886,
-2.24152,0.604248,
-2.24915,0.592041,
-2.2583,0.590515,
-2.26593,0.590515,
-2.27356,0.585938,
-2.27966,0.588989,
-2.28119,0.590515,
-2.29187,0.590515,
-2.29492,0.592041,
-2.2934,0.587463,
-2.2995,0.590515,
-2.2995,0.590515,
-2.2995,0.595093,
-2.2995,0.595093,
-2.29645,0.587463,
-2.29645,0.588989,
-2.28882,0.585938,
-2.28882,0.593567,
-2.29034,0.590515,
-2.28729,0.585938,
-2.28424,0.587463,
-2.28577,0.593567,
-2.28577,0.595093,
-2.28577,0.590515,
-2.28119,0.587463,
-2.27966,0.588989,
-2.28119,0.592041,
-2.27814,0.595093,
-2.27966,0.592041,
-2.28271,0.587463,
-2.28119,0.590515,
-2.28424,0.592041,
-2.28882,0.59967,
-2.29034,0.598145,
-2.2934,0.584412,
-2.2995,0.585938,
-2.30713,0.590515,
-2.31171,0.595093,
-2.31934,0.590515,
-2.32239,0.587463,
-2.32697,0.587463,
-2.33459,0.592041,
-2.34222,0.59967,
-2.34833,0.590515,
-2.35596,0.585938,
-2.36053,0.585938,
-2.37122,0.588989,
-2.38037,0.598145,
-2.39105,0.592041,
-2.40173,0.584412,
-2.41241,0.585938,
-2.41852,0.590515,
-2.42615,0.59967,
-2.43378,0.590515,
-2.44446,0.582886,
-2.44904,0.585938,
-2.45514,0.595093,
-2.46124,0.602722,
-2.46887,0.592041,
-2.47192,0.587463,
-2.48413,0.587463,
-2.49023,0.592041,
-2.49634,0.601196,
-2.50397,0.595093,
-2.51465,0.587463,
-2.51465,0.590515,
-2.52686,0.592041,
-2.53601,0.592041,
-2.54364,0.588989,
-2.5528,0.584412,
-2.56195,0.582886,
-2.57111,0.588989,
-2.58179,0.602722,
-2.59247,0.587463,
-2.59705,0.585938,
-2.6062,0.588989,
-2.61078,0.590515,
-2.62299,0.601196,
-2.62909,0.595093,
-2.63824,0.584412,
-2.64893,0.587463,
-2.65808,0.593567,
-2.66571,0.601196,
-2.67181,0.592041,
-2.67944,0.587463,
-2.69012,0.587463,
-2.6947,0.592041,
-2.70233,0.601196,
-2.70844,0.595093,
-2.71454,0.587463,
-2.72522,0.587463,
-2.72827,0.587463,
-2.73132,0.59967,
-2.7359,0.593567,
-2.73743,0.588989,
-2.74506,0.587463,
-2.75421,0.588989,
-2.75879,0.59967,
-2.76337,0.593567,
-2.77252,0.584412,
-2.771,0.585938,
-2.77252,0.585938,
-2.771,0.595093,
-2.76489,0.592041,
-2.75879,0.582886,
-2.74506,0.584412,
-2.72675,0.588989,
-2.71149,0.593567,
-2.69318,0.592041,
-2.66876,0.587463,
-2.64435,0.584412,
-2.61993,0.588989,
-2.58942,0.602722,
-2.5589,0.593567,
-2.52533,0.587463,
-2.49939,0.587463,
-2.46735,0.590515,
-2.4353,0.59967,
-2.40326,0.59967,
-2.37579,0.590515,
-2.34985,0.585938,
-2.32391,0.587463,
-2.28882,0.601196,
-2.26746,0.593567,
-2.24609,0.590515,
-2.22778,0.588989,
-2.20947,0.592041,
-2.19421,0.601196,
-2.18201,0.593567,
-2.17133,0.582886,
-2.16522,0.605774,
-2.16064,0.587463,
-2.15759,0.601196,
-2.15149,0.595093,
-2.15149,0.592041,
-2.15302,0.592041,
-2.15454,0.590515,
-2.15607,0.602722,
-2.16217,0.592041,
-2.1698,0.590515,
-2.17743,0.588989,
-2.18353,0.590515,
-2.19421,0.595093,
-2.20337,0.595093,
-2.21252,0.588989,
-2.22321,0.590515,
-2.22931,0.585938,
-2.24304,0.595093,
-2.25067,0.595093,
-2.26593,0.585938,
-2.27814,0.590515,
-2.28882,0.593567,
-2.29492,0.59967,
-2.30713,0.579834,
-2.31628,0.588989,
-2.32544,0.587463,
-2.33917,0.592041,
-2.35138,0.601196,
-2.36511,0.593567,
-2.37732,0.582886,
-2.3941,0.588989,
-2.40326,0.592041,
-2.41547,0.602722,
-2.42767,0.592041,
-2.43988,0.590515,
-2.45056,0.588989,
-2.45972,0.595093,
-2.46887,0.602722,
-2.48566,0.593567,
-2.49329,0.592041,
-2.49939,0.588989,
-2.50549,0.588989,
-2.51312,0.602722,
-2.51465,0.592041,
-2.5238,0.592041,
-2.52075,0.587463,
-2.52533,0.590515,
-2.52533,0.59967,
-2.52533,0.593567,
-2.5238,0.588989,
-2.5238,0.588989,
-2.51617,0.590515,
-2.51617,0.598145,
-2.51465,0.592041,
-2.5116,0.593567,
-2.50397,0.588989,
-2.50397,0.592041,
-2.49634,0.59967,
-2.49481,0.595093,
-2.49329,0.582886,
-2.49023,0.588989,
-2.49176,0.592041,
-2.49176,0.59967,
-2.49329,0.592041,
-2.49329,0.593567,
-2.49481,0.587463,
-2.49786,0.6073,
-2.49786,0.598145,
-2.50244,0.595093,
-2.50244,0.592041,
-2.50397,0.590515,
-2.50702,0.588989,
-2.5116,0.598145,
-2.51465,0.59967,
-2.51617,0.601196,
-2.51617,0.588989,
-2.52228,0.592041,
-2.52533,0.602722,
-2.53296,0.59967,
-2.53754,0.593567,
-2.54211,0.590515,
-2.54669,0.592041,
-2.55127,0.601196,
-2.55737,0.595093,
-2.565,0.592041,
-2.57111,0.582886,
-2.58026,0.592041,
-2.58331,0.604248,
-2.58942,0.592041,
-2.59705,0.582886,
-2.60468,0.588989,
-2.60925,0.593567,
-2.62451,0.59967,
-2.63062,0.593567,
-2.6413,0.587463,
-2.65503,0.584412,
-2.66418,0.601196,
-2.67181,0.605774,
-2.67944,0.598145,
-2.6886,0.588989,
-2.70386,0.590515,
-2.70844,0.590515,
-2.72217,0.598145,
-2.73132,0.595093,
-2.73743,0.588989,
-2.74353,0.588989,
-2.75421,0.590515,
-2.76184,0.59967,
-2.76794,0.593567,
-2.77863,0.588989,
-2.78625,0.592041,
-2.79541,0.592041,
-2.79999,0.601196,
-2.80457,0.592041,
-2.81372,0.592041,
-2.81677,0.588989,
-2.83051,0.588989,
-2.83051,0.601196,
-2.83813,0.592041,
-2.84729,0.595093,
-2.85034,0.590515,
-2.86102,0.582886,
-2.8656,0.593567,
-2.87018,0.593567,
-2.87323,0.595093,
-2.87323,0.592041,
-2.87628,0.587463,
-2.87018,0.601196,
-2.86865,0.593567,
-2.86102,0.6073,
-2.85034,0.593567,
-2.83508,0.592041,
-2.81525,0.602722,
-2.79694,0.592041,
-2.771,0.590515,
-2.74506,0.582886,
-2.71912,0.592041,
-2.68402,0.59967,
-2.65198,0.59967,
-2.6123,0.595093,
-2.58179,0.588989,
-2.54364,0.593567,
-2.50702,0.601196,
-2.47498,0.598145,
-2.44598,0.593567,
-2.41089,0.588989,
-2.38037,0.590515,
-2.35596,0.601196,
-2.33154,0.598145,
-2.30865,0.592041,
-2.29034,0.593567,
-2.27051,0.592041,
-2.24915,0.601196,
-2.23389,0.593567,
-2.22015,0.593567,
-2.20642,0.587463,
-2.19727,0.593567,
-2.18811,0.601196,
-2.18811,0.593567,
-2.18506,0.593567,
-2.18811,0.588989,
-2.18658,0.601196,
-2.18964,0.59967,
-2.19574,0.593567,
-2.2049,0.590515,
-2.20947,0.588989,
-2.211,0.593567,
-2.21863,0.601196,
-2.22473,0.598145,
-2.22931,0.595093,
-2.23236,0.592041,
-2.23999,0.593567,
-2.24762,0.604248,
-2.25372,0.595093,
-2.26288,0.595093,
-2.26593,0.590515,
-2.27509,0.593567,
-2.28424,0.601196,
-2.29034,0.593567,
-2.2995,0.593567,
-2.30255,0.590515,
-2.31628,0.595093,
-2.32239,0.598145,
-2.33002,0.595093,
-2.33307,0.595093,
-2.34222,0.592041,
-2.34833,0.592041,
-2.35748,0.602722,
-2.36816,0.595093,
-2.38037,0.588989,
-2.38342,0.595093,
-2.3941,0.582886,
-2.40021,0.6073,
-2.40936,0.601196,
-2.41547,0.598145,
-2.42157,0.593567,
-2.42615,0.598145,
-2.42615,0.604248,
-2.43378,0.598145,
-2.4353,0.584412,
-2.43683,0.614929,
-2.44293,0.590515,
-2.43988,0.601196,
-2.44293,0.598145,
-2.44446,0.587463,
-2.43835,0.592041,
-2.43835,0.592041,
-2.43683,0.601196,
-2.43988,0.595093,
-2.43835,0.592041,
-2.43683,0.590515,
-2.43835,0.588989,
-2.44293,0.59967,
-2.44293,0.59967,
-2.44598,0.588989,
-2.44446,0.593567,
-2.44598,0.593567,
-2.44751,0.604248,
-2.44446,0.593567,
-2.44904,0.592041,
-2.45209,0.588989,
-2.44904,0.598145,
-2.45056,0.601196,
-2.45667,0.595093,
-2.45819,0.590515,
-2.46124,0.593567,
-2.46582,0.593567,
-2.46735,0.602722,
-2.47498,0.595093,
-2.47345,0.595093,
-2.48566,0.595093,
-2.49176,0.598145,
-2.49939,0.59967,
-2.50397,0.593567,
-2.51312,0.590515,
-2.52075,0.592041,
-2.52533,0.595093,
-2.52991,0.604248,
-2.53296,0.593567,
-2.53601,0.592041,
-2.53754,0.593567,
-2.54059,0.595093,
-2.54211,0.602722,
-2.54364,0.595093,
-2.54669,0.588989,
-2.5528,0.593567,
-2.55585,0.598145,
-2.55585,0.601196,
-2.565,0.598145,
-2.56805,0.593567,
-2.57568,0.585938,
-2.58484,0.59967,
-2.59247,0.604248,
-2.60162,0.593567,
-2.60773,0.588989,
-2.61688,0.593567,
-2.62909,0.595093,
-2.63824,0.598145,
-2.64893,0.593567,
-2.66113,0.588989,
-2.66876,0.595093,
-2.68402,0.595093,
-2.69165,0.601196,
-2.70691,0.593567,
-2.71301,0.602722,
-2.72522,0.598145,
-2.7359,0.595093,
-2.74353,0.604248,
-2.74963,0.593567,
-2.76184,0.588989,
-2.76947,0.592041,
-2.77863,0.59967,
-2.78625,0.602722,
-2.79541,0.592041,
-2.79999,0.592041,
-2.80914,0.592041,
-2.82135,0.592041,
-2.82745,0.605774,
-2.83661,0.593567,
-2.84424,0.585938,
-2.85034,0.595093,
-2.8595,0.598145,
-2.8656,0.601196,
-2.87476,0.593567,
-2.87781,0.595093,
-2.87933,0.588989,
-2.88544,0.595093,
-2.88696,0.595093,
-2.89307,0.582886,
-2.89307,0.592041,
-2.89001,0.592041,
-2.88696,0.59967,
-2.87933,0.598145,
-2.87018,0.593567,
-2.85797,0.587463,
-2.84119,0.592041,
-2.8244,0.598145,
-2.79694,0.604248,
-2.76947,0.598145,
-2.73438,0.588989,
-2.70386,0.593567,
-2.67029,0.595093,
-2.63519,0.601196,
-2.6001,0.593567,
-2.565,0.590515,
-2.52686,0.593567,
-2.49023,0.598145,
-2.45361,0.59967,
-2.42004,0.595093,
-2.388,0.590515,
-2.35596,0.592041,
-2.32697,0.598145,
-2.29797,0.605774,
-2.27509,0.593567,
-2.25067,0.590515,
-2.22931,0.595093,
-2.21405,0.598145,
-2.20184,0.602722,
-2.18506,0.593567,
-2.17743,0.590515,
-2.16827,0.590515,
-2.16064,0.598145,
-2.15302,0.602722,
-2.15149,0.592041,
-2.14996,0.592041,
-2.13928,0.593567,
-2.13776,0.595093,
-2.13776,0.604248,
-2.13928,0.593567,
-2.14233,0.587463,
-2.14081,0.592041,
-2.14081,0.593567,
-2.14233,0.59967,
-2.14691,0.593567,
-2.15149,0.588989,
-2.15454,0.592041,
-2.16217,0.595093,
-2.16522,0.601196,
-2.1698,0.598145,
-2.17133,0.588989,
-2.1759,0.595093,
-2.18353,0.595093,
-2.18506,0.604248,
-2.19116,0.598145,
-2.19727,0.588989,
-2.20184,0.592041,
-2.20642,0.593567,
-2.20795,0.616455,
-2.21558,0.593567,
-2.22168,0.590515,
-2.22626,0.592041,
-2.22778,0.595093,
-2.23694,0.602722,
-2.24609,0.595093,
-2.25525,0.590515,
-2.26288,0.588989,
-2.27356,0.595093,
-2.28119,0.602722,
-2.29034,0.598145,
-2.30713,0.588989,
-2.31323,0.593567,
-2.32239,0.598145,
-2.33002,0.601196,
-2.33459,0.593567,
-2.3407,0.592041,
-2.34833,0.593567,
-2.35291,0.59967,
-2.35291,0.602722,
-2.35291,0.593567,
-2.35291,0.587463,
-2.35443,0.592041,
-2.35596,0.595093,
-2.35596,0.602722,
-2.35138,0.598145,
-2.34985,0.593567,
-2.35138,0.590515,
-2.34985,0.593567,
-2.34985,0.59967,
-2.35291,0.592041,
-2.34985,0.590515,
-2.3468,0.592041,
-2.34985,0.595093,
-2.34833,0.604248,
-2.34833,0.595093,
-2.34985,0.582886,
-2.35291,0.590515,
-2.35443,0.592041,
-2.35901,0.602722,
-2.35901,0.598145,
-2.36053,0.592041,
-2.36206,0.590515,
-2.36664,0.6073,
-2.36664,0.59967,
-2.37122,0.595093,
-2.37427,0.587463,
-2.37427,0.590515,
-2.38037,0.595093,
-2.3819,0.602722,
-2.38647,0.598145,
-2.39105,0.590515,
-2.39258,0.590515,
-2.39868,0.595093,
-2.40936,0.605774,
-2.41089,0.592041,
-2.4231,0.590515,
-2.4292,0.588989,
-2.4353,0.595093,
-2.44293,0.602722,
-2.45209,0.59967,
-2.45819,0.587463,
-2.46277,0.593567,
-2.47192,0.595093,
-2.48108,0.604248,
-2.48566,0.595093,
-2.48871,0.590515,
-2.49939,0.588989,
-2.50702,0.595093,
-2.51465,0.602722,
-2.52228,0.595093,
-2.53296,0.590515,
-2.53906,0.588989,
-2.54822,0.590515,
-2.55127,0.604248,
-2.55737,0.595093,
-2.56805,0.588989,
-2.57721,0.593567,
-2.58636,0.595093,
-2.59705,0.601196,
-2.60162,0.592041,
-2.6123,0.590515,
-2.62146,0.590515,
-2.63214,0.593567,
-2.64282,0.602722,
-2.64893,0.598145,
-2.65808,0.590515,
-2.66724,0.588989,
-2.67792,0.593567,
-2.6886,0.601196,
-2.69318,0.595093,
-2.70233,0.590515,
-2.70844,0.587463,
-2.71454,0.595093,
-2.72369,0.602722,
-2.72675,0.593567,
-2.73438,0.592041,
-2.74353,0.590515,
-2.75269,0.59967,
-2.75879,0.601196,
-2.76337,0.593567,
-2.76947,0.592041,
-2.7771,0.590515,
-2.7771,0.593567,
-2.78625,0.602722,
-2.78931,0.601196,
-2.79846,0.590515,
-2.79999,0.588989,
-2.80151,0.592041,
-2.79694,0.619507,
-2.79541,0.598145,
-2.78778,0.592041,
-2.77405,0.590515,
-2.75879,0.593567,
-2.74048,0.601196,
-2.72064,0.593567,
-2.69623,0.588989,
-2.67487,0.587463,
-2.65045,0.595093,
-2.61688,0.59967,
-2.58484,0.595093,
-2.55127,0.590515,
-2.51312,0.585938,
-2.48413,0.592041,
-2.44751,0.602722,
-2.41394,0.601196,
-2.38342,0.587463,
-2.35138,0.592041,
-2.32086,0.595093,
-2.29187,0.604248,
-2.2644,0.601196,
-2.23694,0.587463,
-2.21252,0.588989,
-2.19269,0.595093,
-2.17438,0.602722,
-2.15759,0.602722,
-2.14844,0.588989,
-2.13623,0.588989,
-2.1225,0.593567,
-2.11639,0.602722,
-2.11334,0.601196,
-2.11182,0.590515,
-2.10724,0.585938,
-2.10876,0.593567,
-2.10266,0.602722,
-2.10571,0.595093,
-2.10571,0.588989,
-2.10724,0.588989,
-2.11029,0.595093,
-2.11792,0.602722,
-2.11945,0.59967,
-2.1286,0.592041,
-2.13013,0.590515,
-2.14081,0.598145,
-2.14081,0.604248,
-2.14996,0.59967,
-2.15149,0.592041,
-2.15607,0.592041,
-2.15912,0.598145,
-2.16522,0.604248,
-2.17285,0.601196,
-2.17438,0.588989,
-2.17896,0.595093,
-2.18506,0.598145,
-2.18811,0.602722,
-2.19116,0.598145,
-2.19574,0.590515,
-2.20337,0.592041,
-2.20642,0.595093,
-2.211,0.602722,
-2.21863,0.59967,
-2.22015,0.588989,
-2.22778,0.593567,
-2.23389,0.592041,
-2.23999,0.604248,
-2.25067,0.602722,
-2.25372,0.592041,
-2.2644,0.590515,
-2.27203,0.593567,
-2.27661,0.604248,
-2.28119,0.598145,
-2.28424,0.592041,
-2.28577,0.587463,
-2.29034,0.598145,
-2.29492,0.604248,
-2.29797,0.59967,
-2.29797,0.588989,
-2.30255,0.590515,
-2.30103,0.598145,
-2.31171,0.602722,
-2.31323,0.602722,
-2.31323,0.588989,
-2.31171,0.593567,
-2.31323,0.598145,
-2.31018,0.601196,
-2.31323,0.602722,
-2.31171,0.588989,
-2.31171,0.593567,
-2.31018,0.593567,
-2.30713,0.602722,
-2.30103,0.598145,
-2.30103,0.588989,
-2.2995,0.590515,
-2.29645,0.595093,
-2.29492,0.605774,
-2.29187,0.59967,
-2.28729,0.585938,
-2.28729,0.592041,
-2.28882,0.598145,
-2.28424,0.602722,
-2.28577,0.601196,
-2.28729,0.590515,
-2.28882,0.592041,
-2.2934,0.595093,
-2.2995,0.604248,
-2.30103,0.59967,
-2.30255,0.592041,
-2.3056,0.598145,
-2.31018,0.598145,
-2.31323,0.605774,
-2.31628,0.601196,
-2.31934,0.593567,
-2.32239,0.595093,
-2.32544,0.598145,
-2.32849,0.604248,
-2.33154,0.59967,
-2.33917,0.590515,
-2.33917,0.587463,
-2.3407,0.601196,
-2.3468,0.604248,
-2.34985,0.598145,
-2.35291,0.592041,
-2.35901,0.598145,
-2.36206,0.598145,
-2.37427,0.619507,
-2.38037,0.598145,
-2.38342,0.590515,
-2.39258,0.593567,
-2.39868,0.595093,
-2.41241,0.602722,
-2.41547,0.598145,
-2.42157,0.6073,
-2.4292,0.595093,
-2.43835,0.598145,
-2.44446,0.598145,
-2.44598,0.605774,
-2.45514,0.595093,
-2.45819,0.595093,
-2.46429,0.59967,
-2.47192,0.604248,
-2.47498,0.602722,
-2.47955,0.593567,
-2.48566,0.593567,
-2.48871,0.598145,
-2.49176,0.604248,
-2.49786,0.598145,
-2.50244,0.593567,
-2.51312,0.602722,
-2.51465,0.598145,
-2.52075,0.59967,
-2.52228,0.59967,
-2.53296,0.592041,
-2.53448,0.59967,
-2.53754,0.598145,
-2.54059,0.601196,
-2.54822,0.59967,
-2.54669,0.595093,
-2.55737,0.59967,
-2.56195,0.602722,
-2.56653,0.598145,
-2.57111,0.598145,
-2.57263,0.592041,
-2.58179,0.595093,
-2.58484,0.598145,
-2.59094,0.598145,
-2.59705,0.602722,
-2.60315,0.593567,
-2.60468,0.59967,
-2.60773,0.59967,
-2.60315,0.601196,
-2.59705,0.59967,
-2.59552,0.592041,
-2.58331,0.59967,
-2.56805,0.59967,
-2.55585,0.59967,
-2.53448,0.598145,
-2.51465,0.592041,
-2.49023,0.595093,
-2.46429,0.59967,
-2.43378,0.602722,
-2.40326,0.602722,
-2.37427,0.592041,
-2.34222,0.601196,
-2.30865,0.59967,
-2.27814,0.59967,
-2.2522,0.59967,
-2.21863,0.595093,
-2.19269,0.595093,
-2.17133,0.601196,
-2.14844,0.601196,
-2.12708,0.59967,
-2.11182,0.593567,
-2.09351,0.595093,
-2.07825,0.601196,
-2.06909,0.601196,
-2.05688,0.59967,
-2.05383,0.592041,
-2.0462,0.59967,
-2.04315,0.59967,
-2.04163,0.601196,
-2.04315,0.598145,
-2.0462,0.593567,
-2.0462,0.593567,
-2.04926,0.604248,
-2.05078,0.59967,
-2.05688,0.598145,
-2.06451,0.59967,
-2.06604,0.601196,
-2.07062,0.601196,
-2.0752,0.601196,
-2.08435,0.601196,
-2.08893,0.595093,
-2.09503,0.59967,
-2.10571,0.598145,
-2.11182,0.604248,
-2.11945,0.595093,
-2.12402,0.595093,
-2.13013,0.598145,
-2.13318,0.598145,
-2.14233,0.6073,
-2.14844,0.598145,
-2.15149,0.593567,
-2.15607,0.598145,
-2.16064,0.601196,
-2.16522,0.602722,
-2.1759,0.598145,
-2.18201,0.593567,
-2.18811,0.598145,
-2.19574,0.59967,
-2.20184,0.602722,
-2.211,0.59967,
-2.21863,0.598145,
-2.22321,0.59967,
-2.22778,0.59967,
-2.23389,0.6073,
-2.23846,0.598145,
-2.24457,0.592041,
-2.24762,0.598145,
-2.25525,0.59967,
-2.25677,0.602722,
-2.26135,0.601196,
-2.2644,0.592041,
-2.26593,0.598145,
-2.26746,0.604248,
-2.27203,0.605774,
-2.27203,0.593567,
-2.26593,0.595093,
-2.2644,0.59967,
-2.26288,0.601196,
-2.2644,0.605774,
-2.2583,0.598145,
-2.2522,0.592041,
-2.24915,0.592041,
-2.24457,0.601196,
-2.24304,0.605774,
-2.24762,0.602722,
-2.24762,0.595093,
-2.24457,0.598145,
-2.24304,0.601196,
-2.23846,0.602722,
-2.24152,0.602722,
-2.23846,0.59967,
-2.23389,0.598145,
-2.23846,0.601196,
-2.23694,0.610352,
-2.23999,0.602722,
-2.23694,0.59967,
-2.23846,0.601196,
-2.24152,0.602722,
-2.24304,0.605774,
-2.24457,0.601196,
-2.25067,0.595093,
-2.25372,0.595093,
-2.25983,0.601196,
-2.26288,0.6073,
-2.27051,0.604248,
-2.27203,0.590515,
-2.27814,0.601196,
-2.28577,0.601196,
-2.29492,0.608826,
-2.30103,0.602722,
-2.31018,0.593567,
-2.31628,0.593567,
-2.32544,0.604248,
-2.33154,0.6073,
-2.33307,0.601196,
-2.34222,0.590515,
-2.34528,0.598145,
-2.35138,0.602722,
-2.35901,0.605774,
-2.36359,0.602722,
-2.36816,0.598145,
-2.37579,0.59967,
-2.38037,0.601196,
-2.38647,0.602722,
-2.38953,0.605774,
-2.39258,0.598145,
-2.39716,0.59967,
-2.40021,0.601196,
-2.40479,0.6073,
-2.41394,0.604248,
-2.42462,0.595093,
-2.43073,0.595093,
-2.4353,0.602722,
-2.44446,0.605774,
-2.45209,0.601196,
-2.46429,0.595093,
-2.4704,0.59967,
-2.47803,0.602722,
-2.48413,0.608826,
-2.49023,0.604248,
-2.49329,0.592041,
-2.50397,0.598145,
-2.50854,0.602722,
-2.51617,0.605774,
-2.52228,0.601196,
-2.52991,0.59967,
-2.53448,0.59967,
-2.54059,0.601196,
-2.54211,0.6073,
-2.55127,0.602722,
-2.55432,0.595093,
-2.56042,0.604248,
-2.56042,0.59967,
-2.56195,0.608826,
-2.56348,0.602722,
-2.56348,0.598145,
-2.56042,0.601196,
-2.5528,0.601196,
-2.54211,0.605774,
-2.53143,0.605774,
-2.52228,0.598145,
-2.49939,0.598145,
-2.4826,0.604248,
-2.45667,0.6073,
-2.42615,0.604248,
-2.40173,0.595093,
-2.37579,0.59967,
-2.3468,0.604248,
-2.31781,0.611877,
-2.29187,0.604248,
-2.26288,0.598145,
-2.24152,0.598145,
-2.21558,0.604248,
-2.19269,0.611877,
-2.17133,0.601196,
-2.14844,0.595093,
-2.12708,0.601196,
-2.10876,0.604248,
-2.09656,0.608826,
-2.07825,0.605774,
-2.07062,0.59967,
-2.05994,0.601196,
-2.05231,0.6073,
-2.05231,0.604248,
-2.0462,0.604248,
-2.04315,0.598145,
-2.04163,0.59967,
-2.04315,0.605774,
-2.04468,0.608826,
-2.0462,0.605774,
-2.04773,0.598145,
-2.04926,0.595093,
-2.05078,0.601196,
-2.05841,0.604248,
-2.06604,0.605774,
-2.06451,0.595093,
-2.06909,0.592041,
-2.07214,0.621033,
-2.07672,0.611877,
-2.07977,0.604248,
-2.08435,0.598145,
-2.09045,0.601196,
-2.09503,0.604248,
-2.10114,0.608826,
-2.10724,0.604248,
-2.11029,0.595093,
-2.11487,0.602722,
-2.12402,0.604248,
-2.13623,0.6073,
-2.14539,0.605774,
-2.15912,0.601196,
-2.16827,0.59967,
-2.18048,0.604248,
-2.18811,0.608826,
-2.19879,0.605774,
-2.20947,0.592041,
-2.22473,0.595093,
-2.22778,0.604248,
-2.23999,0.608826,
-2.25372,0.604248,
-2.26135,0.59967,
-2.27051,0.601196,
-2.27814,0.6073,
-2.28882,0.610352,
-2.29645,0.605774,
-2.30103,0.592041,
-2.3056,0.598145,
-2.31323,0.6073,
-2.31476,0.6073,
-2.32086,0.602722,
-2.31934,0.598145,
-2.31781,0.604248,
-2.31476,0.605774,
-2.31934,0.611877,
-2.31781,0.605774,
-2.31934,0.598145,
-2.31934,0.59967,
-2.31934,0.601196,
-2.31628,0.608826,
-2.31628,0.602722,
-2.31323,0.59967,
-2.31323,0.59967,
-2.31171,0.604248,
-2.31323,0.6073,
-2.31323,0.605774,
-2.31628,0.601196,
-2.31781,0.602722,
-2.32239,0.610352,
-2.32391,0.6073,
-2.32544,0.605774,
-2.33307,0.602722,
-2.33917,0.604248,
-2.33917,0.604248,
-2.3468,0.6073,
-2.3468,0.602722,
-2.35443,0.59967,
-2.35443,0.601196,
-2.36359,0.604248,
-2.36969,0.605774,
-2.37579,0.602722,
-2.37885,0.59967,
-2.3819,0.602722,
-2.38342,0.604248,
-2.39105,0.608826,
-2.39563,0.6073,
-2.40021,0.59967,
-2.40326,0.604248,
-2.40936,0.59967,
-2.41394,0.6073,
-2.41852,0.604248,
-2.42004,0.59967,
-2.42462,0.59967,
-2.42767,0.604248,
-2.43073,0.605774,
-2.43225,0.605774,
-2.43988,0.602722,
-2.45056,0.601196,
-2.45819,0.604248,
-2.46277,0.6073,
-2.46887,0.605774,
-2.47955,0.602722,
-2.48718,0.59967,
-2.49329,0.602722,
-2.49481,0.6073,
-2.50397,0.604248,
-2.51312,0.59967,
-2.51923,0.602722,
-2.52838,0.604248,
-2.53601,0.6073,
-2.54822,0.605774,
-2.55737,0.601196,
-2.56805,0.59967,
-2.57721,0.602722,
-2.58636,0.602722,
-2.59552,0.604248,
-2.60468,0.602722,
-2.61078,0.602722,
-2.61993,0.602722,
-2.62604,0.6073,
-2.63367,0.605774,
-2.64282,0.602722,
-2.64435,0.601196,
-2.65656,0.605774,
-2.66113,0.605774,
-2.66876,0.605774,
-2.67487,0.602722,
-2.68097,0.601196,
-2.68402,0.604248,
-2.69012,0.608826,
-2.6947,0.6073,
-2.69928,0.604248,
-2.70538,0.604248,
-2.70844,0.602722,
-2.71454,0.608826,
-2.72522,0.608826,
-2.7298,0.598145,
-2.73438,0.602722,
-2.7359,0.604248,
-2.74353,0.605774,
-2.74353,0.604248,
-2.74506,0.601196,
-2.74658,0.598145,
-2.74353,0.602722,
-2.742,0.602722,
-2.7359,0.602722,
-2.7298,0.601196,
-2.71454,0.602722,
-2.70081,0.604248,
-2.67792,0.608826,
-2.65808,0.604248,
-2.63214,0.604248,
-2.60162,0.59967,
-2.57416,0.605774,
-2.54211,0.604248,
-2.50702,0.601196,
-2.48413,0.602722,
-2.45209,0.601196,
-2.4231,0.604248,
-2.388,0.605774,
-2.35901,0.608826,
-2.33002,0.6073,
-2.30713,0.595093,
-2.27966,0.602722,
-2.25525,0.610352,
-2.23389,0.621033,
-2.21405,0.602722,
-2.19421,0.598145,
-2.18048,0.601196,
-2.16522,0.6073,
-2.15607,0.605774,
-2.14844,0.604248,
-2.14233,0.601196,
-2.13776,0.608826,
-2.1286,0.608826,
-2.12402,0.6073,
-2.12555,0.59967,
-2.12097,0.601196,
-2.1225,0.605774,
-2.12097,0.6073,
-2.12097,0.608826,
-2.12097,0.602722,
-2.1225,0.604248,
-2.12097,0.608826,
-2.12708,0.608826,
-2.1286,0.608826,
-2.13013,0.602722,
-2.1347,0.604248,
-2.1347,0.604248,
-2.13623,0.62561,
-2.13928,0.605774,
-2.14386,0.605774,
-2.14386,0.59967,
-2.14691,0.6073,
-2.14539,0.6073,
-2.15454,0.610352,
-2.15607,0.605774,
-2.16064,0.59967,
-2.1637,0.602722,
-2.1698,0.605774,
-2.17438,0.605774,
-2.17896,0.604248,
-2.18353,0.601196,
-2.18964,0.6073,
-2.19574,0.610352,
-2.20642,0.608826,
-2.21405,0.601196,
-2.2171,0.59967,
-2.22321,0.6073,
-2.22778,0.6073,
-2.23083,0.611877,
-2.23846,0.604248,
-2.24457,0.595093,
-2.25067,0.602722,
-2.2522,0.59967,
-2.2583,0.608826,
-2.26288,0.604248,
-2.2644,0.601196,
-2.26746,0.605774,
-2.27356,0.610352,
-2.27661,0.605774,
-2.27509,0.59967,
-2.27661,0.605774,
-2.27814,0.610352,
-2.28119,0.608826,
-2.28119,0.610352,
-2.28424,0.601196,
-2.28119,0.602722,
-2.28271,0.6073,
-2.28271,0.613403,
-2.28729,0.605774,
-2.28882,0.601196,
-2.29034,0.59967,
-2.29034,0.608826,
-2.29187,0.608826,
-2.29187,0.608826,
-2.2934,0.602722,
-2.29492,0.602722,
-2.29492,0.611877,
-2.29797,0.613403,
-2.29645,0.608826,
-2.29797,0.59967,
-2.30103,0.59967,
-2.30713,0.611877,
-2.31171,0.610352,
-2.31323,0.608826,
-2.32086,0.601196,
-2.32697,0.598145,
-2.33002,0.608826,
-2.33459,0.605774,
-2.33307,0.6073,
-2.3407,0.601196,
-2.34222,0.601196,
-2.34375,0.610352,
-2.34985,0.608826,
-2.34985,0.6073,
-2.35748,0.59967,
-2.36359,0.602722,
-2.36664,0.608826,
-2.37122,0.608826,
-2.37885,0.6073,
-2.38342,0.59967,
-2.39258,0.602722,
-2.39716,0.604248,
-2.40021,0.608826,
-2.40936,0.605774,
-2.41241,0.59967,
-2.41852,0.601196,
-2.42157,0.608826,
-2.42615,0.608826,
-2.42767,0.602722,
-2.43378,0.598145,
-2.43835,0.59967,
-2.44293,0.610352,
-2.44751,0.6073,
-2.45209,0.604248,
-2.45514,0.593567,
-2.46277,0.601196,
-2.46582,0.611877,
-2.47192,0.613403,
-2.47345,0.608826,
-2.47955,0.601196,
-2.48108,0.59967,
-2.48566,0.610352,
-2.49176,0.608826,
-2.49786,0.602722,
-2.50244,0.601196,
-2.50702,0.601196,
-2.51617,0.614929,
-2.52228,0.6073,
-2.53143,0.601196,
-2.54059,0.601196,
-2.54974,0.598145,
-2.56042,0.608826,
-2.56348,0.610352,
-2.56805,0.604248,
-2.57416,0.601196,
-2.57721,0.602722,
-2.58484,0.613403,
-2.59094,0.608826,
-2.59705,0.605774,
-2.60315,0.59967,
-2.60773,0.602722,
-2.61841,0.610352,
-2.62756,0.608826,
-2.63519,0.605774,
-2.64587,0.601196,
-2.65503,0.59967,
-2.66113,0.611877,
-2.67029,0.608826,
-2.67487,0.604248,
-2.68402,0.59967,
-2.69165,0.601196,
-2.69928,0.608826,
-2.69928,0.6073,
-2.70538,0.605774,
-2.70691,0.59967,
-2.70538,0.601196,
-2.70081,0.613403,
-2.6947,0.608826,
-2.68555,0.605774,
-2.67334,0.59967,
-2.6535,0.601196,
-2.63519,0.608826,
-2.6123,0.608826,
-2.59094,0.6073,
-2.56348,0.59967,
-2.53296,0.601196,
-2.50549,0.608826,
-2.4704,0.605774,
-2.43683,0.6073,
-2.40936,0.598145,
-2.38342,0.59967,
-2.35443,0.6073,
-2.32697,0.605774,
-2.2995,0.608826,
-2.27661,0.59967,
-2.2522,0.601196,
-2.23694,0.6073,
-2.21405,0.6073,
-2.20184,0.608826,
-2.18506,0.59967,
-2.17133,0.598145,
-2.15759,0.610352,
-2.15149,0.610352,
-2.14539,0.610352,
-2.13928,0.601196,
-2.13623,0.59967,
-2.1286,0.610352,
-2.12708,0.6073,
-2.12708,0.608826,
-2.13013,0.602722,
-2.1286,0.59967,
-2.1347,0.610352,
-2.13928,0.608826,
-2.14081,0.611877,
-2.14233,0.602722,
-2.14386,0.601196,
-2.14996,0.6073,
-2.15302,0.605774,
-2.15607,0.611877,
-2.15454,0.602722,
-2.15912,0.59967,
-2.16064,0.6073,
-2.15759,0.614929,
-2.15759,0.611877,
-2.15759,0.602722,
-2.1637,0.598145,
-2.1637,0.6073,
-2.1698,0.6073,
-2.17285,0.610352,
-2.17285,0.604248,
-2.18048,0.601196,
-2.18506,0.6073,
-2.19116,0.608826,
-2.19574,0.6073,
-2.20642,0.602722,
-2.21405,0.601196,
-2.22015,0.604248,
-2.22931,0.6073,
-2.23999,0.608826,
-2.24762,0.601196,
-2.2522,0.59967,
-2.2583,0.608826,
-2.2644,0.608826,
-2.27203,0.605774,
-2.27966,0.601196,
-2.28424,0.59967,
-2.28729,0.610352,
-2.28882,0.608826,
-2.2934,0.608826,
-2.2934,0.601196,
-2.29645,0.59967,
-2.2995,0.6073,
-2.30103,0.613403,
-2.30255,0.605774,
-2.3056,0.604248,
-2.3056,0.598145,
-2.3056,0.608826,
-2.3056,0.610352,
-2.29797,0.611877,
-2.29492,0.602722,
-2.2934,0.598145,
-2.29187,0.6073,
-2.28424,0.6073,
-2.28424,0.616455,
-2.28577,0.604248,
-2.28424,0.598145,
-2.28729,0.6073,
-2.28882,0.611877,
-2.29187,0.6073,
-2.29187,0.605774,
-2.2934,0.592041,
-2.2934,0.6073,
-2.29492,0.6073,
-2.29492,0.610352,
-2.29492,0.595093,
-2.29645,0.59967,
-2.29797,0.604248,
-2.29645,0.608826,
-2.2995,0.610352,
-2.29797,0.602722,
-2.3056,0.598145,
-2.30255,0.605774,
-2.30865,0.608826,
-2.30865,0.608826,
-2.31476,0.602722,
-2.31934,0.608826,
-2.31934,0.604248,
-2.32849,0.608826,
-2.33459,0.610352,
-2.3407,0.601196,
-2.34528,0.601196,
-2.35596,0.6073,
-2.36359,0.608826,
-2.37122,0.610352,
-2.38037,0.59967,
-2.39105,0.59967,
-2.40021,0.6073,
-2.40479,0.6073,
-2.42004,0.614929,
-2.42615,0.604248,
-2.4353,0.602722,
-2.44293,0.6073,
-2.44904,0.610352,
-2.45819,0.613403,
-2.46735,0.595093,
-2.47498,0.602722,
-2.48566,0.608826,
-2.49176,0.6073,
-2.50092,0.613403,
-2.51312,0.601196,
-2.51465,0.602722,
-2.52533,0.604248,
-2.52838,0.6073,
-2.53754,0.610352,
-2.54669,0.598145,
-2.5528,0.595093,
-2.5589,0.601196,
-2.56653,0.610352,
-2.57416,0.610352,
-2.58179,0.59967,
-2.58789,0.602722,
-2.59399,0.604248,
-2.6001,0.602722,
-2.60468,0.611877,
-2.61078,0.602722,
-2.61993,0.604248,
-2.62146,0.602722,
-2.62451,0.608826,
-2.62451,0.613403,
-2.63062,0.602722,
-2.63214,0.604248,
-2.63519,0.6073,
-2.63824,0.605774,
-2.64282,0.611877,
-2.65045,0.602722,
-2.6535,0.604248,
-2.65961,0.605774,
-2.66418,0.605774,
-2.66724,0.610352,
-2.67181,0.602722,
-2.67792,0.602722,
-2.68097,0.608826,
-2.68707,0.610352,
-2.69012,0.611877,
-2.6947,0.604248,
-2.6947,0.6073,
-2.70081,0.604248,
-2.70386,0.6073,
-2.70538,0.605774,
-2.70996,0.602722,
-2.71301,0.602722,
-2.72064,0.605774,
-2.72064,0.59967,
-2.72675,0.6073,
-2.7359,0.601196,
-2.742,0.6073,
-2.74506,0.6073,
-2.75269,0.604248,
-2.75726,0.611877,
-2.75574,0.604248,
-2.75574,0.598145,
-2.74811,0.605774,
-2.74048,0.605774,
-2.72827,0.608826,
-2.71454,0.59967,
-2.69623,0.604248,
-2.67181,0.608826,
-2.65045,0.6073,
-2.62451,0.610352,
-2.59552,0.602722,
-2.56195,0.605774,
-2.53296,0.605774,
-2.49939,0.6073,
-2.46429,0.608826,
-2.4353,0.601196,
-2.40173,0.605774,
-2.37122,0.6073,
-2.33917,0.6073,
-2.31018,0.6073,
-2.28424,0.602722,
-2.25677,0.604248,
-2.23389,0.608826,
-2.21405,0.6073,
-2.19879,0.605774,
-2.18201,0.602722,
-2.16522,0.604248,
-2.15607,0.602722,
-2.14539,0.605774,
-2.13776,0.608826,
-2.13318,0.601196,
-2.12708,0.604248,
-2.12402,0.604248,
-2.12555,0.6073,
-2.12555,0.6073,
-2.12708,0.602722,
-2.13013,0.6073,
-2.13776,0.602722,
-2.14386,0.608826,
-2.14691,0.6073,
-2.15759,0.601196,
-2.16217,0.602722,
-2.1698,0.605774,
-2.17285,0.6073,
-2.18201,0.608826,
-2.18353,0.602722,
-2.18811,0.605774,
-2.19269,0.604248,
-2.19727,0.605774,
-2.19879,0.6073,
-2.20642,0.59967,
-2.20795,0.608826,
-2.20947,0.604248,
-2.21252,0.6073,
-2.21558,0.605774,
-2.22321,0.604248,
-2.22778,0.6073,
-2.23846,0.604248,
-2.24304,0.608826,
-2.25067,0.608826,
-2.25983,0.601196,
-2.26593,0.6073,
-2.28119,0.608826,
-2.28882,0.6073,
-2.29645,0.6073,
-2.3056,0.602722,
-2.31476,0.608826,
-2.32086,0.59967,
-2.32544,0.6073,
-2.33002,0.605774,
-2.33917,0.602722,
-2.34222,0.605774,
-2.3468,0.604248,
-2.34528,0.611877,
-2.35138,0.6073,
-2.35596,0.59967,
-2.35291,0.6073,
-2.35596,0.601196,
-2.35748,0.608826,
-2.35596,0.608826,
-2.35901,0.602722,
-2.35901,0.605774,
-2.36053,0.604248,
-2.36359,0.605774,
-2.36511,0.610352,
-2.36816,0.602722,
-2.36359,0.6073,
-2.36664,0.604248,
-2.36511,0.608826,
-2.36511,0.59967,
-2.36664,0.602722,
-2.36664,0.604248,
-2.36359,0.605774,
-2.36359,0.608826,
-2.36816,0.605774,
-2.36359,0.605774,
-2.36664,0.601196,
-2.36664,0.605774,
-2.36816,0.608826,
-2.36816,0.6073,
-2.36969,0.601196,
-2.38037,0.602722,
-2.37885,0.604248,
-2.38342,0.611877,
-2.38495,0.608826,
-2.39105,0.598145,
-2.39258,0.605774,
-2.40021,0.605774,
-2.40479,0.610352,
-2.40631,0.610352,
-2.41241,0.598145,
-2.41394,0.6073,
-2.41547,0.604248,
-2.41699,0.608826,
-2.42157,0.608826,
-2.42462,0.604248,
-2.43073,0.604248,
-2.43378,0.6073,
-2.44751,0.613403,
-2.45056,0.608826,
-2.45667,0.602722,
-2.46124,0.622559,
-2.46735,0.601196,
-2.47498,0.608826,
-2.4826,0.608826,
-2.48871,0.59967,
-2.49481,0.605774,
-2.50244,0.602722,
-2.50549,0.608826,
-2.51312,0.608826,
-2.51923,0.604248,
-2.52838,0.605774,
-2.53601,0.604248,
-2.54059,0.608826,
-2.55127,0.605774,
-2.55737,0.601196,
-2.565,0.604248,
-2.56958,0.6073,
-2.57721,0.6073,
-2.58484,0.6073,
-2.58789,0.602722,
-2.59399,0.605774,
-2.60162,0.604248,
-2.6062,0.6073,
-2.6123,0.608826,
-2.62146,0.601196,
-2.62756,0.605774,
-2.63672,0.602722,
-2.63977,0.610352,
-2.64282,0.608826,
-2.6535,0.604248,
-2.65961,0.604248,
-2.66571,0.604248,
-2.67029,0.608826,
-2.67334,0.608826,
-2.67792,0.605774,
-2.67944,0.605774,
-2.68707,0.605774,
-2.6947,0.610352,
-2.6947,0.605774,
-2.70386,0.59967,
-2.70386,0.604248,
-2.70996,0.605774,
-2.71759,0.608826,
-2.72369,0.605774,
-2.72675,0.59967,
-2.73132,0.604248,
-2.73132,0.602722,
-2.7359,0.613403,
-2.73438,0.608826,
-2.73438,0.601196,
-2.73285,0.602722,
-2.72827,0.602722,
-2.72217,0.611877,
-2.71149,0.602722,
-2.69928,0.6073,
-2.68097,0.605774,
-2.66266,0.604248,
-2.64282,0.611877,
-2.62451,0.608826,
-2.59705,0.601196,
-2.57111,0.605774,
-2.54211,0.605774,
-2.51617,0.610352,
-2.48566,0.605774,
-2.45972,0.602722,
-2.4292,0.602722,
-2.39868,0.6073,
-2.37427,0.610352,
-2.34222,0.6073,
-2.32086,0.602722,
-2.2995,0.604248,
-2.28119,0.601196,
-2.26288,0.613403,
-2.24915,0.605774,
-2.23083,0.59967,
-2.22168,0.608826,
-2.211,0.598145,
-2.19879,0.610352,
-2.18964,0.6073,
-2.18201,0.604248,
-2.17743,0.604248,
-2.1759,0.602722,
-2.17285,0.608826,
-2.1759,0.605774,
-2.17743,0.602722,
-2.18201,0.604248,
-2.18201,0.6073,
-2.18964,0.610352,
-2.19421,0.605774,
-2.2049,0.602722,
-2.20947,0.604248,
-2.21558,0.601196,
-2.22015,0.610352,
-2.22931,0.617981,
-2.23694,0.604248,
-2.24762,0.601196,
-2.2583,0.604248,
-2.26746,0.610352,
-2.27814,0.6073,
-2.28882,0.602722,
-2.2995,0.605774,
-2.31018,0.602722,
-2.32086,0.6073,
-2.33154,0.6073,
-2.34375,0.601196,
-2.35291,0.604248,
-2.36359,0.602722,
-2.37579,0.611877,
-2.38342,0.6073,
-2.39105,0.602722,
-2.40631,0.604248,
-2.40936,0.602722,
-2.41394,0.613403,
-2.42157,0.602722,
-2.42615,0.604248,
-2.4353,0.604248,
-2.44293,0.6073,
-2.44904,0.610352,
-2.45667,0.605774,
-2.46277,0.602722,
-2.46582,0.601196,
-2.47192,0.601196,
-2.47498,0.610352,
-2.47498,0.602722,
-2.47955,0.602722,
-2.47955,0.602722,
-2.47498,0.602722,
-2.47803,0.6073,
-2.47955,0.604248,
-2.47498,0.602722,
-2.47498,0.605774,
-2.47803,0.604248,
-2.47803,0.611877,
-2.47498,0.605774,
-2.4826,0.601196,
-2.47955,0.604248,
-2.48413,0.602722,
-2.48566,0.610352,
-2.48718,0.605774,
-2.48871,0.602722,
-2.49329,0.604248,
-2.49329,0.602722,
-2.49634,0.608826,
-2.49634,0.604248,
-2.50092,0.59967,
-2.50397,0.602722,
-2.50549,0.601196,
-2.51465,0.605774,
-2.5177,0.605774,
-2.51923,0.602722,
-2.52686,0.602722,
-2.53143,0.602722,
-2.53754,0.613403,
-2.54364,0.605774,
-2.54822,0.602722,
-2.55585,0.602722,
-2.56348,0.601196,
-2.57111,0.613403,
-2.57568,0.605774,
-2.58331,0.604248,
-2.59094,0.604248,
-2.60162,0.602722,
-2.6062,0.611877,
-2.61688,0.602722,
-2.61993,0.605774,
-2.63062,0.602722,
-2.63977,0.605774,
-2.64893,0.614929,
-2.65808,0.608826,
-2.67029,0.605774,
-2.67792,0.604248,
-2.68402,0.602722,
-2.69165,0.613403,
-2.69928,0.6073,
-2.70538,0.602722,
-2.71454,0.602722,
-2.72522,0.602722,
-2.7298,0.611877,
-2.73743,0.604248,
-2.74506,0.601196,
-2.75421,0.602722,
-2.76184,0.602722,
-2.771,0.613403,
-2.7771,0.6073,
-2.78168,0.602722,
-2.78778,0.602722,
-2.79236,0.6073,
-2.79541,0.610352,
-2.79846,0.608826,
-2.79999,0.602722,
-2.80609,0.604248,
-2.81219,0.604248,
-2.82288,0.614929,
-2.82288,0.6073,
-2.83051,0.602722,
-2.83356,0.601196,
-2.83813,0.608826,
-2.84576,0.610352,
-2.85492,0.605774,
-2.85797,0.601196,
-2.86255,0.602722,
-2.86865,0.604248,
-2.87476,0.610352,
-2.88391,0.610352,
-2.89001,0.602722,
-2.89612,0.592041,
-2.90527,0.601196,
-2.91443,0.614929,
-2.91443,0.611877,
-2.92511,0.602722,
-2.92969,0.602722,
-2.93274,0.608826,
-2.94342,0.602722,
-2.948,0.6073,
-2.95563,0.604248,
-2.95868,0.604248,
-2.96021,0.59967,
-2.95868,0.611877,
-2.95258,0.611877,
-2.94495,0.602722,
-2.93579,0.601196,
-2.92053,0.604248,
-2.89917,0.608826,
-2.87781,0.605774,
-2.84576,0.601196,
-2.82135,0.602722,
-2.79083,0.59967,
-2.76031,0.6073,
-2.7298,0.611877,
-2.69623,0.602722,
-2.66266,0.604248,
-2.62909,0.602722,
-2.59399,0.608826,
-2.56348,0.605774,
-2.53296,0.602722,
-2.49634,0.601196,
-2.46277,0.602722,
-2.44293,0.6073,
-2.41089,0.6073,
-2.38953,0.605774,
-2.37122,0.6073,
-2.35138,0.602722,
-2.33459,0.610352,
-2.32391,0.6073,
-2.31171,0.604248,
-2.3056,0.605774,
-2.2934,0.602722,
-2.29034,0.6073,
-2.29034,0.602722,
-2.28882,0.602722,
-2.28729,0.604248,
-2.29034,0.59967,
-2.2934,0.6073,
-2.29492,0.604248,
-2.30103,0.602722,
-2.30255,0.604248,
-2.31171,0.605774,
-2.31934,0.608826,
-2.32849,0.608826,
-2.33612,0.602722,
-2.34375,0.604248,
-2.35291,0.601196,
-2.35596,0.605774,
-2.36359,0.6073,
-2.37122,0.605774,
-2.37885,0.604248,
-2.38495,0.601196,
-2.388,0.6073,
-2.39105,0.610352,
-2.39716,0.59967,
-2.40326,0.602722,
-2.40173,0.602722,
-2.40936,0.6073,
-2.41394,0.608826,
-2.41699,0.6073,
-2.4231,0.601196,
-2.43073,0.604248,
-2.4353,0.6073,
-2.44446,0.608826,
-2.45361,0.608826,
-2.45819,0.601196,
-2.46277,0.602722,
-2.47192,0.605774,
-2.47803,0.608826,
-2.4826,0.6073,
-2.48871,0.59967,
-2.49634,0.601196,
-2.50549,0.605774,
-2.51312,0.608826,
-2.52228,0.6073,
-2.52686,0.601196,
-2.53143,0.601196,
-2.53448,0.604248,
-2.53754,0.605774,
-2.54059,0.605774,
-2.54822,0.601196,
-2.54974,0.590515,
-2.55432,0.605774,
-2.55127,0.6073,
-2.55585,0.6073,
-2.55585,0.59967,
-2.55585,0.601196,
-2.55432,0.605774,
-2.55737,0.610352,
-2.55432,0.610352,
-2.55585,0.601196,
-2.55737,0.601196,
-2.55585,0.605774,
-2.55432,0.6073,
-2.5528,0.610352,
-2.54974,0.590515,
-2.55585,0.601196,
-2.5528,0.604248,
-2.5528,0.608826,
-2.55432,0.608826,
-2.55585,0.59967,
-2.55585,0.59967,
-2.56042,0.6073,
-2.565,0.608826,
-2.57111,0.604248,
-2.57111,0.601196,
-2.58026,0.602722,
-2.58026,0.6073,
-2.58331,0.605774,
-2.59399,0.605774,
-2.6001,0.59967,
-2.60773,0.59967,
-2.61993,0.604248,
-2.62299,0.6073,
-2.62604,0.605774,
-2.63062,0.602722,
-2.63367,0.604248,
-2.63672,0.595093,
-2.64435,0.605774,
-2.64893,0.602722,
-2.65198,0.604248,
-2.65961,0.595093,
-2.66571,0.605774,
-2.67487,0.605774,
-2.67792,0.601196,
-2.6886,0.595093,
-2.69012,0.604248,
-2.69928,0.602722,
-2.70691,0.608826,
-2.71759,0.602722,
-2.72522,0.601196,
-2.7298,0.611877,
-2.73743,0.604248,
-2.74506,0.598145,
-2.75269,0.602722,
-2.76184,0.602722,
-2.76794,0.601196,
-2.7771,0.604248,
-2.78778,0.608826,
-2.79541,0.605774,
-2.80304,0.598145,
-2.81219,0.602722,
-2.8244,0.605774,
-2.83203,0.611877,
-2.83966,0.602722,
-2.85034,0.601196,
-2.86102,0.595093,
-2.8717,0.611877,
-2.88086,0.602722,
-2.88239,0.602722,
-2.89154,0.601196,
-2.9007,0.604248,
-2.90527,0.608826,
-2.9129,0.601196,
-2.91748,0.6073,
-2.92358,0.59967,
-2.92511,0.595093,
-2.92664,0.608826,
-2.93121,0.608826,
-2.93427,0.601196,
-2.93884,0.601196,
-2.94647,0.604248,
-2.94952,0.610352,
-2.9541,0.605774,
-2.96326,0.6073,
-2.96936,0.601196,
-2.97394,0.59967,
-2.98157,0.6073,
-2.99377,0.6073,
-2.99835,0.604248,
-3.01208,0.601196,
-3.01971,0.59967,
-3.02429,0.605774,
-3.03497,0.6073,
-3.0365,0.602722,
-3.03802,0.602722,
-3.03802,0.59967,
-3.02887,0.608826,
-3.02734,0.605774,
-3.01819,0.602722,
-3.00446,0.601196,
-2.99072,0.601196,
-2.97546,0.605774,
-2.95105,0.604248,
-2.92969,0.604248,
-2.9007,0.604248,
-2.8717,0.601196,
-2.84271,0.610352,
-2.80762,0.605774,
-2.7771,0.601196,
-2.74048,0.598145,
-2.70691,0.59967,
-2.67029,0.605774,
-2.6413,0.605774,
-2.60925,0.601196,
-2.58026,0.601196,
-2.54974,0.601196,
-2.52533,0.604248,
-2.50092,0.608826,
-2.48413,0.602722,
-2.46124,0.601196,
-2.44446,0.59967,
-2.43225,0.608826,
-2.4231,0.605774,
-2.41241,0.605774,
-2.40479,0.602722,
-2.40021,0.602722,
-2.39868,0.611877,
-2.39868,0.6073,
-2.40326,0.598145,
-2.40173,0.598145,
-2.40479,0.598145,
-2.40936,0.611877,
-2.41089,0.608826,
-2.41241,0.602722,
-2.41394,0.59967,
-2.41547,0.602722,
-2.42157,0.608826,
-2.42462,0.605774,
-2.4292,0.602722,
-2.43835,0.602722,
-2.44446,0.602722,
-2.44751,0.610352,
-2.45209,0.605774,
-2.45056,0.601196,
-2.45819,0.595093,
-2.45972,0.601196,
-2.46429,0.611877,
-2.46429,0.6073,
-2.46429,0.604248,
-2.47192,0.602722,
-2.47955,0.601196,
-2.48718,0.611877,
-2.49634,0.608826,
-2.50244,0.601196,
-2.50702,0.601196,
-2.50854,0.59967,
-2.5177,0.608826,
-2.51923,0.608826,
-2.52228,0.602722,
-2.52838,0.601196,
-2.52838,0.601196,
-2.53448,0.613403,
-2.54059,0.605774,
-2.54364,0.604248,
-2.54669,0.595093,
-2.5528,0.601196,
-2.5589,0.604248,
-2.56653,0.6073,
-2.56805,0.59967,
-2.56958,0.602722,
-2.57416,0.601196,
-2.57721,0.6073,
-2.58026,0.605774,
-2.58636,0.59967,
-2.59094,0.601196,
-2.58942,0.601196,
-2.58942,0.6073,
-2.59094,0.605774,
-2.59552,0.59967,
-2.59247,0.613403,
-2.59399,0.601196,
-2.59399,0.6073,
-2.59094,0.605774,
-2.58942,0.601196,
-2.59094,0.601196,
-2.59399,0.59967,
-2.58942,0.6073,
-2.58942,0.627136,
-2.58636,0.598145,
-2.58636,0.602722,
-2.58331,0.601196,
-2.58484,0.6073,
-2.58331,0.605774,
-2.58636,0.602722,
-2.58331,0.598145,
-2.58484,0.598145,
-2.58331,0.605774,
-2.58484,0.602722,
-2.58942,0.59967,
-2.59094,0.598145,
-2.59247,0.59967,
-2.59247,0.604248,
-2.59705,0.604248,
-2.59857,0.604248,
-2.60315,0.59967,
-2.6123,0.59967,
-2.61993,0.6073,
-2.62604,0.601196,
-2.63519,0.602722,
-2.63824,0.598145,
-2.65045,0.587463,
-2.66113,0.605774,
-2.66876,0.605774,
-2.67639,0.601196,
-2.68555,0.595093,
-2.69318,0.59967,
-2.70081,0.601196,
-2.70844,0.616455,
-2.71759,0.604248,
-2.72522,0.593567,
-2.73132,0.595093,
-2.73743,0.605774,
-2.74506,0.595093,
-2.75879,0.59967,
-2.76337,0.598145,
-2.77863,0.598145,
-2.78015,0.6073,
-2.79083,0.6073,
-2.79846,0.601196,
-2.80609,0.598145,
-2.81677,0.595093,
-2.82593,0.608826,
-2.83051,0.602722,
-2.83813,0.601196,
-2.84424,0.593567,
-2.85187,0.593567,
-2.85797,0.604248,
-2.8656,0.604248,
-2.86865,0.602722,
-2.88086,0.598145,
-2.88544,0.59967,
-2.89917,0.604248,
-2.90375,0.6073,
-2.9129,0.604248,
-2.91595,0.595093,
-2.92053,0.590515,
-2.92969,0.604248,
-2.93274,0.6073,
-2.94037,0.602722,
-2.94037,0.59967,
-2.94495,0.598145,
-2.948,0.604248,
-2.95258,0.608826,
-2.96173,0.602722,
-2.96783,0.593567,
-2.97241,0.598145,
-2.97852,0.608826,
-2.98157,0.604248,
-2.98767,0.604248,
-2.99072,0.602722,
-2.9953,0.59967,
-2.99835,0.604248,
-3.00293,0.6073,
-3.00446,0.602722,
-3.00903,0.587463,
-3.01056,0.595093,
-3.01208,0.605774,
-3.01361,0.608826,
-3.01208,0.602722,
-3.01971,0.598145,
-3.01971,0.593567,
-3.02429,0.604248,
-3.02887,0.605774,
-3.0304,0.601196,
-3.02887,0.602722,
-3.02277,0.598145,
-3.01666,0.605774,
-3.01056,0.605774,
-2.99835,0.601196,
-2.98157,0.59967,
-2.96631,0.598145,
-2.94342,0.6073,
-2.91595,0.605774,
-2.89307,0.59967,
-2.86713,0.595093,
-2.83661,0.598145,
-2.80914,0.605774,
-2.78015,0.605774,
-2.74658,0.59967,
-2.71454,0.598145,
-2.68402,0.598145,
-2.65961,0.605774,
-2.62756,0.608826,
-2.60315,0.59967,
-2.57568,0.601196,
-2.5528,0.59967,
-2.5238,0.604248,
-2.50854,0.6073,
-2.49176,0.593567,
-2.47498,0.598145,
-2.46277,0.595093,
-2.45056,0.6073,
-2.44598,0.6073,
-2.43378,0.598145,
-2.42462,0.601196,
-2.42157,0.59967,
-2.42004,0.604248,
-2.41852,0.602722,
-2.42157,0.598145,
-2.42462,0.595093,
-2.43073,0.598145,
-2.43683,0.604248,
-2.44446,0.605774,
-2.45056,0.595093,
-2.45514,0.595093,
-2.46582,0.59967,
-2.47192,0.602722,
-2.48108,0.6073,
-2.48718,0.598145,
-2.48871,0.601196,
-2.49634,0.598145,
-2.49786,0.604248,
-2.50397,0.6073,
-2.50854,0.59967,
-2.51617,0.593567,
-2.51617,0.598145,
-2.51617,0.605774,
-2.52075,0.6073,
-2.52533,0.593567,
-2.52228,0.595093,
-2.52533,0.59967,
-2.52991,0.604248,
-2.53296,0.604248,
-2.53601,0.595093,
-2.54669,0.595093,
-2.55127,0.595093,
-2.56195,0.605774,
-2.56653,0.605774,
-2.57416,0.593567,
-2.58331,0.59967,
-2.58789,0.595093,
-2.59857,0.602722,
-2.59857,0.604248,
-2.60468,0.598145,
-2.61078,0.598145,
-2.61841,0.588989,
-2.62604,0.602722,
-2.62909,0.604248,
-2.63672,0.593567,
-2.64893,0.595093,
-2.65045,0.593567,
-2.65656,0.605774,
-2.66266,0.6073,
-2.66418,0.598145,
-2.66571,0.598145,
-2.66876,0.595093,
-2.66724,0.604248,
-2.66876,0.6073,
-2.66876,0.598145,
-2.66418,0.598145,
-2.66724,0.598145,
-2.66266,0.604248,
-2.65656,0.604248,
-2.6535,0.598145,
-2.65198,0.593567,
-2.64587,0.598145,
-2.6413,0.6073,
-2.63824,0.605774,
-2.63214,0.59967,
-2.63062,0.593567,
-2.62604,0.598145,
-2.62451,0.605774,
-2.62451,0.605774,
-2.62451,0.593567,
-2.62451,0.595093,
-2.62451,0.598145,
-2.62604,0.602722,
-2.63062,0.604248,
-2.63062,0.595093,
-2.63214,0.592041,
-2.63519,0.587463,
-2.63824,0.59967,
-2.6413,0.604248,
-2.64435,0.601196,
-2.64587,0.595093,
-2.64435,0.593567,
-2.65045,0.605774,
-2.6535,0.602722,
-2.65961,0.592041,
-2.66571,0.598145,
-2.66876,0.595093,
-2.67792,0.605774,
-2.68402,0.602722,
-2.69012,0.598145,
-2.69775,0.593567,
-2.70386,0.601196,
-2.70691,0.602722,
-2.71759,0.605774,
-2.72217,0.593567,
-2.72827,0.595093,
-2.73285,0.598145,
-2.74048,0.604248,
-2.74963,0.601196,
-2.75726,0.587463,
-2.76337,0.595093,
-2.771,0.595093,
-2.77405,0.605774,
-2.78625,0.604248,
-2.79388,0.593567,
-2.79846,0.593567,
-2.80304,0.598145,
-2.80609,0.604248,
-2.81219,0.601196,
-2.81372,0.595093,
-2.8244,0.593567,
-2.83051,0.593567,
-2.83813,0.605774,
-2.84729,0.601196,
-2.85645,0.598145,
-2.8595,0.590515,
-2.8656,0.595093,
-2.86865,0.601196,
-2.87323,0.604248,
-2.87933,0.598145,
-2.88391,0.592041,
-2.89001,0.592041,
-2.89459,0.601196,
-2.90222,0.602722,
-2.90375,0.592041,
-2.90375,0.592041,
-2.90527,0.595093,
-2.9129,0.604248,
-2.91443,0.588989,
-2.91595,0.592041,
-2.92358,0.593567,
-2.92664,0.598145,
-2.92816,0.598145,
-2.93427,0.605774,
-2.93884,0.588989,
-2.94342,0.588989,
-2.94189,0.587463,
-2.94647,0.601196,
-2.94037,0.604248,
-2.93579,0.592041,
-2.92816,0.593567,
-2.91748,0.592041,
-2.90375,0.602722,
-2.89001,0.605774,
-2.8717,0.590515,
-2.85645,0.588989,
-2.83203,0.595093,
-2.81067,0.604248,
-2.78168,0.601196,
-2.75726,0.593567,
-2.73132,0.592041,
-2.70538,0.593567,
-2.67334,0.605774,
-2.64587,0.601196,
-2.61841,0.593567,
-2.58789,0.592041,
-2.565,0.595093,
-2.54059,0.604248,
-2.52075,0.605774,
-2.49939,0.587463,
-2.4826,0.595093,
-2.46887,0.598145,
-2.45819,0.604248,
-2.44446,0.604248,
-2.4353,0.593567,
-2.42462,0.6073,
-2.4231,0.595093,
-2.41699,0.601196,
-2.41547,0.601196,
-2.41547,0.593567,
-2.41852,0.592041,
-2.41852,0.598145,
-2.4231,0.613403,
-2.42767,0.6073,
-2.43073,0.592041,
-2.43073,0.593567,
-2.43683,0.593567,
-2.44293,0.604248,
-2.44751,0.602722,
-2.45514,0.593567,
-2.45972,0.595093,
-2.46887,0.595093,
-2.46887,0.604248,
-2.48413,0.602722,
-2.48871,0.595093,
-2.49939,0.595093,
-2.5116,0.585938,
-2.5177,0.598145,
-2.52533,0.604248,
-2.53601,0.598145,
-2.54211,0.598145,
-2.54822,0.595093,
-2.5589,0.602722,
-2.56805,0.601196,
-2.57416,0.598145,
-2.58636,0.598145,
-2.59552,0.593567,
-2.60773,0.59967,
-2.61688,0.605774,
-2.62756,0.598145,
-2.63672,0.595093,
-2.65198,0.595093,
-2.65961,0.602722,
-2.66571,0.601196,
-2.67181,0.598145,
-2.68402,0.59967,
-2.69165,0.598145,
-2.70081,0.595093,
-2.70844,0.602722,
-2.71912,0.595093,
-2.71912,0.593567,
-2.72217,0.595093,
-2.7298,0.59967,
-2.7298,0.601196,
-2.72827,0.595093,
-2.72827,0.595093,
-2.72522,0.593567,
-2.72064,0.598145,
-2.72217,0.602722,
-2.71454,0.598145,
-2.71301,0.602722,
-2.70996,0.592041,
-2.71149,0.598145,
-2.71301,0.601196,
-2.70996,0.590515,
-2.71454,0.593567,
-2.71301,0.593567,
-2.71301,0.595093,
-2.71301,0.604248,
-2.70691,0.598145,
-2.70691,0.595093,
-2.70996,0.587463,
-2.70691,0.602722,
-2.70844,0.605774,
-2.70844,0.592041,
-2.70691,0.593567,
-2.70386,0.59967,
-2.70691,0.59967,
-2.70386,0.590515,
-2.70386,0.590515,
-2.70996,0.592041,
-2.70844,0.595093,
-2.70844,0.598145,
-2.71454,0.604248,
-2.71301,0.59967,
-2.72064,0.592041,
-2.72522,0.598145,
-2.72675,0.598145,
-2.7298,0.604248,
-2.73285,0.593567,
-2.7359,0.593567,
-2.74353,0.590515,
-2.74811,0.59967,
-2.75574,0.604248,
-2.76031,0.595093,
-2.76642,0.590515,
-2.77252,0.593567,
-2.77863,0.59967,
-2.78015,0.605774,
-2.78931,0.588989,
-2.79541,0.590515,
-2.80304,0.595093,
-2.80914,0.598145,
-2.81219,0.608826,
-2.82135,0.598145,
-2.82135,0.590515,
-2.82593,0.58136,
-2.82593,0.59967,
-2.82898,0.602722,
-2.83051,0.593567,
-2.83508,0.593567,
-2.83813,0.593567,
-2.84424,0.59967,
-2.85492,0.605774,
-2.86102,0.595093,
-2.86407,0.587463,
-2.86713,0.592041,
-2.86865,0.59967,
-2.87018,0.59967,
-2.87323,0.592041,
-2.87781,0.592041,
-2.88086,0.590515,
-2.88544,0.604248,
-2.89307,0.604248,
-2.89459,0.592041,
-2.90222,0.587463,
-2.90985,0.595093,
-2.9129,0.601196,
-2.91901,0.602722,
-2.92053,0.595093,
-2.92511,0.592041,
-2.93274,0.590515,
-2.93579,0.59967,
-2.94037,0.6073,
-2.94495,0.592041,
-2.94952,0.595093,
-2.95258,0.593567,
-2.94952,0.588989,
-2.94952,0.593567,
-2.948,0.590515,
-2.948,0.588989,
-2.94342,0.595093,
-2.93732,0.595093,
-2.92511,0.601196,
-2.91138,0.593567,
-2.89764,0.587463,
-2.87628,0.593567,
-2.8595,0.601196,
-2.83356,0.59967,
-2.80914,0.593567,
-2.78015,0.590515,
-2.75269,0.593567,
-2.72064,0.595093,
-2.68402,0.601196,
-2.65198,0.595093,
-2.6123,0.584412,
-2.58331,0.595093,
-2.54974,0.598145,
-2.51923,0.604248,
-2.48871,0.592041,
-2.46124,0.588989,
-2.43988,0.595093,
-2.41699,0.59967,
-2.39563,0.604248,
-2.38037,0.595093,
-2.36511,0.592041,
-2.3468,0.598145,
-2.33307,0.598145,
-2.32086,0.601196,
-2.31476,0.593567,
-2.30255,0.590515,
-2.29797,0.595093,
-2.2934,0.595093,
-2.28882,0.598145,
-2.28729,0.595093,
-2.29034,0.590515,
-2.29034,0.595093,
-2.28729,0.598145,
-2.29034,0.598145,
-2.29797,0.592041,
-2.30103,0.592041,
-2.30255,0.595093,
-2.30865,0.59967,
-2.31323,0.598145,
-2.31628,0.593567,
-2.32544,0.590515,
-2.33002,0.595093,
-2.33917,0.595093,
-2.34222,0.601196,
-2.35138,0.593567,
-2.35596,0.593567,
-2.36206,0.601196,
-2.36664,0.59967,
-2.37579,0.595093,
-2.37885,0.593567,
-2.38342,0.582886,
-2.388,0.595093,
-2.3941,0.59967,
-2.40021,0.602722,
-2.40479,0.593567,
-2.41394,0.593567,
-2.4231,0.59967,
-2.4292,0.602722,
-2.43225,0.59967,
-2.43988,0.614929,
-2.45056,0.58136,
-2.46124,0.595093,
-2.46429,0.595093,
-2.47498,0.598145,
-2.48566,0.595093,
-2.48718,0.593567,
-2.49329,0.593567,
-2.49939,0.601196,
-2.50092,0.601196,
-2.50549,0.598145,
-2.50549,0.587463,
-2.51312,0.598145,
-2.51312,0.601196,
-2.51312,0.598145,
-2.51312,0.595093,
-2.51617,0.593567,
-2.51465,0.598145,
-2.51312,0.59967,
-2.50854,0.601196,
-2.50702,0.595093,
-2.50702,0.590515,
-2.50549,0.59967,
-2.50244,0.59967,
-2.49939,0.59967,
-2.49939,0.593567,
-2.49939,0.592041,
-2.49176,0.593567,
-2.48718,0.602722,
-2.48108,0.598145,
-2.47803,0.593567,
-2.4704,0.592041,
-2.46887,0.598145,
-2.46429,0.598145,
-2.46582,0.602722,
-2.46277,0.590515,
-2.46735,0.593567,
-2.46582,0.598145,
-2.46582,0.595093,
-2.4704,0.598145,
-2.4704,0.595093,
-2.47345,0.588989,
-2.48108,0.593567,
-2.4826,0.59967,
-2.48718,0.601196,
-2.48871,0.598145,
-2.49786,0.588989,
-2.50244,0.595093,
-2.50702,0.598145,
-2.5116,0.601196,
-2.51465,0.595093,
-2.5177,0.592041,
-2.52228,0.593567,
-2.52533,0.593567,
-2.53143,0.610352,
-2.53296,0.595093,
-2.53754,0.590515,
-2.54822,0.590515,
-2.54974,0.601196,
-2.5589,0.598145,
-2.565,0.593567,
-2.56958,0.587463,
-2.57568,0.588989,
-2.58179,0.602722,
-2.58331,0.602722,
-2.58789,0.593567,
-2.59094,0.587463,
-2.59247,0.590515,
-2.59705,0.59967,
-2.6062,0.59967,
-2.60925,0.587463,
-2.61841,0.592041,
-2.63062,0.590515,
-2.63672,0.595093,
-2.64282,0.598145,
-2.64435,0.598145,
-2.64893,0.590515,
-2.65198,0.593567,
-2.6535,0.595093,
-2.65656,0.598145,
-2.65961,0.595093,
-2.66418,0.58136,
-2.67334,0.590515,
-2.67639,0.598145,
-2.68097,0.59967,
-2.6886,0.595093,
-2.69318,0.590515,
-2.69928,0.592041,
-2.70081,0.595093,
-2.70538,0.602722,
-2.70844,0.592041,
-2.71454,0.592041,
-2.71759,0.588989,
-2.72522,0.595093,
-2.7298,0.59967,
-2.7359,0.593567,
-2.73743,0.590515,
-2.74506,0.590515,
-2.74811,0.601196,
-2.74963,0.598145,
-2.75421,0.598145,
-2.76031,0.593567,
-2.76489,0.592041,
-2.76947,0.598145,
-2.77863,0.59967,
-2.78625,0.593567,
-2.79236,0.590515,
-2.79388,0.592041,
-2.79541,0.601196,
-2.79694,0.604248,
-2.79388,0.593567,
-2.78778,0.592041,
-2.78168,0.592041,
-2.76947,0.59967,
-2.75421,0.598145,
-2.742,0.595093,
-2.71912,0.590515,
-2.69318,0.593567,
-2.66571,0.595093,
-2.63824,0.595093,
-2.6062,0.593567,
-2.56958,0.593567,
-2.53906,0.590515,
-2.50244,0.598145,
-2.46887,0.59967,
-2.4353,0.593567,
-2.40173,0.593567,
-2.37122,0.592041,
-2.34833,0.59967,
-2.31781,0.59967,
-2.2995,0.59967,
-2.27509,0.588989,
-2.2583,0.593567,
-2.23846,0.59967,
-2.22168,0.601196,
-2.20795,0.593567,
-2.19574,0.587463,
-2.18506,0.593567,
-2.17896,0.601196,
-2.17133,0.59967,
-2.1637,0.595093,
-2.16217,0.590515,
-2.16217,0.595093,
-2.15912,0.595093,
-2.15759,0.604248,
-2.15912,0.593567,
-2.16064,0.588989,
-2.16827,0.593567,
-2.17133,0.59967,
-2.17896,0.601196,
-2.18201,0.592041,
-2.18506,0.588989,
-2.18658,0.592041,
-2.18964,0.601196,
-2.19269,0.602722,
-2.20184,0.590515,
-2.20642,0.590515,
-2.21405,0.592041,
-2.22015,0.601196,
-2.22473,0.59967,
-2.22778,0.592041,
-2.23236,0.588989,
-2.24457,0.593567,
-2.24762,0.601196,
-2.25067,0.59967,
-2.25677,0.593567,
-2.26288,0.587463,
-2.27051,0.588989,
-2.27203,0.602722,
-2.27814,0.601196,
-2.28577,0.593567,
-2.29187,0.584412,
-2.29797,0.592041,
-2.31018,0.59967,
-2.31628,0.608826,
-2.32239,0.585938,
-2.32849,0.590515,
-2.33612,0.593567,
-2.34375,0.601196,
-2.34375,0.59967,
-2.35443,0.588989,
-2.35748,0.588989,
-2.36053,0.592041,
-2.36511,0.59967,
-2.37579,0.59967,
-2.37885,0.590515,
-2.38647,0.588989,
-2.38953,0.595093,
-2.39563,0.601196,
-2.39868,0.598145,
-2.40021,0.593567,
-2.40479,0.587463,
-2.40631,0.590515,
-2.41089,0.59967,
-2.40936,0.59967,
-2.40936,0.593567,
-2.41394,0.588989,
-2.41547,0.592041,
-2.41699,0.604248,
-2.41852,0.598145,
-2.41547,0.590515,
-2.41699,0.587463,
-2.41699,0.593567,
-2.41241,0.601196,
-2.41547,0.595093,
-2.41394,0.590515,
-2.41241,0.585938,
-2.41241,0.590515,
-2.41547,0.598145,
-2.41699,0.592041,
-2.41852,0.590515,
-2.41852,0.590515,
-2.42004,0.595093,
-2.42004,0.595093,
-2.42767,0.59967,
-2.43073,0.592041,
-2.4292,0.582886,
-2.43225,0.605774,
-2.43225,0.593567,
-2.43683,0.601196,
-2.43378,0.592041,
-2.43683,0.588989,
-2.43835,0.592041,
-2.44293,0.588989,
-2.44446,0.59967,
-2.44904,0.590515,
-2.45514,0.590515,
-2.45667,0.593567,
-2.46124,0.590515,
-2.46277,0.59967,
-2.46582,0.593567,
-2.46887,0.592041,
-2.47345,0.593567,
-2.47955,0.598145,
-2.48566,0.598145,
-2.48871,0.590515,
-2.49176,0.588989,
-2.49786,0.588989,
-2.50397,0.595093,
-2.50854,0.595093,
-2.51617,0.593567,
-2.51617,0.590515,
-2.51923,0.593567,
-2.52533,0.593567,
-2.53296,0.598145,
-2.53601,0.592041,
-2.54059,0.590515,
-2.54974,0.592041,
-2.55432,0.587463,
-2.56195,0.595093,
-2.56805,0.588989,
-2.57416,0.590515,
-2.57568,0.588989,
-2.58331,0.592041,
-2.58636,0.604248,
-2.59094,0.59967,
-2.59399,0.592041,
-2.60468,0.592041,
-2.60468,0.601196,
-2.60925,0.59967,
-2.61536,0.598145,
-2.62451,0.585938,
-2.63214,0.595093,
-2.63367,0.598145,
-2.63977,0.598145,
-2.64893,0.590515,
-2.65198,0.592041,
-2.65656,0.598145,
-2.66113,0.595093,
-2.66571,0.595093,
-2.66571,0.593567,
-2.67029,0.593567,
-2.67181,0.590515,
-2.67639,0.598145,
-2.67944,0.595093,
-2.68555,0.595093,
-2.69165,0.593567,
-2.69775,0.590515,
-2.69928,0.592041,
-2.70538,0.598145,
-2.70691,0.593567,
-2.71149,0.592041,
-2.71301,0.590515,
-2.72064,0.593567,
-2.72369,0.585938,
-2.72064,0.590515,
-2.72064,0.588989,
-2.71149,0.588989,
-2.70233,0.590515,
-2.69318,0.592041,
-2.67639,0.593567,
-2.65503,0.592041,
-2.63824,0.590515,
-2.6123,0.592041,
-2.58636,0.590515,
-2.55585,0.590515,
-2.5238,0.588989,
-2.49329,0.587463,
-2.45819,0.587463,
-2.42767,0.590515,
-2.3941,0.590515,
-2.36053,0.585938,
-2.32544,0.590515,
-2.2934,0.592041,
-2.2644,0.592041,
-2.23846,0.592041,
-2.21405,0.585938,
-2.18353,0.588989,
-2.16064,0.592041,
-2.14081,0.590515,
-2.11945,0.592041,
-2.10419,0.588989,
-2.0874,0.593567,
-2.07977,0.592041,
-2.07367,0.595093,
-2.06604,0.592041,
-2.06604,0.588989,
-2.06146,0.590515,
-2.06604,0.592041,
-2.06909,0.595093,
-2.07672,0.592041,
-2.08282,0.585938,
-2.09198,0.592041,
-2.10419,0.590515,
-2.11334,0.592041,
-2.12097,0.590515,
-2.13318,0.588989,
-2.14233,0.587463,
-2.15759,0.592041,
-2.1698,0.595093,
-2.18201,0.576782,
-2.19269,0.587463,
-2.20337,0.590515,
-2.21405,0.593567,
-2.22473,0.59967,
-2.23846,0.598145,
-2.25067,0.582886,
-2.2583,0.592041,
-2.26746,0.595093,
-2.27814,0.595093,
-2.28577,0.592041,
-2.29797,0.588989,
-2.30713,0.592041,
-2.31628,0.598145,
-2.32849,0.598145,
-2.33917,0.584412,
-2.34833,0.587463,
-2.35748,0.592041,
-2.36511,0.595093,
-2.37885,0.595093,
-2.38647,0.593567,
-2.40021,0.584412,
-2.40936,0.593567,
-2.41699,0.595093,
-2.4231,0.601196,
-2.43073,0.593567,
-2.43988,0.585938,
-2.44446,0.590515,
-2.44751,0.595093,
-2.45209,0.598145,
-2.45667,0.592041,
-2.45667,0.588989,
-2.45514,0.590515,
-2.45361,0.598145,
-2.45361,0.595093,
-2.45056,0.593567,
-2.44751,0.587463,
-2.44446,0.590515,
-2.43835,0.593567,
-2.43073,0.593567,
-2.42767,0.592041,
-2.4292,0.585938,
-2.4231,0.592041,
-2.41852,0.59967,
-2.41852,0.601196,
-2.41699,0.608826,
-2.41547,0.587463,
-2.40631,0.590515,
-2.40936,0.598145,
-2.40326,0.59967,
-2.40326,0.592041,
-2.40173,0.587463,
-2.39868,0.592041,
-2.40021,0.587463,
-2.39868,0.601196,
-2.40173,0.592041,
-2.39563,0.584412,
-2.39716,0.593567,
-2.39716,0.598145,
-2.39563,0.601196,
-2.39868,0.592041,
-2.40021,0.587463,
-2.40021,0.593567,
-2.40479,0.593567,
-2.41089,0.59967,
-2.41699,0.590515,
-2.41547,0.584412,
-2.42157,0.593567,
-2.42004,0.598145,
-2.4231,0.601196,
-2.42615,0.590515,
-2.43073,0.585938,
-2.43683,0.592041,
-2.43835,0.598145,
-2.43683,0.59967,
-2.44446,0.593567,
-2.44904,0.584412,
-2.45209,0.595093,
-2.45514,0.598145,
-2.46429,0.598145,
-2.46735,0.593567,
-2.47192,0.584412,
-2.47498,0.588989,
-2.47955,0.593567,
-2.48718,0.59967,
-2.49329,0.595093,
-2.49939,0.584412,
-2.50244,0.588989,
-2.50854,0.598145,
-2.5116,0.598145,
-2.51923,0.590515,
-2.52533,0.58136,
-2.52991,0.593567,
-2.53754,0.598145,
-2.54211,0.595093,
-2.54669,0.593567,
-2.56042,0.587463,
-2.565,0.590515,
-2.56958,0.593567,
-2.57416,0.598145,
-2.58179,0.593567,
-2.58636,0.585938,
-2.59399,0.592041,
-2.60468,0.593567,
-2.6123,0.604248,
-2.61841,0.587463,
-2.62756,0.585938,
-2.63672,0.590515,
-2.64435,0.593567,
-2.65198,0.593567,
-2.65808,0.59967,
-2.66266,0.585938,
-2.66418,0.590515,
-2.67029,0.592041,
-2.67181,0.595093,
-2.67334,0.593567,
-2.66876,0.587463,
-2.65961,0.587463,
-2.65503,0.585938,
-2.63977,0.598145,
-2.62604,0.592041,
-2.60773,0.587463,
-2.58942,0.592041,
-2.565,0.595093,
-2.54364,0.59967,
-2.51617,0.592041,
-2.48718,0.584412,
-2.45972,0.595093,
-2.43073,0.598145,
-2.39868,0.595093,
-2.36969,0.592041,
-2.34222,0.590515,
-2.31781,0.592041,
-2.29492,0.598145,
-2.27203,0.598145,
-2.2522,0.595093,
-2.22931,0.587463,
-2.20947,0.592041,
-2.19421,0.595093,
-2.18048,0.595093,
-2.16522,0.592041,
-2.15302,0.587463,
-2.14539,0.588989,
-2.13623,0.598145,
-2.13013,0.598145,
-2.12708,0.595093,
-2.12402,0.579834,
-2.12097,0.582886,
-2.11945,0.598145,
-2.11792,0.595093,
-2.12402,0.590515,
-2.11792,0.584412,
-2.12555,0.590515,
-2.12708,0.59967,
-2.12708,0.59967,
-2.13928,0.588989,
-2.14539,0.590515,
-2.14996,0.593567,
-2.15912,0.598145,
-2.16522,0.592041,
-2.17438,0.592041,
-2.18048,0.585938,
-2.18658,0.592041,
-2.19116,0.598145,
-2.19879,0.592041,
-2.20795,0.588989,
-2.21863,0.585938,
-2.22626,0.593567,
-2.23694,0.593567,
-2.24762,0.590515,
-2.26135,0.592041,
-2.27051,0.588989,
-2.28424,0.595093,
-2.29187,0.59967,
-2.30865,0.592041,
-2.31171,0.590515,
-2.32086,0.587463,
-2.33002,0.59967,
-2.34222,0.598145,
-2.34985,0.595093,
-2.35748,0.592041,
-2.36664,0.57373,
-2.37732,0.587463,
-2.38342,0.59967,
-2.38953,0.592041,
-2.3941,0.588989,
-2.40021,0.585938,
-2.40479,0.585938,
-2.41852,0.595093,
-2.4231,0.595093,
-2.42767,0.590515,
-2.43073,0.590515,
-2.43378,0.593567,
-2.43835,0.592041,
-2.44293,0.595093,
-2.44751,0.592041,
-2.45056,0.587463,
-2.45209,0.592041,
-2.45667,0.598145,
-2.45972,0.595093,
-2.45972,0.590515,
-2.46124,0.585938,
-2.46429,0.593567,
-2.46429,0.59967,
-2.46582,0.592041,
-2.46735,0.590515,
-2.4704,0.587463,
-2.47498,0.592041,
-2.47803,0.593567,
-2.47498,0.595093,
-2.48718,0.590515,
-2.48718,0.587463,
-2.49634,0.590515,
-2.50244,0.595093,
-2.50397,0.593567,
-2.50854,0.588989,
-2.51617,0.587463,
-2.51923,0.592041,
-2.52075,0.598145,
-2.52686,0.595093,
-2.53296,0.592041,
-2.53906,0.585938,
-2.54822,0.592041,
-2.55737,0.595093,
-2.56348,0.592041,
-2.56958,0.592041,
-2.57568,0.587463,
-2.58484,0.590515,
-2.59247,0.601196,
-2.59857,0.598145,
-2.60315,0.593567,
-2.6123,0.585938,
-2.61841,0.588989,
-2.62451,0.593567,
-2.63519,0.595093,
-2.64282,0.593567,
-2.65503,0.588989,
-2.65961,0.595093,
-2.66876,0.598145,
-2.67487,0.602722,
-2.68555,0.598145,
-2.69318,0.588989,
-2.70081,0.592041,
-2.70996,0.59967,
-2.71912,0.593567,
-2.73285,0.595093,
-2.73895,0.590515,
-2.74506,0.587463,
-2.75269,0.598145,
-2.76184,0.598145,
-2.76642,0.595093,
-2.77252,0.587463,
-2.7832,0.587463,
-2.79388,0.59967,
-2.79846,0.595093,
-2.80304,0.595093,
-2.80914,0.585938,
-2.81372,0.590515,
-2.81677,0.598145,
-2.82593,0.593567,
-2.82593,0.593567,
-2.83203,0.588989,
-2.83966,0.588989,
-2.84271,0.598145,
-2.84882,0.598145,
-2.85034,0.590515,
-2.8595,0.587463,
-2.86255,0.587463,
-2.86865,0.595093,
-2.8717,0.595093,
-2.87323,0.593567,
-2.87781,0.576782,
-2.87781,0.587463,
-2.88239,0.598145,
-2.88544,0.592041,
-2.89001,0.592041,
-2.89307,0.595093,
-2.89764,0.585938,
-2.90527,0.595093,
-2.90375,0.585938,
-2.9068,0.588989,
-2.9068,0.585938,
-2.90222,0.587463,
-2.89307,0.593567,
-2.87628,0.598145,
-2.8595,0.588989,
-2.83813,0.578308,
-2.80914,0.588989,
-2.78625,0.595093,
-2.75269,0.595093,
-2.71912,0.590515,
-2.68555,0.588989,
-2.65045,0.588989,
-2.60773,0.6073,
-2.56805,0.593567,
-2.53143,0.590515,
-2.49634,0.587463,
-2.45972,0.590515,
-2.4231,0.598145,
-2.38495,0.592041,
-2.35291,0.593567,
-2.32239,0.590515,
-2.2934,0.590515,
-2.26593,0.598145,
-2.24609,0.595093,
-2.22626,0.590515,
-2.20947,0.587463,
-2.18658,0.588989,
-2.17285,0.59967,
-2.15912,0.598145,
-2.14996,0.587463,
-2.14233,0.587463,
-2.13776,0.585938,
-2.13318,0.59967,
-2.13623,0.595093,
-2.13318,0.587463,
-2.13318,0.588989,
-2.13013,0.584412,
-2.13776,0.595093,
-2.14539,0.592041,
-2.14996,0.590515,
-2.15759,0.587463,
-2.1637,0.585938,
-2.1759,0.602722,
-2.18353,0.592041,
-2.19269,0.588989,
-2.20184,0.593567,
-2.211,0.593567,
-2.22168,0.602722,
-2.22931,0.595093,
-2.23999,0.585938,
-2.24304,0.588989,
-2.24915,0.590515,
-2.24762,0.601196,
-2.25372,0.593567,
-2.25677,0.588989,
-2.2583,0.585938,
-2.2583,0.592041,
-2.26288,0.59967,
-2.26593,0.598145,
-2.27051,0.588989,
-2.26746,0.587463,
-2.27509,0.587463,
-2.27814,0.59967,
-2.28577,0.598145,
-2.2934,0.592041,
-2.30103,0.590515,
-2.30713,0.593567,
-2.31628,0.590515,
-2.32239,0.59967,
-2.32849,0.588989,
-2.33917,0.585938,
-2.3468,0.588989,
-2.35596,0.598145,
-2.35901,0.593567,
-2.36359,0.588989,
-2.36969,0.585938,
-2.37122,0.592041,
-2.37732,0.595093,
-2.3819,0.59967,
-2.38037,0.585938,
-2.38495,0.587463,
-2.38495,0.590515,
-2.38495,0.598145,
-2.388,0.598145,
-2.38495,0.588989,
-2.38647,0.590515,
-2.38495,0.588989,
-2.38647,0.590515,
-2.38495,0.595093,
-2.3819,0.588989,
-2.3819,0.590515,
-2.38037,0.590515,
-2.37732,0.598145,
-2.37427,0.598145,
-2.37122,0.598145,
-2.37427,0.588989,
-2.36969,0.584412,
-2.37427,0.592041,
-2.37427,0.593567,
-2.37427,0.590515,
-2.37579,0.593567,
-2.37885,0.592041,
-2.3819,0.595093,
-2.38037,0.598145,
-2.38495,0.593567,
-2.388,0.592041,
-2.39563,0.590515,
-2.40479,0.590515,
-2.41241,0.595093,
-2.41852,0.590515,
-2.42462,0.592041,
-2.43073,0.592041,
-2.43683,0.593567,
-2.44293,0.598145,
-2.45056,0.590515,
-2.45209,0.590515,
-2.45819,0.590515,
-2.46582,0.593567,
-2.46735,0.598145,
-2.47192,0.588989,
-2.47803,0.595093,
-2.48108,0.590515,
-2.48566,0.590515,
-2.49329,0.595093,
-2.49939,0.587463,
-2.50244,0.593567,
-2.5116,0.592041,
-2.5177,0.593567,
-2.52686,0.595093,
-2.53296,0.588989,
-2.54059,0.592041,
-2.55127,0.595093,
-2.55737,0.592041,
-2.565,0.595093,
-2.57416,0.590515,
-2.58636,0.579834,
-2.58789,0.593567,
-2.59552,0.593567,
-2.60162,0.593567,
-2.60315,0.592041,
-2.6062,0.590515,
-2.60925,0.587463,
-2.61078,0.608826,
-2.61536,0.601196,
-2.61688,0.593567,
-2.61841,0.593567,
-2.62604,0.592041,
-2.62451,0.590515,
-2.62604,0.598145,
-2.63214,0.587463,
-2.63214,0.585938,
-2.63367,0.593567,
-2.63672,0.593567,
-2.63824,0.595093,
-2.64587,0.588989,
-2.64893,0.590515,
-2.6535,0.588989,
-2.65198,0.595093,
-2.66266,0.595093,
-2.65961,0.588989,
-2.66724,0.590515,
-2.66876,0.590515,
-2.66876,0.593567,
-2.67181,0.595093,
-2.67181,0.595093,
-2.67181,0.588989,
-2.66724,0.593567,
-2.66418,0.595093,
-2.6535,0.598145,
-2.63824,0.592041,
-2.62451,0.588989,
-2.6062,0.590515,
-2.58942,0.592041,
-2.56348,0.59967,
-2.53906,0.590515,
-2.51617,0.592041,
-2.48413,0.592041,
-2.45209,0.598145,
-2.41852,0.601196,
-2.38953,0.592041,
-2.35138,0.590515,
-2.32391,0.590515,
-2.29187,0.592041,
-2.26135,0.592041,
-2.23083,0.613403,
-2.20184,0.587463,
-2.17896,0.593567,
-2.15607,0.588989,
-2.1347,0.598145,
-2.11487,0.587463,
-2.10114,0.590515,
-2.08435,0.592041,
-2.06909,0.584412,
-2.05994,0.590515,
-2.05078,0.592041,
-2.04163,0.588989,
-2.034,0.595093,
-2.02789,0.595093,
-2.02484,0.602722,
-2.02484,0.592041,
-2.02484,0.588989,
-2.02332,0.588989,
-2.02332,0.592041,
-2.02332,0.601196,
-2.02637,0.588989,
-2.03247,0.588989,
-2.03705,0.590515,
-2.03857,0.595093,
-2.04163,0.601196,
-2.04773,0.590515,
-2.05231,0.587463,
-2.05841,0.590515,
-2.06451,0.593567,
-2.06909,0.59967,
-2.06757,0.590515,
-2.07367,0.588989,
-2.07672,0.598145,
-2.07977,0.593567,
-2.08282,0.602722,
-2.08588,0.592041,
-2.09656,0.587463,
-2.10114,0.590515,
-2.10571,0.59967,
-2.11029,0.601196,
-2.11792,0.592041,
-2.1225,0.593567,
-2.12708,0.592041,
-2.13623,0.598145,
-2.14233,0.602722,
-2.14844,0.593567,
-2.15759,0.588989,
-2.16064,0.595093,
-2.16827,0.598145,
-2.1759,0.595093,
-2.18048,0.590515,
-2.18658,0.587463,
-2.19574,0.590515,
-2.19879,0.593567,
-2.20795,0.59967,
-2.22015,0.590515,
-2.22015,0.588989,
-2.22778,0.593567,
-2.23236,0.595093,
-2.23694,0.602722,
-2.24457,0.590515,
-2.24457,0.587463,
-2.24609,0.595093,
-2.24915,0.59967,
-2.2522,0.602722,
-2.25525,0.593567,
-2.25677,0.588989,
-2.2583,0.582886,
-2.2583,0.598145,
-2.2583,0.59967,
-2.25983,0.592041,
-2.25525,0.590515,
-2.25525,0.598145,
-2.25067,0.588989,
-2.25525,0.601196,
-2.25372,0.58136,
-2.2583,0.590515,
-2.25677,0.595093,
-2.25677,0.595093,
-2.25983,0.59967,
-2.25983,0.590515,
-2.26135,0.590515,
-2.26593,0.592041,
-2.27203,0.588989,
-2.27051,0.601196,
-2.27356,0.592041,
-2.27509,0.590515,
-2.27509,0.598145,
-2.27814,0.59967,
-2.28424,0.598145,
-2.28577,0.595093,
-2.28882,0.592041,
-2.29187,0.595093,
-2.29797,0.595093,
-2.3056,0.602722,
-2.31018,0.593567,
-2.31171,0.593567,
-2.31628,0.592041,
-2.31781,0.59967,
-2.32086,0.598145,
-2.32544,0.588989,
-2.32697,0.588989,
-2.33002,0.593567,
-2.33307,0.59967,
-2.33612,0.604248,
-2.33917,0.592041,
-2.34833,0.595093,
-2.35443,0.584412,
-2.36053,0.598145,
-2.36511,0.595093,
-2.37885,0.590515,
-2.3819,0.593567,
-2.39105,0.592041,
-2.39868,0.601196,
-2.40936,0.59967,
-2.41547,0.590515,
-2.42462,0.595093,
-2.4292,0.598145,
-2.43225,0.595093,
-2.43378,0.598145,
-2.43683,0.593567,
-2.43988,0.592041,
-2.43835,0.598145,
-2.44751,0.595093,
-2.45209,0.59967,
-2.45819,0.593567,
-2.46124,0.590515,
-2.46735,0.598145,
-2.47345,0.59967,
-2.4826,0.593567,
-2.49023,0.590515,
-2.49481,0.592041,
-2.50244,0.593567,
-2.50854,0.602722,
-2.5238,0.59967,
-2.52533,0.592041,
-2.53448,0.593567,
-2.53754,0.593567,
-2.54669,0.601196,
-2.55585,0.59967,
-2.56348,0.598145,
-2.56805,0.593567,
-2.57568,0.593567,
-2.58636,0.59967,
-2.59247,0.598145,
-2.59857,0.595093,
-2.6062,0.593567,
-2.6123,0.593567,
-2.61841,0.59967,
-2.62299,0.59967,
-2.62909,0.593567,
-2.62604,0.590515,
-2.62451,0.582886,
-2.61993,0.592041,
-2.60773,0.601196,
-2.6001,0.593567,
-2.58942,0.593567,
-2.57111,0.595093,
-2.5528,0.601196,
-2.52991,0.601196,
-2.50549,0.598145,
-2.4826,0.595093,
-2.45514,0.595093,
-2.42615,0.598145,
-2.39563,0.601196,
-2.36359,0.598145,
-2.33154,0.593567,
-2.30255,0.595093,
-2.27051,0.59967,
-2.24457,0.595093,
-2.21252,0.59967,
-2.18048,0.595093,
-2.15759,0.592041,
-2.13928,0.601196,
-2.11182,0.602722,
-2.09351,0.595093,
-2.07672,0.592041,
-2.06146,0.593567,
-2.05231,0.595093,
-2.04163,0.602722,
-2.03552,0.598145,
-2.02789,0.595093,
-2.02179,0.593567,
-2.01874,0.592041,
-2.02026,0.605774,
-2.01721,0.601196,
-2.01569,0.598145,
-2.01263,0.593567,
-2.01569,0.59967,
-2.01874,0.601196,
-2.02179,0.601196,
-2.02637,0.592041,
-2.03094,0.593567,
-2.03552,0.59967,
-2.03705,0.59967,
-2.04468,0.59967,
-2.04773,0.593567,
-2.05078,0.598145,
-2.05536,0.602722,
-2.05688,0.605774,
-2.06604,0.598145,
-2.07367,0.598145,
-2.07977,0.590515,
-2.08282,0.598145,
-2.09503,0.605774,
-2.10114,0.598145,
-2.10724,0.595093,
-2.11334,0.59967,
-2.11945,0.604248,
-2.12708,0.604248,
-2.13928,0.598145,
-2.14691,0.598145,
-2.15302,0.593567,
-2.15912,0.601196,
-2.16522,0.604248,
-2.17438,0.601196,
-2.18201,0.593567,
-2.19116,0.598145,
-2.19879,0.602722,
-2.20795,0.602722,
-2.2171,0.598145,
-2.22473,0.598145,
-2.23083,0.598145,
-2.23846,0.602722,
-2.24457,0.602722,
-2.25372,0.59967,
-2.25983,0.595093,
-2.27051,0.598145,
-2.26746,0.601196,
-2.27203,0.602722,
-2.27814,0.598145,
-2.28119,0.595093,
-2.28577,0.59967,
-2.29034,0.605774,
-2.29187,0.6073,
-2.29034,0.59967,
-2.2934,0.602722,
-2.29492,0.595093,
-2.29034,0.604248,
-2.29034,0.604248,
-2.29034,0.604248,
-2.28577,0.59967,
-2.28729,0.601196,
-2.28271,0.604248,
-2.28271,0.605774,
-2.28119,0.59967,
-2.28577,0.598145,
-2.28882,0.601196,
-2.29034,0.604248,
-2.28882,0.617981,
-2.29187,0.598145,
-2.29034,0.59967,
-2.29492,0.601196,
-2.29645,0.6073,
-2.2995,0.604248,
-2.30103,0.598145,
-2.30865,0.601196,
-2.31171,0.601196,
-2.31781,0.608826,
-2.32239,0.604248,
-2.32697,0.595093,
-2.33459,0.601196,
-2.33917,0.601196,
-2.34222,0.602722,
-2.34833,0.604248,
-2.35443,0.598145,
-2.35596,0.59967,
-2.35443,0.59967,
-2.35596,0.605774,
-2.35748,0.605774,
-2.36511,0.598145,
-2.36359,0.601196,
-2.36664,0.602722,
-2.37122,0.6073,
-2.37427,0.605774,
-2.37885,0.595093,
-2.38037,0.601196,
-2.38647,0.601196,
-2.38953,0.605774,
-2.39105,0.605774,
-2.39258,0.598145,
-2.39563,0.595093,
-2.39716,0.604248,
-2.40479,0.608826,
-2.41089,0.6073,
-2.41394,0.595093,
-2.41852,0.598145,
-2.41699,0.59967,
-2.4231,0.608826,
-2.42615,0.605774,
-2.43225,0.59967,
-2.43225,0.593567,
-2.4353,0.602722,
-2.43988,0.610352,
-2.44446,0.604248,
-2.44751,0.598145,
-2.44904,0.598145,
-2.45361,0.604248,
-2.45972,0.6073,
-2.46277,0.605774,
-2.46887,0.595093,
-2.4704,0.598145,
-2.47803,0.602722,
-2.48871,0.608826,
-2.49634,0.6073,
-2.50549,0.595093,
-2.50854,0.598145,
-2.51465,0.59967,
-2.52686,0.608826,
-2.53143,0.605774,
-2.53906,0.598145,
-2.55127,0.59967,
-2.5528,0.602722,
-2.565,0.6073,
-2.57416,0.6073,
-2.58026,0.602722,
-2.58179,0.592041,
-2.59094,0.601196,
-2.59094,0.605774,
-2.59247,0.6073,
-2.59399,0.595093,
-2.58942,0.601196,
-2.58636,0.604248,
-2.58179,0.608826,
-2.56653,0.6073,
-2.5528,0.59967,
-2.53296,0.602722,
-2.51617,0.602722,
-2.49329,0.605774,
-2.4704,0.6073,
-2.44446,0.601196,
-2.41089,0.604248,
-2.38342,0.604248,
-2.34985,0.604248,
-2.31781,0.608826,
-2.28271,0.59967,
-2.24762,0.613403,
-2.21252,0.604248,
-2.18048,0.6073,
-2.14844,0.6073,
-2.11487,0.598145,
-2.09045,0.604248,
-2.06604,0.601196,
-2.03857,0.605774,
-2.01874,0.610352,
-2.00043,0.602722,
-1.97906,0.602722,
-1.96381,0.605774,
-1.95007,0.6073,
-1.93787,0.608826,
-1.92871,0.59967,
-1.9165,0.602722,
-1.9104,0.610352,
-1.90277,0.608826,
-1.89972,0.614929,
-1.89362,0.604248,
-1.89362,0.605774,
-1.89667,0.59967,
-1.89362,0.6073,
-1.89514,0.611877,
-1.89819,0.59967,
-1.90277,0.604248,
-1.90582,0.602722,
-1.91193,0.6073,
-1.9165,0.610352,
-1.92108,0.601196,
-1.92719,0.604248,
-1.93634,0.604248,
-1.94397,0.6073,
-1.95007,0.610352,
-1.9577,0.604248,
-1.96533,0.604248,
-1.96991,0.604248,
-1.97754,0.608826,
-1.98822,0.610352,
-1.99738,0.601196,
-2.01111,0.604248,
-2.02179,0.604248,
-2.03705,0.605774,
-2.0462,0.610352,
-2.05994,0.602722,
-2.06909,0.6073,
-2.0813,0.602722,
-2.09198,0.6073,
-2.10114,0.613403,
-2.10876,0.604248,
-2.11945,0.6073,
-2.1347,0.604248,
-2.14386,0.6073,
-2.14844,0.610352,
-2.15759,0.602722,
-2.16522,0.605774,
-2.17438,0.601196,
-2.18201,0.608826,
-2.18353,0.610352,
-2.19116,0.604248,
-2.19116,0.610352,
-2.19116,0.602722,
-2.19269,0.608826,
-2.18964,0.614929,
-2.18964,0.595093,
-2.18506,0.611877,
-2.18353,0.59967,
-2.17896,0.608826,
-2.17743,0.613403,
-2.1698,0.605774,
-2.16522,0.608826,
-2.16217,0.601196,
-2.16522,0.608826,
-2.16217,0.611877,
-2.15759,0.6073,
-2.15454,0.608826,
-2.15607,0.602722,
-2.15302,0.608826,
-2.15454,0.614929,
-2.15302,0.605774,
-2.15302,0.6073,
-2.15149,0.604248,
-2.15302,0.611877,
-2.15607,0.613403,
-2.15912,0.602722,
-2.16217,0.6073,
-2.16217,0.608826,
-2.16522,0.610352,
-2.1698,0.614929,
-2.1759,0.605774,
-2.18048,0.6073,
-2.18201,0.604248,
-2.18811,0.608826,
-2.19269,0.617981,
-2.2049,0.608826,
-2.211,0.6073,
-2.22321,0.6073,
-2.22778,0.608826,
-2.23694,0.613403,
-2.24457,0.604248,
-2.25677,0.6073,
-2.25983,0.605774,
-2.26746,0.6073,
-2.27661,0.616455,
-2.28424,0.605774,
-2.29645,0.608826,
-2.3056,0.6073,
-2.31476,0.595093,
-2.32849,0.613403,
-2.33307,0.605774,
-2.3468,0.6073,
-2.35596,0.6073,
-2.36816,0.608826,
-2.37732,0.616455,
-2.388,0.604248,
-2.39716,0.6073,
-2.40479,0.604248,
-2.42157,0.610352,
-2.4353,0.617981,
-2.44293,0.604248,
-2.45514,0.608826,
-2.46429,0.610352,
-2.47498,0.610352,
-2.48718,0.617981,
-2.49786,0.605774,
-2.50549,0.605774,
-2.5116,0.608826,
-2.52075,0.610352,
-2.52533,0.616455,
-2.53143,0.605774,
-2.54364,0.6073,
-2.54974,0.608826,
-2.55737,0.610352,
-2.565,0.619507,
-2.57568,0.604248,
-2.58636,0.610352,
-2.58942,0.610352,
-2.59399,0.611877,
-2.60468,0.619507,
-2.60773,0.608826,
-2.59857,0.611877,
-2.60162,0.611877,
-2.59247,0.611877,
-2.58179,0.619507,
-2.565,0.608826,
-2.54364,0.608826,
-2.52533,0.613403,
-2.49939,0.617981,
-2.46887,0.619507,
-2.43988,0.604248,
-2.40936,0.608826,
-2.37427,0.6073,
-2.34222,0.611877,
-2.30865,0.619507,
-2.27509,0.6073,
-2.24609,0.605774,
-2.21405,0.6073,
-2.18506,0.611877,
-2.15454,0.616455,
-2.12708,0.6073,
-2.10419,0.601196,
-2.08282,0.604248,
-2.06146,0.605774,
-2.04468,0.614929,
-2.02484,0.602722,
-2.01111,0.604248,
-1.9989,0.602722,
-1.98975,0.611877,
-1.98364,0.621033,
-1.97754,0.6073,
-1.96838,0.604248,
-1.96686,0.608826,
-1.96533,0.610352,
-1.96686,0.619507,
-1.96686,0.6073,
-1.96838,0.608826,
-1.96991,0.608826,
-1.97449,0.621033,
-1.97906,0.622559,
-1.98822,0.610352,
-1.99585,0.608826,
-2.00348,0.611877,
-2.00958,0.617981,
-2.02026,0.616455,
-2.02484,0.6073,
-2.034,0.610352,
-2.04315,0.611877,
-2.05383,0.616455,
-2.05841,0.621033,
-2.06909,0.610352,
-2.07367,0.610352,
-2.08588,0.608826,
-2.09351,0.619507,
-2.10419,0.622559,
-2.11029,0.610352,
-2.11639,0.611877,
-2.13013,0.610352,
-2.13928,0.616455,
-2.14539,0.617981,
-2.15302,0.610352,
-2.15759,0.611877,
-2.1698,0.611877,
-2.18048,0.616455,
-2.18811,0.621033,
-2.19574,0.610352,
-2.2049,0.610352,
-2.20795,0.613403,
-2.21405,0.616455,
-2.22015,0.621033,
-2.22321,0.613403,
-2.22626,0.610352,
-2.23083,0.613403,
-2.23236,0.614929,
-2.23999,0.619507,
-2.23999,0.613403,
-2.24457,0.611877,
-2.24457,0.608826,
-2.24762,0.614929,
-2.24915,0.621033,
-2.2522,0.613403,
-2.25525,0.610352,
-2.25983,0.616455,
-2.26135,0.617981,
-2.26135,0.622559,
-2.26593,0.6073,
-2.27051,0.610352,
-2.26593,0.611877,
-2.27051,0.616455,
-2.27203,0.619507,
-2.27203,0.614929,
-2.27356,0.614929,
-2.27203,0.614929,
-2.27356,0.619507,
-2.27661,0.617981,
-2.27966,0.611877,
-2.28424,0.614929,
-2.28424,0.614929,
-2.2934,0.616455,
-2.29645,0.622559,
-2.29797,0.611877,
-2.30103,0.614929,
-2.30865,0.616455,
-2.31018,0.619507,
-2.31323,0.622559,
-2.32086,0.613403,
-2.33154,0.614929,
-2.33917,0.616455,
-2.34833,0.616455,
-2.35291,0.63324,
-2.36053,0.611877,
-2.36359,0.616455,
-2.36969,0.616455,
-2.38037,0.617981,
-2.39563,0.614929,
-2.39868,0.608826,
-2.41394,0.614929,
-2.4231,0.616455,
-2.43073,0.616455,
-2.43683,0.619507,
-2.45056,0.611877,
-2.45667,0.611877,
-2.46582,0.616455,
-2.47803,0.614929,
-2.4826,0.621033,
-2.49329,0.610352,
-2.50092,0.614929,
-2.51312,0.614929,
-2.52075,0.619507,
-2.52838,0.622559,
-2.53296,0.611877,
-2.54059,0.614929,
-2.54974,0.614929,
-2.55585,0.619507,
-2.565,0.621033,
-2.56958,0.614929,
-2.57568,0.616455,
-2.58026,0.617981,
-2.58484,0.616455,
-2.58636,0.621033,
-2.58789,0.610352,
-2.59094,0.616455,
-2.59552,0.619507,
-2.59247,0.621033,
-2.59552,0.624084,
-2.6001,0.611877,
-2.6001,0.617981,
-2.6001,0.617981,
-2.60315,0.621033,
-2.60773,0.622559,
-2.6123,0.614929,
-2.61688,0.617981,
-2.61993,0.619507,
-2.62451,0.622559,
-2.62909,0.619507,
-2.63824,0.616455,
-2.63672,0.614929,
-2.6413,0.619507,
-2.64893,0.621033,
-2.64587,0.624084,
-2.63977,0.617981,
-2.63214,0.617981,
-2.62299,0.613403,
-2.6062,0.619507,
-2.58942,0.62561,
-2.56805,0.614929,
-2.54669,0.617981,
-2.52075,0.614929,
-2.49481,0.621033,
-2.46582,0.621033,
-2.43073,0.614929,
-2.40173,0.621033,
-2.37579,0.614929,
-2.34375,0.617981,
-2.31781,0.62561,
-2.28729,0.621033,
-2.25983,0.616455,
-2.23999,0.611877,
-2.21252,0.616455,
-2.18964,0.62561,
-2.17133,0.616455,
-2.15912,0.617981,
-2.14539,0.608826,
-2.12708,0.621033,
-2.11945,0.621033,
-2.11029,0.617981,
-2.10419,0.614929,
-2.09503,0.622559,
-2.0874,0.621033,
-2.08435,0.62561,
-2.07977,0.617981,
-2.07825,0.616455,
-2.08282,0.611877,
-2.08435,0.622559,
-2.0874,0.637817,
-2.0874,0.617981,
-2.08893,0.611877,
-2.09503,0.6073,
-2.09961,0.619507,
-2.09961,0.62561,
-2.10571,0.617981,
-2.10876,0.616455,
-2.11792,0.614929,
-2.12097,0.621033,
-2.13318,0.624084,
-2.13776,0.619507,
-2.14539,0.617981,
-2.15149,0.610352,
-2.15759,0.619507,
-2.16064,0.622559,
-2.1698,0.619507,
-2.1759,0.617981,
-2.18353,0.611877,
-2.18964,0.622559,
-2.20184,0.622559,
-2.2049,0.624084,
-2.20947,0.617981,
-2.21558,0.610352,
-2.22015,0.617981,
-2.22473,0.628662,
-2.23389,0.628662,
-2.24152,0.617981,
-2.24762,0.6073,
-2.25983,0.619507,
-2.26746,0.62561,
-2.27814,0.624084,
-2.28424,0.608826,
-2.29492,0.614929,
-2.30255,0.621033,
-2.31476,0.621033,
-2.32544,0.617981,
-2.33154,0.616455,
-2.34528,0.613403,
-2.35596,0.621033,
-2.36053,0.616455,
-2.36969,0.621033,
-2.37579,0.611877,
-2.38342,0.611877,
-2.38647,0.619507,
-2.39258,0.62561,
-2.39716,0.619507,
-2.40173,0.614929,
-2.40631,0.614929,
-2.41394,0.617981,
-2.41547,0.621033,
-2.41852,0.619507,
-2.41852,0.616455,
-2.42004,0.611877,
-2.41852,0.619507,
-2.41547,0.628662,
-2.41547,0.617981,
-2.41699,0.616455,
-2.41699,0.613403,
-2.42004,0.622559,
-2.41394,0.622559,
-2.41699,0.619507,
-2.41547,0.610352,
-2.41547,0.614929,
-2.41852,0.621033,
-2.4231,0.62561,
-2.42615,0.621033,
-2.42767,0.617981,
-2.43225,0.614929,
-2.43988,0.621033,
-2.44293,0.624084,
-2.44751,0.622559,
-2.45056,0.617981,
-2.45667,0.616455,
-2.46277,0.622559,
-2.4704,0.627136,
-2.48108,0.621033,
-2.48718,0.619507,
-2.49176,0.614929,
-2.49939,0.624084,
-2.50702,0.621033,
-2.51465,0.619507,
-2.5238,0.619507,
-2.53601,0.619507,
-2.54211,0.624084,
-2.5589,0.62561,
-2.565,0.619507,
-2.57416,0.617981,
-2.58636,0.614929,
-2.59552,0.621033,
-2.6123,0.624084,
-2.61993,0.616455,
-2.63062,0.616455,
-2.64435,0.617981,
-2.65045,0.624084,
-2.66266,0.624084,
-2.67029,0.621033,
-2.67792,0.621033,
-2.6886,0.619507,
-2.70081,0.624084,
-2.71301,0.622559,
-2.72522,0.621033,
-2.73132,0.614929,
-2.74506,0.613403,
-2.75726,0.621033,
-2.76947,0.622559,
-2.77863,0.616455,
-2.78778,0.616455,
-2.79541,0.619507,
-2.80762,0.62561,
-2.81525,0.62561,
-2.82745,0.617981,
-2.83356,0.614929,
-2.84424,0.619507,
-2.84882,0.627136,
-2.85797,0.622559,
-2.86255,0.617981,
-2.8717,0.616455,
-2.87628,0.619507,
-2.88239,0.627136,
-2.89154,0.622559,
-2.89917,0.621033,
-2.90985,0.611877,
-2.91443,0.617981,
-2.91901,0.627136,
-2.92358,0.619507,
-2.92816,0.611877,
-2.92969,0.613403,
-2.92511,0.616455,
-2.91748,0.621033,
-2.90222,0.624084,
-2.89001,0.617981,
-2.87018,0.617981,
-2.84882,0.622559,
-2.8244,0.637817,
-2.79846,0.624084,
-2.76947,0.619507,
-2.73895,0.614929,
-2.70691,0.616455,
-2.67487,0.627136,
-2.64282,0.624084,
-2.60773,0.63324,
-2.57721,0.621033,
-2.54669,0.622559,
-2.5177,0.616455,
-2.48871,0.622559,
-2.46277,0.619507,
-2.43378,0.617981,
-2.41241,0.616455,
-2.39105,0.622559,
-2.37427,0.621033,
-2.36053,0.619507,
-2.3468,0.617981,
-2.33459,0.616455,
-2.32544,0.628662,
-2.31934,0.624084,
-2.31323,0.621033,
-2.30713,0.617981,
-2.30713,0.619507,
-2.3056,0.62561,
-2.30865,0.624084,
-2.31171,0.622559,
-2.31628,0.616455,
-2.32239,0.619507,
-2.32849,0.624084,
-2.33612,0.624084,
-2.34985,0.621033,
-2.35748,0.619507,
-2.36816,0.619507,
-2.37579,0.622559,
-2.3819,0.621033,
-2.3941,0.619507,
-2.40021,0.617981,
-2.40021,0.621033,
-2.40936,0.62561,
-2.41394,0.622559,
-2.42157,0.619507,
-2.42767,0.616455,
-2.4292,0.622559,
-2.43225,0.62561,
-2.44293,0.62561,
-2.44904,0.619507,
-2.45514,0.617981,
-2.46124,0.621033,
-2.46735,0.627136,
-2.47345,0.621033,
-2.47955,0.621033,
-2.48566,0.614929,
-2.49023,0.619507,
-2.49329,0.624084,
-2.49786,0.622559,
-2.50244,0.621033,
-2.50854,0.622559,
-2.51617,0.617981,
-2.52075,0.622559,
-2.53143,0.628662,
-2.53601,0.621033,
-2.54211,0.624084,
-2.54974,0.621033,
-2.55585,0.624084,
-2.55737,0.617981,
-2.56195,0.622559,
-2.565,0.622559,
-2.57111,0.622559,
-2.57568,0.62561,
-2.57568,0.619507,
-2.58026,0.619507,
-2.58484,0.617981,
-2.58942,0.621033,
-2.58942,0.62561,
-2.58789,0.621033,
-2.59247,0.619507,
-2.58636,0.619507,
-2.58942,0.617981,
-2.58942,0.624084,
-2.58942,0.62561,
-2.58942,0.621033,
-2.59094,0.621033,
-2.59094,0.621033,
-2.59094,0.619507,
-2.59552,0.621033,
-2.59094,0.619507,
-2.58942,0.619507,
-2.59399,0.622559,
-2.59552,0.624084,
-2.59705,0.621033,
-2.6001,0.624084,
-2.60468,0.617981,
-2.60773,0.613403,
-2.61078,0.624084,
-2.61841,0.622559,
-2.62451,0.619507,
-2.62909,0.619507,
-2.63367,0.617981,
-2.64282,0.622559,
-2.64893,0.624084,
-2.65198,0.619507,
-2.66113,0.621033,
-2.66876,0.619507,
-2.67639,0.622559,
-2.68402,0.624084,
-2.69165,0.621033,
-2.69775,0.617981,
-2.70386,0.621033,
-2.70691,0.621033,
-2.71301,0.624084,
-2.72064,0.624084,
-2.72675,0.617981,
-2.7298,0.621033,
-2.73743,0.624084,
-2.74506,0.621033,
-2.74811,0.621033,
-2.74963,0.619507,
-2.75726,0.622559,
-2.75726,0.621033,
-2.76337,0.616455,
-2.76489,0.624084,
-2.76794,0.619507,
-2.77405,0.617981,
-2.7771,0.621033,
-2.78015,0.621033,
-2.78168,0.622559,
-2.79083,0.621033,
-2.79541,0.619507,
-2.80151,0.621033,
-2.81067,0.622559,
-2.81525,0.624084,
-2.82135,0.619507,
-2.83051,0.621033,
-2.83661,0.622559,
-2.84271,0.622559,
-2.84882,0.622559,
-2.85645,0.621033,
-2.86255,0.619507,
-2.87018,0.621033,
-2.87476,0.622559,
-2.87781,0.624084,
-2.89001,0.617981,
-2.89154,0.616455,
-2.89612,0.619507,
-2.89917,0.621033,
-2.9068,0.622559,
-2.91138,0.617981,
-2.91443,0.619507,
-2.91595,0.624084,
-2.91901,0.624084,
-2.92358,0.624084,
-2.91901,0.622559,
-2.91443,0.617981,
-2.9007,0.624084,
-2.89154,0.624084,
-2.87933,0.621033,
-2.85492,0.622559,
-2.82898,0.622559,
-2.80151,0.617981,
-2.77557,0.622559,
-2.74506,0.622559,
-2.71301,0.617981,
-2.67487,0.619507,
-2.64435,0.624084,
-2.6062,0.622559,
-2.57111,0.619507,
-2.53754,0.621033,
-2.50854,0.621033,
-2.47803,0.622559,
-2.45209,0.624084,
-2.42767,0.62561,
-2.40021,0.619507,
-2.38037,0.619507,
-2.36206,0.621033,
-2.34833,0.622559,
-2.33612,0.624084,
-2.32697,0.619507,
-2.32086,0.619507,
-2.31476,0.621033,
-2.30865,0.624084,
-2.30713,0.624084,
-2.31018,0.616455,
-2.31171,0.624084,
-2.31171,0.622559,
-2.31781,0.62561,
-2.31628,0.624084,
-2.32086,0.622559,
-2.32239,0.621033,
-2.33002,0.62561,
-2.33917,0.624084,
-2.34375,0.624084,
-2.35291,0.617981,
-2.36206,0.621033,
-2.36816,0.619507,
-2.37579,0.62561,
-2.38342,0.621033,
-2.38953,0.619507,
-2.39563,0.627136,
-2.40173,0.621033,
-2.40936,0.617981,
-2.41089,0.624084,
-2.41547,0.616455,
-2.42004,0.622559,
-2.4292,0.622559,
-2.43683,0.622559,
-2.44446,0.621033,
-2.45056,0.617981,
-2.46124,0.627136,
-2.46582,0.622559,
-2.47345,0.622559,
-2.48566,0.62561,
-2.49176,0.617981,
-2.50244,0.62561,
-2.50854,0.621033,
-2.51923,0.624084,
-2.52838,0.624084,
-2.53906,0.617981,
-2.5528,0.621033,
-2.56042,0.621033,
-2.57111,0.62561,
-2.57568,0.622559,
-2.58484,0.617981,
-2.58942,0.621033,
-2.59857,0.624084,
-2.60468,0.622559,
-2.6123,0.624084,
-2.62299,0.617981,
-2.62604,0.622559,
-2.62756,0.621033,
-2.63367,0.627136,
-2.63672,0.624084,
-2.63824,0.621033,
-2.63519,0.621033,
-2.63672,0.617981,
-2.63519,0.624084,
-2.63824,0.62561,
-2.63672,0.616455,
-2.63519,0.622559,
-2.63672,0.621033,
-2.63367,0.627136,
-2.63672,0.622559,
-2.63672,0.614929,
-2.63519,0.621033,
-2.63824,0.622559,
-2.63977,0.62561,
-2.63672,0.622559,
-2.63824,0.616455,
-2.63519,0.621033,
-2.63519,0.62561,
-2.63824,0.627136,
-2.6413,0.62561,
-2.64282,0.617981,
-2.65045,0.616455,
-2.6535,0.62561,
-2.6535,0.624084,
-2.65656,0.624084,
-2.66418,0.616455,
-2.66571,0.619507,
-2.67029,0.617981,
-2.67334,0.622559,
-2.67639,0.628662,
-2.67792,0.616455,
-2.68402,0.619507,
-2.68402,0.613403,
-2.6886,0.62561,
-2.69318,0.616455,
-2.69623,0.617981,
-2.69928,0.624084,
-2.69928,0.62561,
-2.70386,0.627136,
-2.70081,0.613403,
-2.70996,0.616455,
-2.71301,0.619507,
-2.71759,0.622559,
-2.71759,0.621033,
-2.72522,0.622559,
-2.7298,0.614929,
