-1.90277,1.38702,
-1.92108,1.39008,
-1.93634,1.3916,
-1.9516,1.3916,
-1.96686,1.38855,
-1.97601,1.38855,
-1.99127,1.39313,
-2.00653,1.39313,
-2.01416,1.3855,
-2.02484,1.39008,
-2.03247,1.38702,
-2.0401,1.3916,
-2.04315,1.39008,
-2.04926,1.39008,
-2.05383,1.3855,
-2.05994,1.39008,
-2.07214,1.39313,
-2.07367,1.39771,
-2.0813,1.39008,
-2.08588,1.3855,
-2.09503,1.39008,
-2.10266,1.39618,
-2.10876,1.3916,
-2.11792,1.39008,
-2.13013,1.38855,
-2.14233,1.3916,
-2.14996,1.3916,
-2.16064,1.39008,
-2.1698,1.3916,
-2.17285,1.38855,
-2.1759,1.38855,
-2.17743,1.3916,
-2.17743,1.39313,
-2.17743,1.38855,
-2.16827,1.38702,
-2.15759,1.39008,
-2.14386,1.41296,
-2.12097,1.39313,
-2.09198,1.39313,
-2.06146,1.3855,
-2.03094,1.39008,
-1.99127,1.39618,
-1.9516,1.40076,
-1.90735,1.3916,
-1.86462,1.38702,
-1.81885,1.38855,
-1.77002,1.39008,
-1.71814,1.39313,
-1.67084,1.39313,
-1.61438,1.38855,
-1.5625,1.39313,
-1.50604,1.39771,
-1.45416,1.39313,
-1.39923,1.3916,
-1.3443,1.38855,
-1.29395,1.3916,
-1.24359,1.39771,
-1.18866,1.39618,
-1.14136,1.39313,
-1.09253,1.3855,
-1.04675,1.38855,
-1.00708,1.39618,
-0.965881,1.39618,
-0.930786,1.3916,
-0.891113,1.38245,
-0.857544,1.39313,
-0.830078,1.39771,
-0.802612,1.39313,
-0.778198,1.39313,
-0.750732,1.39008,
-0.735474,1.39008,
-0.718689,1.39923,
-0.701904,1.39618,
-0.691223,1.39771,
-0.674438,1.39008,
-0.665283,1.38702,
-0.650024,1.39313,
-0.637817,1.39771,
-0.63324,1.39618,
-0.624084,1.38855,
-0.616455,1.39618,
-0.613403,1.39618,
-0.605774,1.39771,
-0.601196,1.39313,
-0.601196,1.39008,
-0.593567,1.39008,
-0.595093,1.39618,
-0.596619,1.39771,
-0.595093,1.39313,
-0.596619,1.39313,
-0.596619,1.39313,
-0.59967,1.39923,
-0.604248,1.40076,
-0.608826,1.39771,
-0.616455,1.3916,
-0.628662,1.3916,
-0.63324,1.39771,
-0.646973,1.39923,
-0.657654,1.39771,
-0.666809,1.3916,
-0.675964,1.39313,
-0.686646,1.40076,
-0.694275,1.39923,
-0.700378,1.39618,
-0.717163,1.3916,
-0.727844,1.39618,
-0.733948,1.39771,
-0.749207,1.39923,
-0.752258,1.40076,
-0.762939,1.3916,
-0.767517,1.39618,
-0.775146,1.40076,
-0.790405,1.40228,
-0.794983,1.40381,
-0.808716,1.3916,
-0.814819,1.39618,
-0.819397,1.40228,
-0.827026,1.40228,
-0.83313,1.40076,
-0.834656,1.39313,
-0.836182,1.39923,
-0.834656,1.40076,
-0.836182,1.40076,
-0.831604,1.39771,
-0.827026,1.39313,
-0.822449,1.39771,
-0.819397,1.39923,
-0.819397,1.40533,
-0.817871,1.39923,
-0.814819,1.39923,
-0.819397,1.39923,
-0.822449,1.40533,
-0.828552,1.40076,
-0.83313,1.40228,
-0.840759,1.39771,
-0.849915,1.40076,
-0.85907,1.40228,
-0.869751,1.40381,
-0.88501,1.40686,
-0.898743,1.39923,
-0.914001,1.40381,
-0.926208,1.40533,
-0.942993,1.40686,
-0.958252,1.40381,
-0.973511,1.39618,
-0.990295,1.41602,
-1.00708,1.40686,
-1.02081,1.40381,
-1.03912,1.40381,
-1.06049,1.40381,
-1.07727,1.40533,
-1.09711,1.40533,
-1.11237,1.40076,
-1.1322,1.40381,
-1.15356,1.39771,
-1.16577,1.40228,
-1.18713,1.40686,
-1.20697,1.40686,
-1.22528,1.40686,
-1.24664,1.40381,
-1.26648,1.40076,
-1.28632,1.40381,
-1.31226,1.40381,
-1.33209,1.40839,
-1.35803,1.40381,
-1.38245,1.40076,
-1.40228,1.40839,
-1.42517,1.40991,
-1.44348,1.40381,
-1.46484,1.40381,
-1.48163,1.40533,
-1.50146,1.40991,
-1.51672,1.40381,
-1.53046,1.40839,
-1.55029,1.40533,
-1.5686,1.40686,
-1.58539,1.41602,
-1.6037,1.40686,
-1.62201,1.40686,
-1.63574,1.40533,
-1.6571,1.40839,
-1.67542,1.40686,
-1.69067,1.41449,
-1.71051,1.40839,
-1.72729,1.40381,
-1.74713,1.40686,
-1.76392,1.40839,
-1.77917,1.41602,
-1.80206,1.40533,
-1.81885,1.40076,
-1.83563,1.40839,
-1.85242,1.40991,
-1.8631,1.41144,
-1.88141,1.41296,
-1.90277,1.40686,
-1.91956,1.41144,
-1.93787,1.41144,
-1.95313,1.41144,
-1.97296,1.41602,
-1.98822,1.40533,
-2.00195,1.40991,
-2.02179,1.41602,
-2.0401,1.41144,
-2.05383,1.41602,
-2.07062,1.40991,
-2.0813,1.40533,
-2.0874,1.41602,
-2.10266,1.41449,
-2.11029,1.41449,
-2.11487,1.40991,
-2.12097,1.41296,
-2.11945,1.41907,
-2.11945,1.41602,
-2.11182,1.41296,
-2.10571,1.41144,
-2.09198,1.41449,
-2.07672,1.42059,
-2.05536,1.41754,
-2.02637,1.41296,
-2.00043,1.41144,
-1.96686,1.41602,
-1.93024,1.41754,
-1.88599,1.41754,
-1.84479,1.41754,
-1.79901,1.40991,
-1.74866,1.41296,
-1.6983,1.41602,
-1.64642,1.41907,
-1.59454,1.41907,
-1.53809,1.40991,
-1.4801,1.41449,
-1.41907,1.41754,
-1.35956,1.41907,
-1.3031,1.41754,
-1.24664,1.40991,
-1.18713,1.41907,
-1.13068,1.41754,
-1.0788,1.41907,
-1.02539,1.41907,
-0.976563,1.41449,
-0.933838,1.41907,
-0.888062,1.42212,
-0.846863,1.41907,
-0.810242,1.42059,
-0.773621,1.41907,
-0.740051,1.41907,
-0.712585,1.42212,
-0.68512,1.42059,
-0.660706,1.42059,
-0.636292,1.41754,
-0.621033,1.41754,
-0.601196,1.42517,
-0.58136,1.42212,
-0.570679,1.42212,
-0.553894,1.41449,
-0.540161,1.42059,
-0.532532,1.42517,
-0.520325,1.42822,
-0.511169,1.42059,
-0.50354,1.41907,
-0.495911,1.41907,
-0.494385,1.42365,
-0.494385,1.42365,
-0.492859,1.42365,
-0.491333,1.41907,
-0.494385,1.42517,
-0.495911,1.42365,
-0.505066,1.42517,
-0.505066,1.42365,
-0.518799,1.41907,
-0.521851,1.42212,
-0.52948,1.42365,
-0.538635,1.43127,
-0.552368,1.42212,
-0.563049,1.42059,
-0.575256,1.42365,
-0.582886,1.42822,
-0.601196,1.42822,
-0.613403,1.42517,
-0.621033,1.42212,
-0.628662,1.42975,
-0.637817,1.42975,
-0.646973,1.42975,
-0.660706,1.42975,
-0.666809,1.42212,
-0.679016,1.42059,
-0.683594,1.43127,
-0.695801,1.43127,
-0.706482,1.43127,
-0.717163,1.42365,
-0.727844,1.42365,
-0.732422,1.4328,
-0.743103,1.43127,
-0.747681,1.42517,
-0.758362,1.41907,
-0.759888,1.42517,
-0.769043,1.44348,
-0.772095,1.42975,
-0.776672,1.4328,
-0.782776,1.42517,
-0.788879,1.42517,
-0.796509,1.42975,
-0.798035,1.4328,
-0.802612,1.43585,
-0.802612,1.42975,
-0.808716,1.42975,
-0.811768,1.42822,
-0.822449,1.4328,
-0.820923,1.43127,
-0.831604,1.42365,
-0.831604,1.43127,
-0.837708,1.43585,
-0.843811,1.43433,
-0.849915,1.43127,
-0.862122,1.42822,
-0.871277,1.4328,
-0.88501,1.43738,
-0.898743,1.42822,
-0.909424,1.42975,
-0.924683,1.42975,
-0.938416,1.43585,
-0.949097,1.43433,
-0.961304,1.43127,
-0.978088,1.43433,
-0.993347,1.43127,
-1.00403,1.4328,
-1.02539,1.43585,
-1.04218,1.43585,
-1.05743,1.43433,
-1.07727,1.43127,
-1.09711,1.4328,
-1.11847,1.43738,
-1.13373,1.43585,
-1.15662,1.4328,
-1.17493,1.42975,
-1.19476,1.43433,
-1.21765,1.4389,
-1.23749,1.43585,
-1.25732,1.43738,
-1.28174,1.43433,
-1.30157,1.4389,
-1.32141,1.42975,
-1.34277,1.43585,
-1.36719,1.43585,
-1.3855,1.42975,
-1.41144,1.43585,
-1.43433,1.44196,
-1.45569,1.43433,
-1.4801,1.44501,
-1.49689,1.43127,
-1.52588,1.4328,
-1.55029,1.43585,
-1.57471,1.4389,
-1.59454,1.4389,
-1.62048,1.42822,
-1.64032,1.44043,
-1.66016,1.43738,
-1.67847,1.43585,
-1.69983,1.44043,
-1.72119,1.43585,
-1.73798,1.43585,
-1.76086,1.43585,
-1.77765,1.44043,
-1.79596,1.43738,
-1.81122,1.4328,
-1.83258,1.43738,
-1.84479,1.44043,
-1.86157,1.43738,
-1.87988,1.44043,
-1.89667,1.43738,
-1.91345,1.43738,
-1.92719,1.44196,
-1.93787,1.44501,
-1.95465,1.4389,
-1.97296,1.4328,
-1.98517,1.4389,
-2.00348,1.44043,
-2.01874,1.44043,
-2.034,1.44043,
-2.05078,1.43585,
-2.06909,1.4389,
-2.0874,1.44043,
-2.10571,1.44043,
-2.11945,1.44043,
-2.1286,1.43738,
-2.13623,1.43738,
-2.14386,1.44043,
-2.14386,1.44348,
-2.14233,1.44043,
-2.13928,1.4389,
-2.13318,1.44196,
-2.12097,1.44043,
-2.10266,1.4389,
-2.08282,1.44043,
-2.05994,1.43585,
-2.03094,1.44196,
-1.99585,1.44348,
-1.95618,1.44196,
-1.91193,1.4389,
-1.86768,1.43585,
-1.81885,1.43738,
-1.77002,1.44196,
-1.72119,1.44501,
-1.66931,1.44348,
-1.61285,1.43738,
-1.56708,1.44043,
-1.50604,1.44348,
-1.45416,1.44196,
-1.40228,1.44501,
-1.35193,1.4389,
-1.29852,1.44043,
-1.24817,1.44348,
-1.19934,1.44501,
-1.15509,1.44043,
-1.11389,1.4389,
-1.06049,1.44196,
-1.02386,1.44501,
-0.98114,1.44653,
-0.942993,1.44348,
-0.909424,1.44196,
-0.878906,1.44043,
-0.849915,1.44348,
-0.822449,1.44348,
-0.798035,1.44501,
-0.775146,1.44196,
-0.752258,1.44196,
-0.732422,1.44348,
-0.718689,1.44653,
-0.70343,1.44348,
-0.692749,1.43585,
-0.680542,1.44043,
-0.674438,1.44806,
-0.665283,1.44806,
-0.65918,1.44348,
-0.653076,1.44043,
-0.650024,1.44501,
-0.650024,1.44653,
-0.65155,1.44501,
-0.65155,1.44958,
-0.656128,1.4389,
-0.662231,1.44348,
-0.671387,1.44653,
-0.67749,1.44653,
-0.689697,1.44653,
-0.70343,1.43738,
-0.709534,1.44348,
-0.720215,1.44653,
-0.738525,1.44501,
-0.753784,1.44348,
-0.769043,1.44043,
-0.785828,1.44348,
-0.802612,1.44653,
-0.814819,1.44806,
-0.827026,1.44348,
-0.843811,1.44043,
-0.85907,1.44196,
-0.872803,1.44348,
-0.88501,1.44806,
-0.897217,1.44348,
-0.909424,1.44348,
-0.915527,1.4389,
-0.927734,1.44653,
-0.933838,1.44958,
-0.938416,1.44348,
-0.942993,1.44043,
-0.946045,1.44348,
-0.946045,1.44501,
-0.944519,1.4389,
-0.952148,1.44348,
-0.950623,1.43433,
-0.953674,1.4389,
-0.950623,1.44958,
-0.950623,1.44501,
-0.950623,1.44501,
-0.953674,1.44043,
-0.958252,1.45264,
-0.961304,1.44806,
-0.965881,1.44501,
-0.967407,1.44196,
-0.973511,1.44196,
-0.976563,1.44653,
-0.976563,1.44653,
-0.98114,1.44806,
-0.987244,1.44806,
-0.991821,1.44196,
-0.996399,1.44348,
-1.00708,1.44501,
-1.01013,1.44806,
-1.01624,1.44958,
-1.02234,1.44043,
-1.03302,1.44653,
-1.0376,1.44958,
-1.0498,1.44806,
-1.05591,1.44653,
-1.06506,1.44501,
-1.08032,1.44348,
-1.09253,1.44806,
-1.10779,1.44653,
-1.11694,1.44653,
-1.1322,1.44501,
-1.14441,1.44501,
-1.16119,1.44958,
-1.17645,1.44958,
-1.19324,1.44348,
-1.21002,1.4389,
-1.22681,1.44501,
-1.24207,1.44501,
-1.2619,1.45264,
-1.28326,1.44653,
-1.30005,1.44043,
-1.32141,1.44348,
-1.33514,1.44501,
-1.35803,1.44806,
-1.38092,1.43738,
-1.40076,1.4389,
-1.41602,1.44501,
-1.42975,1.45111,
-1.44806,1.44806,
-1.4679,1.44806,
-1.48315,1.44348,
-1.49536,1.44348,
-1.51062,1.44501,
-1.5274,1.44653,
-1.53961,1.44653,
-1.55792,1.44196,
-1.57471,1.44348,
-1.59912,1.44653,
-1.61743,1.44958,
-1.63727,1.44653,
-1.65558,1.45874,
-1.66931,1.44348,
-1.6922,1.44958,
-1.70593,1.45111,
-1.72577,1.44501,
-1.74408,1.44196,
-1.76544,1.44653,
-1.7807,1.44653,
-1.79901,1.44653,
-1.81274,1.44653,
-1.83716,1.44348,
-1.85394,1.44501,
-1.87225,1.44806,
-1.89667,1.45111,
-1.9165,1.44348,
-1.93634,1.44043,
-1.95923,1.44501,
-1.98212,1.44653,
-2.00806,1.44958,
-2.02179,1.44806,
-2.0401,1.44043,
-2.06146,1.44653,
-2.07214,1.44501,
-2.08893,1.44806,
-2.09961,1.44348,
-2.10419,1.43585,
-2.10571,1.44348,
-2.10419,1.44958,
-2.09351,1.44653,
-2.08588,1.44958,
-2.07672,1.44196,
-2.05231,1.44348,
-2.03094,1.44501,
-2.00195,1.44958,
-1.97144,1.44653,
-1.93939,1.44501,
-1.89972,1.44501,
-1.85394,1.44958,
-1.81274,1.44653,
-1.76239,1.44501,
-1.70898,1.44196,
-1.66321,1.44348,
-1.6098,1.44806,
-1.55487,1.44958,
-1.50146,1.44653,
-1.44806,1.44348,
-1.39465,1.44348,
-1.3443,1.44501,
-1.29547,1.44653,
-1.24054,1.44806,
-1.19324,1.44196,
-1.14899,1.44501,
-1.10321,1.44806,
-1.06201,1.44958,
-1.02081,1.44653,
-0.978088,1.44196,
-0.942993,1.44501,
-0.914001,1.45569,
-0.880432,1.44348,
-0.854492,1.44653,
-0.83313,1.4389,
-0.80719,1.44348,
-0.787354,1.44653,
-0.767517,1.44806,
-0.753784,1.44653,
-0.747681,1.42517,
-0.732422,1.44501,
-0.724792,1.44501,
-0.717163,1.44653,
-0.71106,1.44958,
-0.706482,1.4389,
-0.701904,1.44196,
-0.700378,1.44653,
-0.698853,1.44806,
-0.700378,1.44501,
-0.704956,1.44043,
-0.708008,1.44348,
-0.71106,1.44958,
-0.718689,1.44806,
-0.720215,1.44196,
-0.727844,1.44043,
-0.735474,1.44043,
-0.744629,1.44806,
-0.75531,1.44348,
-0.770569,1.44196,
-0.78125,1.44348,
-0.790405,1.44348,
-0.802612,1.44348,
-0.811768,1.4389,
-0.820923,1.4328,
-0.83313,1.4389,
-0.843811,1.44348,
-0.856018,1.44196,
-0.863647,1.44653,
-0.872803,1.44501,
-0.880432,1.4389,
-0.886536,1.44348,
-0.892639,1.44653,
-0.900269,1.44501,
-0.907898,1.44348,
-0.912476,1.43585,
-0.921631,1.44043,
-0.923157,1.44501,
-0.926208,1.44501,
-0.930786,1.44501,
-0.933838,1.4389,
-0.93689,1.44043,
-0.938416,1.44348,
-0.941467,1.44806,
-0.938416,1.44348,
-0.942993,1.43738,
-0.942993,1.4389,
-0.946045,1.44501,
-0.947571,1.44501,
-0.952148,1.44348,
-0.950623,1.43738,
-0.9552,1.44196,
-0.959778,1.44348,
-0.961304,1.44653,
-0.968933,1.44348,
-0.971985,1.44043,
-0.98114,1.4389,
-0.984192,1.44043,
-0.996399,1.44196,
-1.00403,1.44196,
-1.01471,1.4389,
-1.02386,1.44043,
-1.03455,1.44348,
-1.04523,1.44653,
-1.05591,1.44043,
-1.06812,1.43738,
-1.08032,1.4389,
-1.08948,1.44196,
-1.10474,1.44348,
-1.11847,1.4389,
-1.13373,1.4389,
-1.14746,1.44043,
-1.16425,1.44501,
-1.18408,1.44196,
-1.20087,1.44196,
-1.22375,1.44043,
-1.24207,1.44196,
-1.2619,1.44653,
-1.28326,1.44043,
-1.3031,1.44348,
-1.32599,1.43738,
-1.3443,1.43738,
-1.35956,1.44501,
-1.38397,1.44348,
-1.39923,1.4389,
-1.41754,1.4389,
-1.4328,1.44196,
-1.45416,1.44348,
-1.46942,1.44348,
-1.48773,1.43433,
-1.50604,1.4389,
-1.52588,1.44043,
-1.54572,1.44501,
-1.5686,1.44196,
-1.58539,1.44196,
-1.60522,1.43738,
-1.62354,1.43738,
-1.63879,1.44653,
-1.66321,1.44348,
-1.67542,1.44196,
-1.6922,1.44043,
-1.70898,1.4389,
-1.72729,1.44348,
-1.74255,1.44653,
-1.76239,1.4389,
-1.77917,1.43585,
-1.80054,1.43738,
-1.8158,1.4389,
-1.83868,1.44196,
-1.85547,1.4389,
-1.87378,1.43585,
-1.89362,1.44043,
-1.9104,1.44501,
-1.92719,1.44196,
-1.94397,1.4389,
-1.96228,1.43738,
-1.97906,1.44043,
-1.98975,1.44043,
-2.00653,1.44043,
-2.01721,1.44196,
-2.02484,1.43738,
-2.03552,1.43433,
-2.0401,1.44348,
-2.04163,1.44043,
-2.04163,1.43738,
-2.03552,1.43433,
-2.02026,1.43738,
-2.005,1.44196,
-1.98212,1.44043,
-1.95465,1.43738,
-1.92719,1.4328,
-1.88904,1.44043,
-1.85394,1.44348,
-1.81427,1.44196,
-1.77155,1.44043,
-1.72729,1.44043,
-1.67847,1.43585,
-1.63116,1.44501,
-1.57471,1.44196,
-1.52435,1.44043,
-1.47247,1.43433,
-1.42059,1.4328,
-1.36566,1.44196,
-1.31378,1.44196,
-1.26495,1.43738,
-1.21918,1.4328,
-1.17188,1.4389,
-1.12305,1.44196,
-1.08032,1.43738,
-1.03912,1.43433,
-0.996399,1.43433,
-0.959778,1.43738,
-0.926208,1.44043,
-0.898743,1.44043,
-0.868225,1.44196,
-0.837708,1.43433,
-0.811768,1.43585,
-0.788879,1.44196,
-0.769043,1.43738,
-0.749207,1.44043,
-0.727844,1.43585,
-0.714111,1.43433,
-0.697327,1.44043,
-0.682068,1.44043,
-0.669861,1.44196,
-0.660706,1.42975,
-0.646973,1.43738,
-0.639343,1.4389,
-0.636292,1.44196,
-0.628662,1.4389,
-0.62561,1.43585,
-0.62561,1.43738,
-0.617981,1.44196,
-0.614929,1.43738,
-0.613403,1.43585,
-0.617981,1.4328,
-0.622559,1.4328,
-0.627136,1.4389,
-0.634766,1.44043,
-0.642395,1.43585,
-0.648499,1.43127,
-0.657654,1.43585,
-0.665283,1.4389,
-0.674438,1.43738,
-0.682068,1.44043,
-0.694275,1.4328,
-0.708008,1.4389,
-0.715637,1.44043,
-0.732422,1.43433,
-0.741577,1.43585,
-0.753784,1.43127,
-0.767517,1.43585,
-0.78125,1.43738,
-0.798035,1.4389,
-0.80719,1.44043,
-0.813293,1.4328,
-0.827026,1.43585,
-0.831604,1.44043,
-0.83313,1.43738,
-0.840759,1.43585,
-0.845337,1.43127,
-0.856018,1.4328,
-0.862122,1.4389,
-0.865173,1.45264,
-0.866699,1.42975,
-0.871277,1.42975,
-0.87738,1.43585,
-0.881958,1.43585,
-0.886536,1.43738,
-0.889587,1.43585,
-0.897217,1.42975,
-0.901794,1.43433,
-0.914001,1.43433,
-0.915527,1.43585,
-0.923157,1.43585,
-0.933838,1.43127,
-0.944519,1.42975,
-0.950623,1.4389,
-0.959778,1.4389,
-0.968933,1.42975,
-0.984192,1.42975,
-0.993347,1.4328,
-1.00708,1.43738,
-1.01776,1.43433,
-1.03302,1.43585,
-1.04218,1.42822,
-1.05743,1.43127,
-1.07117,1.43433,
-1.08337,1.43585,
-1.09711,1.43433,
-1.11084,1.42517,
-1.12915,1.42822,
-1.14594,1.43585,
-1.16272,1.4389,
-1.18256,1.43433,
-1.19781,1.42975,
-1.2207,1.4328,
-1.24359,1.4389,
-1.26343,1.4328,
-1.28326,1.43433,
-1.3092,1.43127,
-1.33057,1.4328,
-1.35193,1.4328,
-1.37329,1.4328,
-1.39618,1.4328,
-1.41754,1.43585,
-1.44043,1.43127,
-1.46332,1.43585,
-1.48621,1.43127,
-1.50757,1.43433,
-1.5274,1.42517,
-1.54419,1.42822,
-1.5686,1.43433,
-1.59149,1.43738,
-1.61133,1.43738,
-1.63269,1.42517,
-1.65405,1.43127,
-1.67694,1.43433,
-1.6983,1.4328,
-1.72119,1.43127,
-1.7395,1.43127,
-1.76239,1.4328,
-1.78528,1.43433,
-1.80817,1.43585,
-1.82953,1.4328,
-1.85242,1.42365,
-1.87225,1.42365,
-1.89056,1.43738,
-1.91193,1.4328,
-1.92413,1.4328,
-1.94702,1.42365,
-1.96838,1.42822,
-1.98364,1.4328,
-2.00348,1.4328,
-2.02026,1.42822,
-2.03857,1.42059,
-2.05536,1.42822,
-2.0752,1.4328,
-2.09351,1.43127,
-2.11029,1.43127,
-2.13013,1.42517,
-2.14844,1.42975,
-2.16064,1.4328,
-2.1759,1.4328,
-2.18964,1.4328,
-2.20337,1.42365,
-2.20947,1.42517,
-2.22015,1.42975,
-2.21863,1.43585,
-2.21558,1.43127,
-2.20947,1.42365,
-2.20337,1.42822,
-2.18811,1.43127,
-2.16522,1.4328,
-2.14386,1.43127,
-2.11639,1.42517,
-2.08282,1.42975,
-2.0462,1.43127,
-2.01569,1.42975,
-1.97906,1.4328,
-1.94244,1.42517,
-1.89819,1.42517,
-1.86157,1.42517,
-1.81732,1.42822,
-1.77612,1.42975,
-1.73645,1.42517,
-1.6922,1.42822,
-1.65405,1.43127,
-1.60828,1.42975,
-1.57013,1.42517,
-1.53046,1.42212,
-1.48926,1.42822,
-1.45569,1.43127,
-1.41449,1.42975,
-1.37787,1.43127,
-1.33972,1.42517,
-1.30615,1.41754,
-1.27869,1.42517,
-1.24054,1.42975,
-1.21002,1.42975,
-1.18408,1.42975,
-1.15509,1.42212,
-1.12915,1.42517,
-1.10779,1.42975,
-1.08643,1.42975,
-1.06812,1.42212,
-1.0498,1.42212,
-1.02692,1.4328,
-1.01776,1.43433,
-1.00403,1.43127,
-0.991821,1.42517,
-0.98114,1.42975,
-0.975037,1.42975,
-0.968933,1.42822,
-0.959778,1.42975,
-0.9552,1.42365,
-0.9552,1.42517,
-0.950623,1.42975,
-0.949097,1.42975,
-0.949097,1.4328,
-0.947571,1.42212,
-0.947571,1.42212,
-0.947571,1.43433,
-0.952148,1.42975,
-0.9552,1.42975,
-0.964355,1.41907,
-0.970459,1.42517,
-0.979614,1.4328,
-0.987244,1.42212,
-0.993347,1.42822,
-1.00555,1.42059,
-1.01166,1.42059,
-1.02234,1.42517,
-1.02692,1.42822,
-1.0376,1.42212,
-1.04523,1.42517,
-1.05438,1.42059,
-1.06812,1.42822,
-1.0788,1.42365,
-1.091,1.41449,
-1.09863,1.41449,
-1.11237,1.42365,
-1.11694,1.42975,
-1.12762,1.42822,
-1.13373,1.42975,
-1.14288,1.41296,
-1.15051,1.42365,
-1.15814,1.42365,
-1.17035,1.42517,
-1.18103,1.42212,
-1.18866,1.41907,
-1.19629,1.42517,
-1.20087,1.42975,
-1.2085,1.42365,
-1.2146,1.42517,
-1.22528,1.41754,
-1.23291,1.42212,
-1.24207,1.42822,
-1.24359,1.42365,
-1.2558,1.42822,
-1.25885,1.42059,
-1.27411,1.42059,
-1.28479,1.42822,
-1.29089,1.42822,
-1.30157,1.42059,
-1.31378,1.42059,
-1.32599,1.42212,
-1.33514,1.43127,
-1.34888,1.42059,
-1.35956,1.42059,
-1.37024,1.41907,
-1.38245,1.42212,
-1.39618,1.42212,
-1.41754,1.42517,
-1.4267,1.42059,
-1.44043,1.42059,
-1.45416,1.41907,
-1.46637,1.42212,
-1.48468,1.42517,
-1.50146,1.42059,
-1.51825,1.41449,
-1.53809,1.41754,
-1.55792,1.42365,
-1.57318,1.42822,
-1.59454,1.41907,
-1.61438,1.42059,
-1.63422,1.41907,
-1.65405,1.42822,
-1.67542,1.42059,
-1.69678,1.42059,
-1.71509,1.41907,
-1.7334,1.41907,
-1.75171,1.42517,
-1.77002,1.42059,
-1.78528,1.42517,
-1.80511,1.41602,
-1.82037,1.41754,
-1.84021,1.42517,
-1.85852,1.42212,
-1.87378,1.42822,
-1.88751,1.41754,
-1.90125,1.41602,
-1.91498,1.42517,
-1.92413,1.42212,
-1.93787,1.41907,
-1.9516,1.41754,
-1.96686,1.41907,
-1.97906,1.42975,
-1.98822,1.42365,
-2.005,1.43585,
-2.01569,1.41754,
-2.03094,1.41754,
-2.04468,1.42212,
-2.05994,1.41754,
-2.0752,1.41907,
-2.09198,1.41449,
-2.10419,1.41754,
-2.11639,1.42365,
-2.13318,1.42212,
-2.14691,1.41907,
-2.1637,1.41602,
-2.17896,1.42059,
-2.19116,1.41907,
-2.211,1.41907,
-2.22626,1.41602,
-2.24304,1.41449,
-2.26135,1.41754,
-2.27509,1.42059,
-2.29187,1.41907,
-2.31018,1.41907,
-2.32849,1.41754,
-2.34375,1.41602,
-2.35443,1.42365,
-2.36969,1.42212,
-2.3819,1.41907,
-2.39258,1.41296,
-2.39868,1.41602,
-2.40631,1.42059,
-2.41089,1.41907,
-2.41241,1.41754,
-2.41089,1.41296,
-2.40326,1.41754,
-2.39105,1.42365,
-2.37427,1.42059,
-2.35596,1.41754,
-2.33154,1.41144,
-2.30255,1.41449,
-2.28271,1.41754,
-2.25372,1.41754,
-2.22168,1.41907,
-2.19269,1.41754,
-2.16064,1.41907,
-2.13318,1.41907,
-2.09656,1.41907,
-2.06146,1.41754,
-2.02637,1.41144,
-1.9928,1.41449,
-1.9577,1.41907,
-1.92719,1.42212,
-1.88904,1.41144,
-1.85547,1.41144,
-1.81732,1.41449,
-1.78986,1.41754,
-1.75781,1.41907,
-1.72424,1.41754,
-1.69525,1.41296,
-1.66473,1.41449,
-1.63727,1.42059,
-1.60675,1.41907,
-1.58386,1.41907,
-1.56097,1.41449,
-1.53961,1.41144,
-1.52435,1.41296,
-1.50299,1.41754,
-1.48773,1.41602,
-1.47705,1.41296,
-1.46332,1.41296,
-1.45264,1.42365,
-1.43433,1.41907,
-1.43127,1.41449,
-1.41907,1.40991,
-1.40533,1.41449,
-1.39923,1.41449,
-1.3916,1.41907,
-1.38702,1.41754,
-1.38092,1.41144,
-1.37787,1.41296,
-1.37024,1.41602,
-1.37024,1.41907,
-1.36566,1.41754,
-1.36871,1.40839,
-1.36719,1.41144,
-1.36566,1.41754,
-1.37177,1.42059,
-1.37939,1.41602,
-1.3855,1.40991,
-1.39313,1.41296,
-1.40381,1.41907,
-1.41144,1.41296,
-1.42212,1.41602,
-1.43433,1.40381,
-1.44958,1.41602,
-1.45721,1.41754,
-1.46637,1.41602,
-1.48163,1.41754,
-1.49078,1.41144,
-1.50452,1.41144,
-1.51825,1.41602,
-1.53046,1.41907,
-1.54114,1.41907,
-1.55487,1.40991,
-1.56097,1.40076,
-1.57623,1.41602,
-1.58997,1.41602,
-1.6037,1.41449,
-1.61896,1.41144,
-1.62354,1.41144,
-1.62811,1.41907,
-1.63422,1.41449,
-1.63879,1.41296,
-1.6449,1.41144,
-1.65253,1.41449,
-1.65558,1.41296,
-1.66016,1.41449,
-1.66321,1.41144,
-1.66626,1.40991,
-1.66931,1.40991,
-1.67847,1.41296,
-1.68152,1.41602,
-1.69373,1.40991,
-1.69678,1.40533,
-1.70898,1.41144,
-1.71204,1.41449,
-1.71814,1.41754,
-1.72729,1.41449,
-1.7334,1.40991,
-1.74713,1.41449,
-1.75476,1.41296,
-1.76392,1.40839,
-1.77612,1.41144,
-1.78375,1.40533,
-1.79291,1.40991,
-1.80054,1.41449,
-1.81274,1.41449,
-1.82037,1.41602,
-1.83258,1.40686,
-1.85089,1.40991,
-1.86462,1.41907,
-1.87836,1.40991,
-1.89514,1.41144,
-1.90887,1.40991,
-1.92719,1.40991,
-1.9455,1.41449,
-1.96228,1.41296,
-1.97906,1.40991,
-1.99738,1.40839,
-2.01263,1.40839,
-2.02637,1.41449,
-2.03552,1.41296,
-2.05383,1.40991,
-2.07214,1.40533,
-2.08435,1.40991,
-2.10266,1.40533,
-2.11334,1.41602,
-2.12555,1.40991,
-2.14233,1.40381,
-2.14844,1.40686,
-2.16217,1.41449,
-2.18201,1.41296,
-2.20184,1.40381,
-2.21558,1.40991,
-2.22778,1.40686,
-2.24304,1.41602,
-2.25983,1.41296,
-2.27509,1.41449,
-2.28882,1.40839,
-2.3056,1.40839,
-2.32239,1.41144,
-2.34222,1.41144,
-2.35596,1.41144,
-2.37427,1.40381,
-2.39105,1.40686,
-2.40936,1.41144,
-2.42615,1.41449,
-2.43988,1.41296,
-2.46124,1.40381,
-2.48108,1.40839,
-2.49176,1.40686,
-2.51312,1.40991,
-2.52533,1.40839,
-2.53906,1.40228,
-2.55737,1.40839,
-2.57416,1.41449,
-2.59094,1.41144,
-2.60925,1.40991,
-2.62756,1.40533,
-2.65045,1.40991,
-2.66724,1.41296,
-2.68707,1.41296,
-2.70081,1.40839,
-2.71454,1.40228,
-2.72827,1.40686,
-2.742,1.40991,
-2.76031,1.40991,
-2.771,1.40686,
-2.79083,1.40076,
-2.80762,1.40839,
-2.82745,1.40839,
-2.84119,1.41144,
-2.85645,1.40686,
-2.87018,1.40228,
-2.87933,1.40686,
-2.89459,1.40991,
-2.90375,1.40991,
-2.90833,1.40686,
-2.91443,1.40076,
-2.91595,1.40533,
-2.91138,1.41144,
-2.90375,1.40991,
-2.89154,1.40686,
-2.87628,1.40228,
-2.8595,1.40533,
-2.83813,1.41144,
-2.81677,1.40686,
-2.79541,1.40686,
-2.76642,1.40076,
-2.73438,1.40533,
-2.70538,1.41144,
-2.67029,1.40991,
-2.63672,1.40686,
-2.60162,1.39923,
-2.56805,1.40839,
-2.53754,1.40991,
-2.50092,1.40686,
-2.46887,1.40533,
-2.43378,1.40533,
-2.40631,1.40533,
-2.37427,1.40533,
-2.3407,1.40686,
-2.30865,1.40839,
-2.27661,1.40533,
-2.24304,1.40533,
-2.2171,1.39771,
-2.19574,1.40533,
-2.1698,1.40839,
-2.14539,1.39923,
-2.1225,1.40533,
-2.09961,1.41296,
-2.07367,1.40076,
-2.05688,1.42822,
-2.03857,1.40076,
-2.02332,1.40381,
-2.01111,1.40839,
-2.00043,1.40686,
-1.98822,1.40686,
-1.98059,1.39923,
-1.97144,1.40381,
-1.96381,1.40533,
-1.95465,1.40839,
-1.94855,1.40839,
-1.94397,1.39771,
-1.94702,1.40228,
-1.9455,1.40533,
-1.9455,1.40686,
-1.94855,1.40381,
-1.94702,1.40076,
-1.94855,1.40381,
-1.94702,1.40991,
-1.94702,1.40839,
-1.9516,1.40533,
-1.95618,1.40228,
-1.95618,1.40228,
-1.95923,1.40686,
-1.96533,1.40533,
-1.96991,1.40228,
-1.97144,1.40533,
-1.97754,1.40533,
-1.98059,1.40228,
-1.98364,1.40381,
-1.98822,1.40381,
-1.98822,1.39771,
-1.98822,1.40076,
-1.98669,1.40686,
-1.98975,1.40686,
-1.98975,1.40381,
-1.99127,1.39771,
-1.99127,1.40381,
-1.98822,1.40533,
-1.98364,1.40533,
-1.97754,1.40228,
-1.97449,1.39771,
-1.96991,1.40228,
-1.96381,1.40991,
-1.96228,1.40381,
-1.95313,1.40686,
-1.95313,1.39313,
-1.94702,1.39923,
-1.94855,1.40533,
-1.94855,1.40381,
-1.94855,1.39923,
-1.94855,1.39618,
-1.95313,1.39923,
-1.95618,1.40686,
-1.96533,1.40533,
-1.96533,1.40381,
-1.97449,1.39618,
-1.98212,1.3916,
-1.98822,1.40381,
-1.99585,1.40381,
-1.9989,1.40228,
-2.00806,1.39923,
-2.01416,1.40076,
-2.02179,1.40381,
-2.03094,1.40228,
-2.03857,1.40076,
-2.04773,1.39771,
-2.05383,1.40076,
-2.06604,1.40381,
-2.07367,1.40533,
-2.07672,1.40381,
-2.0874,1.39618,
-2.09656,1.41449,
-2.11029,1.39618,
-2.12097,1.40533,
-2.1347,1.40228,
-2.14386,1.39313,
-2.15454,1.40076,
-2.16827,1.40228,
-2.17438,1.40381,
-2.19116,1.39618,
-2.2049,1.3916,
-2.21863,1.39771,
-2.23083,1.40381,
-2.24304,1.40381,
-2.25677,1.40228,
-2.27051,1.39618,
-2.28424,1.39771,
-2.29645,1.40228,
-2.30865,1.40228,
-2.32086,1.39771,
-2.33307,1.39618,
-2.34528,1.39771,
-2.35901,1.40381,
-2.37427,1.40381,
-2.39105,1.39771,
-2.40173,1.39923,
-2.41699,1.39771,
-2.43225,1.39923,
-2.45056,1.40381,
-2.45819,1.40228,
-2.47192,1.39618,
-2.48413,1.39923,
-2.49329,1.40076,
-2.50549,1.40381,
-2.51923,1.39923,
-2.52686,1.3916,
-2.53448,1.39771,
-2.54822,1.40228,
-2.55737,1.40381,
-2.56805,1.39923,
-2.58026,1.39008,
-2.58789,1.40076,
-2.60162,1.40381,
-2.61536,1.39313,
-2.62756,1.40076,
-2.63977,1.38702,
-2.65656,1.39923,
-2.66876,1.40228,
-2.69012,1.39771,
-2.70081,1.41602,
-2.71759,1.40076,
-2.73285,1.39618,
-2.74353,1.40228,
-2.76337,1.40076,
-2.7832,1.39923,
-2.79541,1.39771,
-2.81067,1.39618,
-2.82288,1.41907,
-2.83813,1.40228,
-2.85187,1.39618,
-2.86713,1.3916,
-2.87781,1.39618,
-2.89154,1.40228,
-2.90222,1.40076,
-2.91901,1.39771,
-2.93579,1.3916,
-2.94952,1.39313,
-2.96326,1.39923,
-2.97546,1.40228,
-2.9892,1.39618,
-3.00446,1.39771,
-3.01514,1.39618,
-3.02887,1.40228,
-3.03802,1.40533,
-3.04871,1.39618,
-3.05481,1.3916,
-3.07159,1.39313,
-3.07617,1.40228,
-3.08685,1.39923,
-3.09601,1.40076,
-3.09753,1.3916,
-3.09906,1.39618,
-3.09143,1.39923,
-3.0838,1.39618,
-3.07465,1.39771,
-3.06244,1.39008,
-3.04565,1.39313,
-3.0304,1.39771,
-3.00751,1.39923,
-2.98004,1.40228,
-2.9541,1.3916,
-2.93121,1.3916,
-2.90222,1.39923,
-2.87323,1.40228,
-2.84424,1.39618,
-2.81372,1.39313,
-2.78015,1.39923,
-2.75269,1.40076,
-2.71912,1.39923,
-2.69165,1.39923,
-2.66113,1.39313,
-2.63519,1.39618,
-2.60468,1.40381,
-2.58026,1.39771,
-2.5528,1.39618,
-2.52686,1.39313,
-2.49634,1.39313,
-2.46735,1.39618,
-2.44598,1.40076,
-2.42462,1.38855,
-2.40021,1.3916,
-2.37885,1.39008,
-2.36511,1.39618,
-2.34833,1.39923,
-2.33154,1.39008,
-2.31781,1.39923,
-2.30255,1.39313,
-2.29492,1.39771,
-2.28729,1.39618,
-2.27814,1.40076,
-2.27051,1.3855,
-2.26288,1.39618,
-2.25372,1.39923,
-2.24915,1.41602,
-2.24304,1.39618,
-2.23999,1.39008,
-2.23236,1.39313,
-2.22778,1.40076,
-2.22626,1.39618,
-2.22626,1.39008,
-2.22626,1.39008,
-2.22473,1.39313,
-2.22168,1.39923,
-2.22015,1.39618,
-2.22168,1.39618,
-2.22321,1.3916,
-2.22168,1.38855,
-2.22626,1.39923,
-2.22626,1.39771,
-2.22778,1.3916,
-2.23236,1.38702,
-2.23389,1.3916,
-2.23389,1.39618,
-2.23389,1.39313,
-2.23694,1.39313,
-2.24304,1.38855,
-2.24304,1.3916,
-2.24762,1.39313,
-2.24609,1.39618,
-2.24457,1.39008,
-2.24609,1.38397,
-2.24152,1.39313,
-2.23694,1.39771,
-2.23083,1.40076,
-2.23236,1.3916,
-2.22931,1.38702,
-2.22626,1.39618,
-2.22321,1.39771,
-2.22168,1.3916,
-2.22015,1.39618,
-2.21405,1.39313,
-2.21558,1.39313,
-2.2171,1.40076,
-2.21405,1.39618,
-2.21405,1.39618,
-2.21252,1.38855,
-2.21252,1.38702,
-2.20642,1.39771,
-2.2049,1.39923,
-2.20337,1.39313,
-2.2049,1.3916,
-2.2049,1.39008,
-2.20337,1.39923,
-2.20184,1.39313,
-2.20184,1.38855,
-2.19879,1.38855,
-2.19727,1.3916,
-2.19727,1.39771,
-2.19727,1.39618,
-2.19879,1.39313,
-2.20184,1.38855,
-2.20947,1.39008,
-2.211,1.38855,
-2.2171,1.3916,
-2.22015,1.3916,
-2.22321,1.38855,
-2.23236,1.3916,
-2.23694,1.39313,
-2.24304,1.39923,
-2.25372,1.39618,
-2.25983,1.3855,
-2.26746,1.38855,
-2.27509,1.3916,
-2.28424,1.39313,
-2.29034,1.39008,
-2.30255,1.38702,
-2.31476,1.39008,
-2.32239,1.39313,
-2.33307,1.3916,
-2.3468,1.3916,
-2.35443,1.38702,
-2.36816,1.39008,
-2.38037,1.39618,
-2.388,1.39618,
-2.40021,1.39618,
-2.41089,1.3855,
-2.41852,1.38855,
-2.43225,1.39313,
-2.43988,1.3916,
-2.45056,1.38855,
-2.46277,1.3855,
-2.47498,1.39008,
-2.48108,1.3916,
-2.49329,1.3916,
-2.50397,1.39008,
-2.51617,1.38397,
-2.52686,1.38702,
-2.53601,1.39618,
-2.5528,1.39771,
-2.56805,1.38855,
-2.58026,1.38855,
-2.59247,1.38702,
-2.6062,1.39008,
-2.61688,1.38855,
-2.63062,1.39008,
-2.63519,1.38855,
-2.64893,1.38855,
-2.65961,1.3916,
-2.67181,1.39313,
-2.67639,1.38397,
-2.69012,1.38397,
-2.70081,1.38702,
-2.70996,1.3916,
-2.72217,1.3916,
-2.73438,1.38855,
-2.742,1.38855,
-2.75574,1.40533,
-2.76489,1.38855,
-2.77557,1.38855,
-2.78625,1.39008,
-2.79388,1.38702,
-2.80609,1.38702,
-2.81219,1.38702,
-2.82288,1.3916,
-2.83051,1.38855,
-2.84119,1.38397,
-2.84576,1.3855,
-2.85492,1.38855,
-2.86102,1.3916,
-2.87018,1.3916,
-2.87781,1.3855,
-2.88391,1.39008,
-2.89307,1.39618,
-2.9007,1.38702,
-2.90527,1.38397,
-2.9129,1.38702,
-2.92511,1.38702,
-2.92816,1.3916,
-2.93732,1.3916,
-2.95105,1.37329,
-2.96021,1.3855,
-2.97394,1.39008,
-2.98309,1.3855,
-2.9892,1.38702,
-3.0014,1.39008,
-3.00751,1.38397,
-3.01514,1.37634,
-3.01819,1.39008,
-3.01819,1.39313,
-3.01208,1.3916,
-3.00598,1.38397,
-2.99683,1.39008,
-2.98004,1.39313,
-2.96783,1.39618,
-2.948,1.38702,
-2.92664,1.38397,
-2.90375,1.38702,
-2.87781,1.39313,
-2.85645,1.38855,
-2.83356,1.38702,
-2.80151,1.38092,
-2.7771,1.38397,
-2.74963,1.39313,
-2.72675,1.38855,
-2.69928,1.3916,
-2.67792,1.3855,
-2.65503,1.38245,
-2.63062,1.3916,
-2.61078,1.3855,
-2.58942,1.38855,
-2.56653,1.38397,
-2.54059,1.3855,
-2.5238,1.3916,
-2.50244,1.39008,
-2.4826,1.37482,
-2.46124,1.37787,
-2.43988,1.3855,
-2.42462,1.38855,
-2.40631,1.3916,
-2.38953,1.38702,
-2.37427,1.38092,
-2.35443,1.38397,
-2.34222,1.39008,
-2.33002,1.38855,
-2.32239,1.38855,
-2.31018,1.38245,
-2.30103,1.38245,
-2.2934,1.39008,
-2.28424,1.39313,
-2.27814,1.38702,
-2.27356,1.38092,
-2.26135,1.3855,
-2.2583,1.38702,
-2.24915,1.38855,
-2.24304,1.38702,
-2.23389,1.3855,
-2.23236,1.38702,
-2.22626,1.38855,
-2.22321,1.38702,
-2.21558,1.3855,
-2.21252,1.37939,
-2.21252,1.38245,
-2.20795,1.38855,
-2.20795,1.38702,
-2.20795,1.39008,
-2.20642,1.38092,
-2.20947,1.38397,
-2.21252,1.38702,
-2.21558,1.38702,
-2.21558,1.3855,
-2.2171,1.38092,
-2.21558,1.38245,
-2.22168,1.39008,
-2.22626,1.38702,
-2.23083,1.38245,
-2.23694,1.38245,
-2.23846,1.38245,
-2.24304,1.3916,
-2.24457,1.38855,
-2.24762,1.3855,
-2.25372,1.38397,
-2.25525,1.3855,
-2.25983,1.38397,
-2.25983,1.38702,
-2.2583,1.38245,
-2.26135,1.37939,
-2.25983,1.39008,
-2.25983,1.3916,
-2.25983,1.39008,
-2.26135,1.3855,
-2.26288,1.37939,
-2.25677,1.3855,
-2.25525,1.3916,
-2.25677,1.38702,
-2.25372,1.38702,
-2.25525,1.38092,
-2.25525,1.37939,
-2.25677,1.39008,
-2.26135,1.39008,
-2.26288,1.38702,
-2.27203,1.38245,
-2.27509,1.38092,
-2.27966,1.38702,
-2.28424,1.38855,
-2.29492,1.38855,
-2.2995,1.38245,
-2.3056,1.38245,
-2.31171,1.38855,
-2.31781,1.3855,
-2.32697,1.3855,
-2.33459,1.38092,
-2.34222,1.38702,
-2.34985,1.38855,
-2.35596,1.38702,
-2.36511,1.3855,
-2.37427,1.3855,
-2.3819,1.38397,
-2.388,1.38855,
-2.39563,1.39008,
-2.40631,1.38397,
-2.41699,1.38092,
-2.42767,1.3855,
-2.43988,1.38855,
-2.45361,1.38397,
-2.46429,1.38245,
-2.47498,1.37939,
-2.49023,1.37634,
-2.50244,1.38397,
-2.51617,1.38092,
-2.53296,1.39008,
-2.54822,1.38092,
-2.56653,1.3855,
-2.58636,1.3855,
-2.60468,1.3855,
-2.62604,1.38702,
-2.64893,1.37329,
-2.66724,1.38092,
-2.68555,1.3855,
-2.70844,1.38702,
-2.72675,1.38397,
-2.74353,1.37939,
-2.76642,1.37939,
-2.78778,1.38855,
-2.80762,1.38397,
-2.8244,1.3855,
-2.83966,1.37939,
-2.86102,1.38397,
-2.87933,1.38702,
-2.89307,1.38702,
-2.90833,1.37939,
-2.92511,1.38245,
-2.93579,1.38245,
-2.94647,1.3855,
-2.95563,1.3855,
-2.96631,1.3855,
-2.97699,1.38245,
-2.98157,1.38092,
-2.98615,1.3855,
-2.9953,1.3855,
-2.99835,1.3855,
-3.00598,1.38092,
-3.01208,1.38245,
-3.01971,1.38702,
-3.02429,1.38855,
-3.03497,1.38397,
-3.04108,1.37787,
-3.04718,1.38397,
-3.05481,1.38702,
-3.06549,1.38397,
-3.07465,1.38397,
-3.08075,1.38092,
-3.0899,1.38702,
-3.10059,1.38855,
-3.11279,1.37787,
-3.12347,1.38702,
-3.13416,1.37634,
-3.14178,1.38092,
-3.14789,1.38855,
-3.15704,1.38245,
-3.16467,1.38702,
-3.17078,1.38092,
-3.17078,1.38092,
-3.17993,1.38702,
-3.18604,1.38702,
-3.19061,1.38397,
-3.19214,1.38092,
-3.19061,1.38397,
-3.19061,1.38397,
-3.18451,1.38397,
-3.17383,1.38245,
-3.1601,1.37939,
-3.14789,1.37939,
-3.12347,1.38397,
-3.10211,1.38855,
-3.0777,1.38702,
-3.04871,1.37939,
-3.02277,1.37939,
-2.9892,1.38245,
-2.96021,1.38855,
-2.92816,1.3855,
-2.89917,1.37634,
-2.8656,1.38092,
-2.83051,1.38397,
-2.79999,1.3855,
-2.771,1.38397,
-2.73743,1.37939,
-2.70844,1.38397,
-2.67944,1.38702,
-2.6535,1.37787,
-2.62756,1.37329,
-2.60315,1.37634,
-2.57416,1.38397,
-2.5589,1.38855,
-2.53754,1.38245,
-2.52075,1.3855,
-2.49939,1.37482,
-2.48413,1.38092,
-2.46429,1.38397,
-2.44598,1.38855,
-2.43378,1.38702,
-2.41699,1.37787,
-2.40021,1.38397,
-2.38647,1.3855,
-2.37427,1.38702,
-2.36359,1.38245,
-2.35291,1.37634,
-2.3468,1.38092,
-2.33917,1.3855,
-2.33002,1.37939,
-2.32697,1.3855,
-2.31934,1.38092,
-2.31476,1.37787,
-2.30865,1.38855,
-2.31018,1.38702,
-2.30255,1.38397,
-2.30103,1.37939,
-2.29645,1.38245,
-2.29492,1.3855,
-2.2934,1.38702,
-2.28577,1.38092,
-2.28577,1.37939,
-2.27814,1.38092,
-2.27509,1.3855,
-2.27661,1.38702,
-2.27356,1.3855,
-2.27661,1.37634,
-2.27966,1.38397,
-2.28119,1.3855,
-2.28577,1.38397,
-2.28882,1.38092,
-2.28729,1.38092,
-2.29034,1.38245,
-2.28729,1.37329,
-2.2934,1.38702,
-2.29645,1.38702,
-2.30103,1.37634,
-2.3056,1.37939,
-2.30865,1.38397,
-2.31171,1.3855,
-2.31781,1.37939,
-2.31781,1.37939,
-2.32086,1.37939,
-2.32239,1.3855,
-2.32544,1.38397,
-2.32544,1.38092,
-2.32544,1.37634,
-2.32697,1.38092,
-2.32544,1.3855,
-2.32849,1.38397,
-2.32544,1.38397,
-2.32849,1.37634,
-2.32697,1.38092,
-2.32849,1.38245,
-2.32544,1.38245,
-2.32544,1.38245,
-2.32544,1.37634,
-2.32697,1.38245,
-2.32697,1.38855,
-2.33002,1.38092,
-2.33307,1.38092,
-2.33307,1.37634,
-2.33459,1.37787,
-2.34528,1.38397,
-2.34528,1.38855,
-2.34985,1.38397,
-2.35291,1.37634,
-2.35443,1.38397,
-2.35596,1.38397,
-2.36206,1.38397,
-2.36053,1.38245,
-2.36816,1.37634,
-2.36969,1.37939,
-2.37732,1.3855,
-2.38342,1.38245,
-2.39258,1.38245,
-2.40173,1.37634,
-2.41394,1.37634,
-2.41852,1.3855,
-2.43073,1.38245,
-2.43988,1.38397,
-2.45209,1.37787,
-2.46277,1.37939,
-2.47345,1.3855,
-2.4826,1.38092,
-2.50092,1.37939,
-2.51312,1.37482,
-2.5238,1.38092,
-2.53906,1.38397,
-2.55432,1.3855,
-2.56958,1.37939,
-2.58179,1.37634,
-2.59552,1.37939,
-2.60925,1.38092,
-2.62451,1.3855,
-2.63367,1.37939,
-2.65198,1.37787,
-2.66418,1.38092,
-2.67639,1.38397,
-2.68707,1.3855,
-2.70081,1.38245,
-2.71149,1.37482,
-2.72369,1.37634,
-2.73743,1.38245,
-2.75269,1.38245,
-2.76642,1.38245,
-2.77557,1.37482,
-2.78778,1.38245,
-2.79694,1.38397,
-2.80457,1.38397,
-2.81677,1.37329,
-2.8244,1.37787,
-2.83356,1.37482,
-2.84119,1.38092,
-2.85645,1.38397,
-2.86407,1.38245,
-2.87476,1.37634,
-2.87933,1.37939,
-2.89154,1.37939,
-2.90222,1.37939,
-2.9129,1.38245,
-2.91748,1.37787,
-2.92664,1.37939,
-2.93427,1.3855,
-2.93732,1.38245,
-2.94495,1.38092,
-2.948,1.37329,
-2.94952,1.37939,
-2.95563,1.38397,
-2.96326,1.38702,
-2.97089,1.37939,
-2.98004,1.37939,
-2.99377,1.37787,
-2.99377,1.38245,
-3.00446,1.38397,
-3.01208,1.37939,
-3.02124,1.37329,
-3.02887,1.38092,
-3.03497,1.38245,
-3.0426,1.3855,
-3.04565,1.38092,
-3.05023,1.37482,
-3.05634,1.37634,
-3.06244,1.38092,
-3.06396,1.38245,
-3.06702,1.37787,
-3.06396,1.37482,
-3.05786,1.37939,
-3.05176,1.38397,
-3.03955,1.38092,
-3.02734,1.37939,
-3.01208,1.37939,
-2.99072,1.38092,
-2.97394,1.37634,
-2.95105,1.38245,
-2.92358,1.38397,
-2.89612,1.37329,
-2.86407,1.37634,
-2.83203,1.38245,
-2.79999,1.38245,
-2.771,1.37787,
-2.73743,1.37482,
-2.70538,1.37787,
-2.67487,1.38702,
-2.64893,1.38397,
-2.61841,1.38245,
-2.59552,1.37329,
-2.565,1.39618,
-2.53601,1.37939,
-2.5116,1.38092,
-2.48871,1.38092,
-2.46124,1.37634,
-2.43988,1.37634,
-2.42157,1.38397,
-2.40021,1.39008,
-2.3819,1.37634,
-2.36664,1.37634,
-2.35596,1.37939,
-2.34222,1.38092,
-2.32849,1.38092,
-2.31323,1.38245,
-2.30103,1.37177,
-2.29187,1.38092,
-2.28271,1.38245,
-2.27509,1.37939,
-2.27051,1.37787,
-2.2644,1.37329,
-2.26135,1.37939,
-2.25983,1.38245,
-2.25677,1.38397,
-2.25067,1.38092,
-2.25372,1.37482,
-2.24762,1.37787,
-2.24152,1.38245,
-2.24152,1.38245,
-2.23694,1.38092,
-2.23236,1.38092,
-2.23083,1.37634,
-2.22168,1.38397,
-2.2171,1.3855,
-2.2171,1.38092,
-2.21252,1.37329,
-2.211,1.37787,
-2.20337,1.3855,
-2.2049,1.38245,
-2.20642,1.37634,
-2.20947,1.37634,
-2.21252,1.37787,
-2.2171,1.37634,
-2.22015,1.39771,
-2.22168,1.38245,
-2.22473,1.37634,
-2.22626,1.37939,
-2.22778,1.38245,
-2.22931,1.38092,
-2.22931,1.37939,
-2.23694,1.37177,
-2.23999,1.37787,
-2.24152,1.38092,
-2.24304,1.38397,
-2.23999,1.37939,
-2.23999,1.37329,
-2.23999,1.38092,
-2.23999,1.38245,
-2.24152,1.38092,
-2.24304,1.38092,
-2.24304,1.37939,
-2.23999,1.37787,
-2.23846,1.38092,
-2.23999,1.37939,
-2.23846,1.38397,
-2.23999,1.37329,
-2.23999,1.37787,
-2.24152,1.38245,
-2.24304,1.38092,
-2.24609,1.38092,
-2.24609,1.37634,
-2.24762,1.37939,
-2.24609,1.38702,
-2.24915,1.37329,
-2.25372,1.37787,
-2.25677,1.37634,
-2.26288,1.37634,
-2.26593,1.38245,
-2.27051,1.38092,
-2.27814,1.37787,
-2.28424,1.37634,
-2.28729,1.37634,
-2.29645,1.37939,
-2.2995,1.37939,
-2.30255,1.37939,
-2.30865,1.37482,
-2.31323,1.37787,
-2.31628,1.37939,
-2.32239,1.38245,
-2.33307,1.37939,
-2.3407,1.36871,
-2.35138,1.37787,
-2.35748,1.37939,
-2.36511,1.37634,
-2.37427,1.37939,
-2.38495,1.37177,
-2.3941,1.37939,
-2.40021,1.38092,
-2.41241,1.37787,
-2.4231,1.37787,
-2.43073,1.37482,
-2.43683,1.37482,
-2.44446,1.3855,
-2.44751,1.38397,
-2.45514,1.37787,
-2.46429,1.37482,
-2.4704,1.37634,
-2.48108,1.38092,
-2.49329,1.37634,
-2.50092,1.37787,
-2.51312,1.37482,
-2.52533,1.37329,
-2.53448,1.37634,
-2.54822,1.38092,
-2.5589,1.37634,
-2.56653,1.37787,
-2.58179,1.37329,
-2.59247,1.38092,
-2.6001,1.37939,
-2.61841,1.37634,
-2.62756,1.37482,
-2.63824,1.37787,
-2.65045,1.37939,
-2.66571,1.38092,
-2.67944,1.37787,
-2.68707,1.37177,
-2.70081,1.37634,
-2.70844,1.37939,
-2.72064,1.37939,
-2.73285,1.37787,
-2.73743,1.37329,
-2.74811,1.37482,
-2.75879,1.38092,
-2.76794,1.38245,
-2.7771,1.37482,
-2.78778,1.37177,
-2.79999,1.37177,
-2.80762,1.38092,
-2.82288,1.37939,
-2.82898,1.37634,
-2.84119,1.37024,
-2.84882,1.37482,
-2.86255,1.38092,
-2.86865,1.38245,
-2.87781,1.37482,
-2.88239,1.36414,
-2.89307,1.37329,
-2.90222,1.38092,
-2.90527,1.37787,
-2.91595,1.37482,
-2.91901,1.37177,
-2.91748,1.37787,
-2.92053,1.37634,
-2.91901,1.37787,
-2.9129,1.37939,
-2.9007,1.37329,
-2.88544,1.37634,
-2.8717,1.37482,
-2.85187,1.37634,
-2.82898,1.37329,
-2.80304,1.36719,
-2.77557,1.37482,
-2.74658,1.37939,
-2.71454,1.38092,
-2.68555,1.37787,
-2.65808,1.37482,
-2.62756,1.37634,
-2.59399,1.37939,
-2.56042,1.37634,
-2.53448,1.37634,
-2.50244,1.37024,
-2.47345,1.37634,
-2.44293,1.37939,
-2.41394,1.37939,
-2.388,1.38092,
-2.36053,1.38397,
-2.33917,1.37177,
-2.31323,1.37939,
-2.29492,1.37634,
-2.28119,1.37329,
-2.26288,1.37024,
-2.2522,1.37482,
-2.24152,1.37634,
-2.23083,1.37939,
-2.22473,1.37634,
-2.2171,1.37329,
-2.20947,1.37329,
-2.20184,1.37787,
-2.19727,1.38092,
-2.19116,1.36719,
-2.18658,1.37482,
-2.18811,1.37482,
-2.18811,1.37634,
-2.19116,1.37634,
-2.19116,1.37634,
-2.19116,1.37177,
-2.19421,1.37329,
-2.19879,1.37939,
-2.19879,1.37329,
-2.19879,1.36719,
-2.20184,1.37024,
-2.2049,1.37482,
-2.19727,1.37787,
-2.20337,1.37634,
-2.20184,1.37634,
-2.20337,1.37177,
-2.20337,1.39008,
-2.20337,1.37939,
-2.20337,1.37634,
-2.20337,1.37482,
-2.20795,1.37024,
-2.21252,1.37177,
-2.21863,1.37787,
-2.22168,1.38245,
-2.22626,1.37787,
-2.23236,1.36871,
-2.23236,1.37482,
-2.24152,1.37787,
-2.24609,1.37634,
-2.24762,1.37177,
-2.2522,1.37024,
-2.26135,1.37329,
-2.2583,1.37787,
-2.25983,1.37482,
-2.25983,1.37329,
-2.2583,1.37177,
-2.2583,1.37329,
-2.2583,1.37939,
-2.2583,1.37634,
-2.25677,1.37329,
-2.2583,1.37024,
-2.2583,1.37177,
-2.2583,1.37787,
-2.25677,1.37939,
-2.26288,1.3855,
-2.25983,1.37024,
-2.25525,1.37329,
-2.25372,1.37787,
-2.25372,1.37939,
-2.24762,1.37329,
-2.24609,1.37024,
-2.24152,1.37329,
-2.23999,1.37787,
-2.23389,1.37329,
-2.23389,1.37482,
-2.23083,1.37024,
-2.22778,1.37634,
-2.22778,1.37634,
-2.22931,1.37482,
-2.23389,1.37939,
-2.23083,1.37024,
-2.23236,1.37177,
-2.23846,1.37939,
-2.24457,1.37634,
-2.24762,1.37482,
-2.25067,1.37177,
-2.2522,1.37177,
-2.25983,1.39618,
-2.26593,1.37024,
-2.27203,1.36871,
-2.27661,1.36719,
-2.28119,1.37329,
-2.28577,1.37787,
-2.29034,1.37787,
-2.29492,1.37177,
-2.2995,1.36871,
-2.30103,1.37177,
-2.31323,1.37482,
-2.31628,1.37482,
-2.31934,1.37329,
-2.32697,1.37024,
-2.33154,1.37329,
-2.34222,1.37482,
-2.34985,1.37939,
-2.35901,1.37329,
-2.36664,1.36719,
-2.37579,1.37177,
-2.38495,1.37634,
-2.3941,1.37787,
-2.40021,1.37634,
-2.41089,1.36719,
-2.41852,1.37177,
-2.42767,1.37634,
-2.43683,1.37482,
-2.44446,1.37024,
-2.45667,1.36719,
-2.46887,1.37024,
-2.48413,1.37329,
-2.49634,1.37787,
-2.50702,1.37329,
-2.52075,1.36871,
-2.53296,1.37177,
-2.54364,1.37787,
-2.55737,1.37482,
-2.56653,1.37482,
-2.58026,1.36719,
-2.59247,1.37024,
-2.59552,1.37787,
-2.60162,1.37634,
-2.60315,1.37177,
-2.6123,1.36871,
-2.62299,1.36871,
-2.63062,1.37482,
-2.63367,1.37482,
-2.6413,1.37329,
-2.64893,1.36871,
-2.65503,1.36261,
-2.66113,1.37634,
-2.66571,1.37482,
-2.66724,1.37177,
-2.67029,1.36719,
-2.67334,1.37177,
-2.67334,1.37482,
-2.67181,1.37634,
-2.66418,1.37482,
-2.65503,1.36871,
-2.6413,1.37177,
-2.62604,1.37329,
-2.6062,1.37329,
-2.58636,1.37329,
-2.5589,1.36719,
-2.53143,1.37482,
-2.50244,1.37634,
-2.47192,1.37177,
-2.43835,1.37634,
-2.40479,1.37024,
-2.36969,1.37024,
-2.33307,1.37482,
-2.29492,1.37482,
-2.2644,1.37634,
-2.22931,1.37024,
-2.19574,1.37177,
-2.15912,1.37482,
-2.12708,1.37634,
-2.09198,1.37634,
-2.06146,1.36871,
-2.02637,1.37024,
-1.9928,1.37634,
-1.96686,1.37482,
-1.93481,1.37024,
-1.9104,1.36566,
-1.88599,1.36871,
-1.85547,1.37482,
-1.83716,1.37177,
-1.80817,1.36719,
-1.78223,1.36719,
-1.76239,1.37177,
-1.73798,1.37329,
-1.72119,1.37482,
-1.70288,1.37024,
-1.68304,1.36566,
-1.66779,1.37177,
-1.65405,1.37177,
-1.63574,1.37634,
-1.62048,1.37482,
-1.60217,1.36566,
-1.58997,1.36261,
-1.57623,1.37634,
-1.5686,1.37024,
-1.5564,1.37482,
-1.54877,1.36414,
-1.53961,1.37329,
-1.53656,1.37482,
-1.53351,1.37329,
-1.53046,1.37634,
-1.52893,1.36871,
-1.52435,1.36414,
-1.52283,1.37024,
-1.52588,1.37482,
-1.5274,1.37329,
-1.52893,1.36414,
-1.52893,1.36871,
-1.52893,1.39008,
-1.53351,1.36871,
-1.53198,1.37024,
-1.53198,1.36566,
-1.53046,1.37024,
-1.53046,1.37634,
-1.53198,1.37329,
-1.52893,1.37024,
-1.52893,1.36719,
-1.53046,1.37177,
-1.53046,1.37024,
-1.5274,1.37787,
-1.53046,1.37177,
-1.52893,1.36719,
-1.52893,1.36871,
-1.52435,1.37329,
-1.5213,1.37482,
-1.5213,1.36566,
-1.51215,1.35956,
-1.50604,1.37024,
-1.50604,1.37329,
-1.50299,1.37329,
-1.49994,1.37634,
-1.50299,1.36719,
-1.50146,1.36871,
-1.50146,1.37329,
-1.50146,1.37634,
-1.49536,1.37024,
-1.49078,1.36566,
-1.48621,1.36871,
-1.48468,1.37329,
-1.48163,1.37177,
-1.4801,1.37177,
-1.4801,1.37024,
-1.47552,1.37024,
-1.474,1.36719,
-1.474,1.37177,
-1.4801,1.36871,
-1.4801,1.36414,
-1.48315,1.37024,
-1.48621,1.37329,
-1.48773,1.37329,
-1.49231,1.37024,
-1.49536,1.36414,
-1.49994,1.37024,
-1.50452,1.37024,
-1.50757,1.37177,
-1.5152,1.36719,
-1.51978,1.36566,
-1.52893,1.36871,
-1.53961,1.37634,
-1.54877,1.37177,
-1.55792,1.37024,
-1.56403,1.36871,
-1.57318,1.37787,
-1.57928,1.36871,
-1.58997,1.37482,
-1.59607,1.37177,
-1.6037,1.36566,
-1.6098,1.37024,
-1.62506,1.37329,
-1.63574,1.37177,
-1.64642,1.35956,
-1.65863,1.36719,
-1.66779,1.36871,
-1.68304,1.37024,
-1.69525,1.37177,
-1.70593,1.37024,
-1.71814,1.36566,
-1.72729,1.36871,
-1.73798,1.36261,
-1.75018,1.37024,
-1.76392,1.36871,
-1.77307,1.36414,
-1.78986,1.37024,
-1.80054,1.37482,
-1.81122,1.37329,
-1.82648,1.36719,
-1.83258,1.37177,
-1.84784,1.37024,
-1.86005,1.37482,
-1.87531,1.37329,
-1.88293,1.37177,
-1.89819,1.36566,
-1.90735,1.36719,
-1.91193,1.36871,
-1.93024,1.37024,
-1.93481,1.37024,
-1.9455,1.36261,
-1.95465,1.37024,
-1.96686,1.36871,
-1.97601,1.37482,
-1.98975,1.37024,
-2.00195,1.36261,
-2.01263,1.37024,
-2.02026,1.37329,
-2.03552,1.37177,
-2.0462,1.37177,
-2.05841,1.36871,
-2.06757,1.36871,
-2.07825,1.38397,
-2.08282,1.37024,
-2.08893,1.37024,
-2.09045,1.36414,
-2.09656,1.36566,
-2.09045,1.37787,
-2.08435,1.37634,
-2.07367,1.37024,
-2.05994,1.35956,
-2.04163,1.37024,
-2.01874,1.37329,
-1.98975,1.37177,
-1.96533,1.36871,
-1.93024,1.36566,
-1.89514,1.37177,
-1.86005,1.37482,
-1.82495,1.37329,
-1.7807,1.37329,
-1.74255,1.36566,
-1.70135,1.36566,
-1.66168,1.37024,
-1.61896,1.37329,
-1.57928,1.37177,
-1.53809,1.37024,
-1.49841,1.37177,
-1.45721,1.37329,
-1.41907,1.37787,
-1.38245,1.37024,
-1.3443,1.36566,
-1.30157,1.37024,
-1.26648,1.37482,
-1.23138,1.37482,
-1.19781,1.35803,
-1.1734,1.35956,
-1.14288,1.37177,
-1.12,1.37177,
-1.091,1.36871,
-1.07117,1.37024,
-1.04675,1.36261,
-1.02692,1.36719,
-1.01166,1.35803,
-0.991821,1.37177,
-0.975037,1.37634,
-0.959778,1.36566,
-0.950623,1.37177,
-0.938416,1.37177,
-0.930786,1.37177,
-0.914001,1.37024,
-0.90332,1.36871,
-0.889587,1.36566,
-0.878906,1.37482,
-0.872803,1.37482,
-0.862122,1.36871,
-0.85144,1.36414,
-0.846863,1.36871,
-0.837708,1.37177,
-0.828552,1.37482,
-0.820923,1.37482,
-0.814819,1.37024,
-0.80719,1.36871,
-0.802612,1.37177,
-0.799561,1.37482,
-0.790405,1.37177,
-0.790405,1.36719,
-0.788879,1.37024,
-0.784302,1.37482,
-0.782776,1.37634,
-0.78125,1.37329,
-0.779724,1.36566,
-0.782776,1.37024,
-0.784302,1.37634,
-0.784302,1.37787,
-0.788879,1.37177,
-0.788879,1.37024,
-0.793457,1.37329,
-0.793457,1.36719,
-0.799561,1.36566,
-0.799561,1.37329,
-0.802612,1.36719,
-0.801086,1.37024,
-0.801086,1.37329,
-0.802612,1.37787,
-0.799561,1.37634,
-0.802612,1.37482,
-0.796509,1.37177,
-0.798035,1.37482,
-0.796509,1.37787,
-0.796509,1.37177,
-0.790405,1.36871,
-0.790405,1.36871,
-0.790405,1.37634,
-0.796509,1.37482,
-0.794983,1.37177,
-0.799561,1.36871,
-0.796509,1.37329,
-0.802612,1.37634,
-0.804138,1.37939,
-0.80719,1.37329,
-0.811768,1.37177,
-0.808716,1.36871,
-0.810242,1.37482,
-0.814819,1.37634,
-0.816345,1.37482,
-0.820923,1.36719,
-0.830078,1.37177,
-0.836182,1.37482,
-0.840759,1.37634,
-0.846863,1.37482,
-0.854492,1.36871,
-0.862122,1.37329,
-0.869751,1.37634,
-0.881958,1.37329,
-0.895691,1.37329,
-0.909424,1.36719,
-0.920105,1.37024,
-0.930786,1.37482,
-0.942993,1.37787,
-0.953674,1.37634,
-0.965881,1.37024,
-0.975037,1.37024,
-0.984192,1.37787,
-0.994873,1.37482,
-1.0025,1.37482,
-1.01013,1.36871,
-1.02081,1.37329,
-1.02844,1.37939,
-1.0376,1.37634,
-1.04675,1.37329,
-1.05438,1.37024,
-1.06049,1.37177,
-1.06812,1.37787,
-1.07727,1.37787,
-1.08795,1.37329,
-1.09406,1.37329,
-1.10931,1.37482,
-1.11847,1.37787,
-1.1322,1.37939,
-1.14441,1.37329,
-1.15967,1.37024,
-1.1734,1.37482,
-1.18561,1.37787,
-1.19629,1.37482,
-1.21307,1.37634,
-1.22528,1.37177,
-1.24512,1.37634,
-1.2619,1.37939,
-1.27563,1.37787,
-1.28937,1.37482,
-1.3092,1.37024,
-1.31989,1.37482,
-1.3382,1.38092,
-1.35193,1.37787,
-1.36719,1.37482,
-1.38397,1.37329,
-1.39771,1.37177,
-1.41296,1.37939,
-1.42365,1.37787,
-1.43433,1.37177,
-1.44958,1.37482,
-1.45874,1.37329,
-1.474,1.37939,
-1.48773,1.37939,
-1.49689,1.37329,
-1.50909,1.36261,
-1.52283,1.37482,
-1.52893,1.37787,
-1.53656,1.38092,
-1.54572,1.37634,
-1.55334,1.37329,
-1.5564,1.37329,
-1.5564,1.3916,
-1.55334,1.38092,
-1.54877,1.37939,
-1.53351,1.37024,
-1.52283,1.37482,
-1.49841,1.38092,
-1.474,1.38092,
-1.45111,1.38855,
-1.42365,1.36719,
-1.39465,1.37482,
-1.35651,1.37939,
-1.32141,1.37939,
-1.29089,1.37939,
-1.25275,1.37329,
-1.2085,1.37634,
-1.1734,1.38092,
-1.13068,1.38092,
-1.09253,1.37787,
-1.0498,1.37177,
-1.01318,1.37482,
-0.973511,1.38245,
-0.93689,1.37939,
-0.891113,1.37939,
-0.856018,1.37024,
-0.817871,1.37634,
-0.78125,1.38245,
-0.747681,1.37787,
-0.715637,1.37634,
-0.689697,1.38092,
-0.662231,1.37482,
-0.636292,1.39771,
-0.613403,1.38092,
-0.588989,1.38245,
-0.567627,1.37634,
-0.552368,1.37482,
-0.531006,1.38245,
-0.520325,1.3855,
-0.505066,1.37939,
-0.489807,1.37482,
-0.480652,1.37634,
-0.469971,1.38245,
-0.460815,1.37939,
-0.456238,1.37939,
-0.450134,1.36871,
-0.444031,1.37787,
-0.444031,1.38092,
-0.440979,1.37787,
-0.442505,1.37939,
-0.442505,1.37329,
-0.440979,1.37634,
-0.45166,1.37939,
-0.454712,1.37939,
-0.462341,1.38092,
-0.465393,1.37177,
-0.465393,1.37939,
-0.471497,1.38397,
-0.476074,1.37939,
-0.483704,1.37634,
-0.486755,1.37634,
-0.492859,1.37787,
-0.497437,1.38397,
-0.500488,1.38092,
-0.506592,1.36719,
-0.509644,1.37177,
-0.517273,1.37634,
-0.524902,1.38092,
-0.52948,1.37939,
-0.535583,1.37787,
-0.540161,1.37177,
-0.549316,1.37482,
-0.553894,1.38245,
-0.564575,1.38245,
-0.57373,1.37939,
-0.578308,1.37634,
-0.585938,1.37634,
-0.590515,1.38092,
-0.596619,1.3855,
-0.601196,1.37787,
-0.610352,1.37024,
-0.621033,1.37787,
-0.62561,1.37939,
-0.628662,1.38245,
-0.63324,1.38092,
-0.639343,1.37329,
-0.643921,1.37787,
-0.646973,1.38092,
-0.648499,1.38092,
-0.653076,1.37787,
-0.65918,1.37634,
-0.663757,1.37634,
-0.666809,1.38245,
-0.672913,1.37939,
-0.680542,1.37787,
-0.68512,1.37482,
-0.694275,1.37634,
-0.700378,1.38397,
-0.704956,1.38245,
-0.71106,1.37787,
-0.717163,1.37787,
-0.727844,1.37787,
-0.735474,1.38245,
-0.744629,1.38245,
-0.750732,1.37787,
-0.769043,1.37787,
-0.779724,1.36871,
-0.796509,1.38397,
-0.810242,1.37939,
-0.819397,1.38092,
-0.83313,1.37939,
-0.843811,1.37634,
-0.863647,1.38245,
-0.881958,1.37634,
-0.898743,1.37939,
-0.906372,1.37329,
-0.917053,1.37787,
-0.930786,1.38245,
-0.942993,1.38092,
-0.9552,1.37939,
-0.964355,1.37634,
-0.978088,1.38092,
-0.993347,1.38245,
-1.00861,1.38245,
-1.02081,1.37939,
-1.03455,1.37482,
-1.05133,1.37482,
-1.06812,1.38245,
-1.0849,1.38397,
-1.10168,1.38397,
-1.11694,1.37634,
-1.13373,1.37787,
-1.15509,1.38092,
-1.1734,1.38397,
-1.18866,1.37939,
-1.20697,1.37329,
-1.22528,1.37939,
-1.24512,1.38397,
-1.26343,1.38397,
-1.28021,1.37939,
-1.29852,1.37939,
-1.31378,1.38092,
-1.32599,1.3855,
-1.3382,1.38397,
-1.35803,1.38092,
-1.37482,1.37634,
-1.39465,1.37787,
-1.41296,1.38245,
-1.4267,1.38397,
-1.44958,1.37482,
-1.46637,1.37634,
-1.48315,1.37939,
-1.49384,1.3855,
-1.51062,1.38245,
-1.52283,1.37939,
-1.53046,1.37939,
-1.54572,1.38092,
-1.55792,1.3855,
-1.57318,1.38397,
-1.57928,1.38245,
-1.59302,1.37634,
-1.60675,1.37939,
-1.61743,1.3855,
-1.62506,1.3855,
-1.63116,1.3855,
-1.64185,1.37634,
-1.65863,1.38092,
-1.66321,1.38397,
-1.67389,1.37482,
-1.68762,1.38397,
-1.70441,1.37634,
-1.71204,1.38092,
-1.71509,1.38397,
-1.71661,1.38397,
-1.72272,1.38092,
-1.71814,1.37787,
-1.71509,1.38092,
-1.70288,1.38092,
-1.6861,1.38397,
-1.66779,1.38092,
-1.64795,1.37939,
-1.62354,1.37939,
-1.59607,1.3855,
-1.57013,1.3855,
-1.54114,1.38092,
-1.5152,1.37634,
-1.48315,1.38092,
-1.45416,1.38245,
-1.41296,1.3855,
-1.38245,1.38245,
-1.34735,1.37939,
-1.31073,1.37939,
-1.27411,1.38397,
-1.23596,1.38245,
-1.19934,1.38245,
-1.16272,1.38092,
-1.12457,1.37939,
-1.0849,1.38245,
-1.04828,1.38397,
-1.01471,1.38855,
-0.982666,1.37787,
-0.944519,1.37939,
-0.91095,1.37939,
-0.878906,1.38397,
-0.848389,1.38092,
-0.827026,1.38092,
-0.799561,1.38397,
-0.778198,1.38702,
-0.759888,1.3855,
-0.738525,1.38245,
-0.717163,1.37787,
-0.706482,1.38092,
-0.694275,1.38245,
-0.680542,1.3855,
-0.674438,1.38397,
-0.668335,1.38092,
-0.662231,1.37939,
-0.657654,1.3855,
-0.657654,1.38855,
-0.656128,1.3855,
-0.653076,1.37787,
-0.657654,1.38092,
-0.657654,1.38245,
-0.665283,1.38702,
-0.662231,1.38397,
-0.662231,1.37787,
-0.668335,1.38397,
-0.669861,1.38092,
-0.672913,1.38245,
-0.67749,1.38397,
-0.68512,1.37939,
-0.689697,1.38092,
-0.694275,1.38702,
-0.697327,1.38702,
-0.701904,1.3855,
-0.708008,1.37634,
-0.709534,1.38092,
-0.71106,1.3855,
-0.71106,1.3855,
-0.715637,1.38702,
-0.715637,1.37787,
-0.718689,1.38245,
-0.721741,1.38397,
-0.727844,1.38397,
-0.730896,1.38397,
-0.733948,1.38092,
-0.737,1.38245,
-0.737,1.38855,
-0.741577,1.38245,
-0.746155,1.38245,
-0.749207,1.38092,
-0.746155,1.38397,
-0.747681,1.3855,
-0.752258,1.38702,
-0.747681,1.38702,
-0.749207,1.37939,
-0.747681,1.38397,
-0.752258,1.38702,
-0.750732,1.38855,
-0.75531,1.3855,
-0.759888,1.37939,
-0.762939,1.3855,
-0.765991,1.38855,
-0.767517,1.38702,
-0.773621,1.38397,
-0.775146,1.37939,
-0.779724,1.38397,
-0.787354,1.39008,
-0.793457,1.3855,
-0.794983,1.3855,
-0.802612,1.38092,
-0.808716,1.38092,
-0.817871,1.38702,
-0.828552,1.38855,
-0.836182,1.38702,
-0.846863,1.38092,
-0.857544,1.38245,
-0.866699,1.3855,
-0.874329,1.38397,
-0.886536,1.37939,
-0.897217,1.38092,
-0.904846,1.38397,
-0.918579,1.3855,
-0.930786,1.3855,
-0.939941,1.3855,
-0.947571,1.38245,
-0.953674,1.38245,
-0.959778,1.3855,
-0.973511,1.3855,
-0.98114,1.3855,
-0.991821,1.38092,
-1.00708,1.38245,
-1.01929,1.38702,
-1.02997,1.39008,
-1.04523,1.38702,
-1.06049,1.38092,
-1.07117,1.38397,
-1.08337,1.3855,
-1.09863,1.38702,
-1.11542,1.38397,
-1.13068,1.38245,
-1.14288,1.38397,
-1.15967,1.3855,
-1.17035,1.38702,
-1.18256,1.38855,
-1.19781,1.37939,
-1.21155,1.38397,
-1.22375,1.38702,
-1.23596,1.39008,
-1.24969,1.39008,
-1.26038,1.38397,
-1.27563,1.38092,
-1.28784,1.39008,
-1.3031,1.38855,
-1.31836,1.38397,
-1.33514,1.3855,
-1.3504,1.3855,
-1.36414,1.39008,
-1.37939,1.38855,
-1.39618,1.38245,
-1.41296,1.38245,
-1.4267,1.38397,
-1.44196,1.38092,
-1.46027,1.38855,
-1.474,1.38397,
-1.49231,1.38397,
-1.50604,1.38245,
-1.52435,1.38092,
-1.54114,1.40076,
-1.55945,1.3855,
-1.57776,1.38245,
-1.59607,1.38397,
-1.61285,1.39008,
-1.62964,1.38855,
-1.64185,1.38397,
-1.66016,1.38092,
-1.67389,1.3855,
-1.6922,1.38702,
-1.70441,1.39008,
-1.71661,1.3855,
-1.73492,1.38092,
-1.75018,1.38397,
-1.76544,1.38855,
-1.78223,1.38855,
-1.79749,1.3855,
-1.80969,1.38245,
-1.82495,1.3855,
-1.83411,1.39008,
-1.84784,1.38702,
-1.85242,1.3916,
-1.85852,1.37939,
-1.85852,1.3855,
-1.85547,1.3916,
-1.84631,1.39008,
-1.83563,1.38702,
-1.8158,1.38092,
-1.79596,1.3855,
-1.77002,1.38397,
-1.74408,1.38397,
-1.72119,1.38702,
-1.68304,1.38855,
-1.65253,1.38702,
-1.61743,1.38702,
-1.58081,1.3916,
-1.53961,1.39008,
-1.50146,1.38092,
-1.46179,1.38702,
-1.42517,1.40381,
-1.3855,1.39008,
-1.3504,1.39008,
-1.31226,1.38245,
-1.27869,1.38855,
-1.24664,1.39008,
-1.2085,1.39008,
-1.18103,1.38855,
-1.15204,1.3916,
-1.12152,1.38702,
-1.09711,1.38855,
-1.07269,1.39008,
-1.0498,1.39313,
-1.02692,1.3855,
-1.00555,1.3855,
-0.987244,1.39008,
-0.970459,1.3916,
-0.952148,1.39313,
-0.935364,1.38702,
-0.924683,1.38702,
-0.907898,1.3916,
-0.898743,1.3916,
-0.886536,1.39008,
-0.875854,1.37787,
-0.868225,1.38855,
-0.85907,1.39008,
-0.852966,1.39008,
-0.843811,1.3916,
-0.840759,1.3855,
-0.836182,1.38702,
-0.840759,1.39923,
-0.839233,1.39008,
-0.837708,1.39008,
-0.834656,1.3855,
-0.836182,1.38855,
-0.836182,1.39008,
-0.839233,1.38855,
-0.840759,1.39313,
-0.845337,1.38702,
-0.845337,1.38855,
-0.849915,1.38855,
-0.85907,1.39313,
-0.865173,1.38702,
-0.875854,1.39008,
-0.88501,1.38855,
-0.891113,1.39008,
-0.904846,1.39008,
-0.917053,1.38855,
-0.924683,1.38702,
-0.938416,1.38702,
-0.946045,1.39008,
-0.959778,1.3916,
-0.971985,1.39618,
-0.982666,1.38397,
-0.990295,1.38855,
-1.0025,1.39313,
-1.01013,1.39313,
-1.01776,1.39008,
-1.02692,1.3855,
-1.03607,1.39008,
-1.0437,1.39771,
-1.04828,1.39313,
-1.05591,1.38855,
-1.06049,1.3855,
-1.06812,1.3916,
-1.07727,1.38397,
-1.08643,1.39313,
-1.09558,1.3916,
-1.10168,1.3855,
-1.10931,1.38855,
-1.11389,1.39008,
-1.12305,1.39618,
-1.1261,1.39313,
-1.13068,1.3855,
-1.13831,1.39008,
-1.14288,1.3916,
-1.14899,1.39618,
-1.14899,1.39313,
-1.15356,1.38702,
-1.15967,1.39618,
-1.16272,1.3916,
-1.17188,1.3916,
-1.17493,1.39313,
-1.18408,1.38855,
-1.19019,1.39313,
-1.20087,1.39618,
-1.2146,1.39313,
-1.22528,1.39313,
-1.23444,1.3855,
-1.24969,1.3916,
-1.25885,1.39771,
-1.26953,1.39618,
-1.28174,1.3916,
-1.29242,1.3855,
-1.3031,1.39313,
-1.31378,1.39618,
-1.32294,1.3916,
-1.33667,1.39618,
-1.34888,1.39008,
-1.36414,1.3916,
-1.38092,1.39313,
-1.39618,1.39618,
-1.41602,1.39313,
-1.43127,1.3916,
-1.44806,1.38702,
-1.46484,1.39313,
-1.4801,1.39771,
-1.49689,1.3916,
-1.50909,1.39008,
-1.5274,1.39618,
-1.53809,1.39771,
-1.55182,1.39923,
-1.5625,1.39313,
-1.57471,1.38702,
-1.58997,1.3916,
-1.60522,1.39618,
-1.61743,1.39771,
-1.63269,1.39313,
-1.6449,1.3916,
-1.66016,1.39313,
-1.67084,1.40076,
-1.67847,1.39618,
-1.69373,1.39618,
-1.70593,1.39008,
-1.72119,1.39313,
-1.7334,1.39313,
-1.74103,1.39313,
-1.75476,1.39771,
-1.76544,1.38855,
-1.77917,1.39313,
-1.79291,1.39771,
-1.80359,1.39618,
-1.8158,1.39008,
-1.83258,1.39313,
-1.84479,1.39313,
-1.86157,1.39618,
-1.87683,1.39771,
-1.89667,1.39771,
-1.91498,1.3916,
-1.93176,1.3916,
-1.95007,1.39313,
-1.96838,1.39923,
-1.98517,1.39313,
-2.00043,1.3916,
-2.01569,1.3916,
-2.03247,1.39923,
-2.04773,1.39771,
-2.06451,1.39771,
-2.0752,1.39008,
-2.0874,1.39313,
-2.09656,1.39618,
-2.10114,1.39771,
-2.10876,1.3916,
-2.11182,1.38855,
-2.11029,1.39771,
-2.11487,1.39771,
-2.10419,1.39771,
-2.09656,1.39618,
-2.07977,1.39008,
-2.06909,1.3916,
-2.05231,1.39923,
-2.03247,1.40076,
-2.00653,1.39923,
-1.98212,1.39008,
-1.95007,1.39313,
-1.93024,1.39771,
-1.90125,1.40228,
-1.86768,1.39008,
-1.84021,1.3916,
-1.80969,1.39771,
-1.77917,1.40076,
-1.74561,1.40076,
-1.71051,1.39313,
-1.67999,1.3916,
-1.65405,1.39313,
-1.62506,1.39313,
-1.59302,1.39923,
-1.57166,1.39771,
-1.54419,1.39313,
-1.51825,1.39618,
-1.49384,1.39618,
-1.47095,1.40381,
-1.44806,1.39771,
-1.42822,1.3916,
-1.40686,1.39313,
-1.38855,1.40076,
-1.37024,1.40228,
-1.35651,1.3855,
-1.34583,1.38855,
-1.33209,1.39618,
-1.32294,1.39618,
-1.31378,1.39771,
-1.3031,1.39618,
-1.29852,1.38702,
-1.29089,1.3916,
-1.28937,1.38855,
-1.28479,1.39923,
-1.28021,1.39771,
-1.27869,1.3916,
-1.27411,1.39008,
-1.27716,1.39618,
-1.27716,1.39618,
-1.28021,1.39771,
-1.28174,1.3916,
-1.29242,1.39008,
-1.29852,1.39618,
-1.30615,1.39923,
-1.31226,1.39618,
-1.32141,1.39008,
-1.33362,1.38855,
-1.34277,1.39618,
-1.35193,1.40076,
-1.36261,1.39771,
-1.37939,1.3916,
-1.38702,1.39923,
-1.3916,1.39923,
-1.40076,1.40076,
-1.41449,1.39618,
-1.42365,1.39008,
-1.42975,1.39008,
-1.4389,1.39923,
-1.44653,1.40381,
-1.45416,1.39771,
-1.46332,1.39008,
-1.4679,1.39923,
-1.47705,1.40076,
-1.48163,1.40076,
-1.48773,1.39771,
-1.49231,1.3916,
-1.49384,1.39313,
-1.49994,1.39771,
-1.50299,1.39923,
-1.50604,1.39771,
-1.50604,1.39008,
-1.50604,1.39313,
-1.50909,1.3916,
-1.5152,1.40228,
-1.51672,1.39923,
-1.51825,1.39008,
-1.52283,1.39618,
-1.52435,1.39771,
-1.5274,1.40228,
-1.53198,1.39618,
-1.53961,1.38855,
-1.54114,1.39618,
-1.54419,1.39771,
-1.55334,1.39923,
-1.56097,1.39771,
-1.57013,1.39313,
-1.57623,1.39313,
-1.58539,1.39771,
-1.5976,1.40228,
-1.60675,1.39313,
-1.61743,1.38855,
-1.63269,1.39313,
-1.64032,1.39771,
-1.65558,1.40076,
-1.66473,1.39923,
-1.67389,1.39008,
-1.68915,1.39771,
-1.70288,1.39771,
-1.72119,1.39618,
-1.73492,1.40076,
-1.74866,1.3916,
-1.76086,1.39618,
-1.77612,1.39313,
-1.79596,1.3855,
-1.81122,1.39313,
-1.8219,1.39313,
-1.83868,1.39313,
-1.85242,1.39771,
-1.87073,1.40076,
-1.89056,1.38855,
-1.9104,1.39313,
-1.92719,1.39618,
-1.9455,1.40076,
-1.9577,1.39923,
-1.97601,1.39008,
-1.99585,1.39008,
-2.00958,1.39771,
-2.02637,1.39618,
-2.03857,1.40076,
-2.05231,1.39923,
-2.06451,1.39771,
-2.07977,1.39771,
-2.09045,1.40228,
-2.10876,1.40076,
-2.1225,1.39923,
-2.13928,1.38702,
-2.14844,1.39313,
-2.16064,1.39771,
-2.17438,1.40076,
-2.18353,1.39618,
-2.19879,1.39008,
-2.21252,1.39313,
-2.22473,1.39771,
-2.24152,1.40076,
-2.25067,1.39618,
-2.25983,1.3916,
-2.27966,1.39771,
-2.28882,1.39923,
-2.30255,1.39313,
-2.31476,1.39313,
-2.32697,1.3916,
-2.33459,1.39618,
-2.34833,1.39923,
-2.35901,1.40381,
-2.37427,1.39618,
-2.3819,1.39313,
-2.39716,1.39313,
-2.40631,1.40076,
-2.41852,1.39923,
-2.42767,1.39313,
-2.44293,1.39008,
-2.45972,1.3916,
-2.47192,1.40076,
-2.48718,1.39771,
-2.49939,1.39313,
-2.5116,1.39008,
-2.52686,1.39618,
-2.53448,1.39923,
-2.54974,1.39923,
-2.56195,1.40076,
-2.57416,1.39008,
-2.58484,1.38702,
-2.59705,1.39618,
-2.60315,1.40228,
-2.60773,1.39923,
-2.61536,1.38855,
-2.61688,1.39008,
-2.61078,1.39313,
-2.6062,1.39923,
-2.6001,1.39313,
-2.59094,1.38855,
-2.57416,1.39313,
-2.55127,1.39771,
-2.52533,1.39923,
-2.49939,1.39313,
-2.47192,1.39313,
-2.44598,1.39771,
-2.41089,1.39313,
-2.38037,1.40076,
-2.3468,1.39923,
-2.31171,1.3916,
-2.27661,1.38855,
-2.24304,1.39313,
-2.20642,1.40076,
-2.16827,1.39008,
-2.13318,1.39313,
-2.09351,1.39313,
-2.05994,1.41602,
-2.02789,1.40076,
-1.99585,1.39008,
-1.96533,1.38855,
-1.93787,1.39618,
-1.90582,1.39771,
-1.87988,1.39618,
-1.85394,1.40533,
-1.83258,1.39008,
-1.80817,1.3916,
-1.79138,1.39313,
-1.77307,1.39771,
-1.75629,1.39771,
-1.73798,1.39008,
-1.72729,1.3916,
-1.71356,1.39618,
-1.70441,1.39771,
-1.6922,1.39618,
-1.67694,1.39008,
-1.66779,1.39313,
-1.66168,1.39618,
-1.6571,1.39313,
-1.64795,1.39008,
-1.64337,1.39008,
-1.63574,1.39313,
-1.63116,1.39618,
-1.62506,1.39618,
-1.62048,1.39618,
-1.61133,1.39008,
-1.59912,1.39008,
-1.59454,1.39771,
-1.58844,1.39923,
-1.57623,1.39618,
-1.57166,1.3855,
-1.56403,1.39008,
-1.56708,1.39923,
-1.56403,1.39923,
-1.56708,1.3916,
-1.56708,1.38855,
-1.57318,1.38855,
-1.57471,1.40076,
-1.57623,1.40076,
-1.58386,1.3916,
-1.59607,1.38855,
-1.5976,1.39313,
-1.60522,1.39313,
-1.61743,1.39923,
-1.62201,1.39923,
-1.62659,1.39008,
-1.62964,1.3916,
-1.63422,1.39771,
-1.63727,1.40228,
-1.64032,1.3916,
-1.6449,1.38397,
-1.64642,1.39618,
-1.64642,1.39313,
-1.6449,1.40076,
-1.64642,1.39618,
-1.6449,1.3855,
-1.64185,1.3916,
-1.64337,1.39618,
-1.63879,1.39771,
-1.64032,1.38245,
-1.63879,1.3855,
-1.63574,1.39008,
-1.63727,1.39313,
-1.63422,1.39923,
-1.63727,1.39313,
-1.63727,1.38702,
-1.63879,1.39008,
-1.64032,1.39618,
-1.64337,1.39771,
-1.64948,1.3916,
-1.6571,1.39008,
-1.66016,1.39008,
-1.66779,1.39923,
-1.67389,1.39771,
-1.68152,1.39008,
-1.69373,1.38702,
-1.69983,1.3916,
-1.70898,1.39618,
-1.71661,1.40076,
-1.72577,1.39313,
-1.73645,1.39008,
-1.74866,1.3916,
-1.76392,1.39313,
-1.77002,1.39618,
-1.7746,1.3916,
-1.78223,1.38855,
-1.79138,1.39313,
-1.79901,1.39923,
-1.80664,1.39771,
-1.81732,1.39313,
-1.828,1.38702,
-1.83716,1.3916,
-1.84937,1.39313,
-1.86005,1.40076,
-1.8692,1.39618,
-1.88293,1.38702,
-1.89514,1.3916,
-1.90277,1.39618,
-1.91803,1.39923,
-1.93176,1.39008,
-1.94244,1.38855,
-1.9577,1.38855,
-1.97296,1.39313,
-1.98822,1.39771,
-2.00958,1.38855,
-2.02789,1.39313,
-2.04773,1.38702,
-2.06146,1.39313,
-2.0813,1.39771,
-2.09656,1.39313,
-2.11792,1.38702,
-2.13623,1.39008,
-2.15302,1.40381,
-2.17133,1.39923,
-2.18964,1.39008,
-2.20795,1.38702,
-2.22778,1.39313,
-2.24609,1.39618,
-2.26135,1.40076,
-2.27966,1.38702,
-2.29492,1.39008,
-2.31018,1.38702,
-2.33154,1.39313,
-2.34833,1.39923,
-2.36511,1.39008,
-2.37885,1.38397,
-2.39258,1.38702,
-2.40936,1.39771,
-2.42004,1.40076,
-2.4353,1.39008,
-2.44751,1.38855,
-2.46582,1.39313,
-2.48413,1.3916,
-2.50092,1.39618,
-2.5177,1.39618,
-2.52686,1.38855,
-2.54211,1.3916,
-2.5589,1.3916,
-2.56958,1.39923,
-2.58789,1.3916,
-2.60162,1.39008,
-2.61688,1.38397,
-2.62909,1.39313,
-2.64435,1.39618,
-2.65656,1.3916,
-2.67029,1.38702,
-2.6886,1.39008,
-2.69928,1.39313,
-2.70996,1.39771,
-2.72217,1.39008,
-2.7359,1.38702,
-2.74658,1.38702,
-2.75574,1.39618,
-2.75574,1.40076,
-2.76337,1.40228,
-2.76947,1.39008,
-2.76642,1.38702,
-2.76489,1.38702,
-2.76642,1.39618,
-2.75879,1.39313,
-2.74658,1.3916,
-2.7359,1.3855,
-2.71759,1.39618,
-2.69775,1.39771,
-2.67639,1.39618,
-2.6535,1.38855,
-2.62909,1.3916,
-2.59857,1.3916,
-2.56653,1.39923,
-2.53601,1.39313,
-2.50244,1.38702,
-2.46735,1.39313,
-2.4292,1.39771,
-2.39258,1.39923,
-2.36206,1.39313,
-2.32391,1.39008,
-2.29034,1.3916,
-2.2583,1.39618,
-2.22626,1.40076,
-2.19727,1.39771,
-2.17133,1.38855,
-2.14233,1.39008,
-2.11334,1.39771,
-2.08435,1.40076,
-2.05994,1.3916,
-2.03552,1.40076,
-2.00958,1.3916,
-1.98822,1.39771,
-1.96838,1.39923,
-1.94702,1.3916,
-1.93481,1.3916,
-1.9165,1.39313,
-1.89819,1.40991,
-1.88141,1.39923,
-1.86768,1.39313,
-1.85089,1.38702,
-1.84021,1.3916,
-1.82648,1.39313,
-1.81732,1.40381,
-1.80664,1.39771,
-1.79596,1.40076,
-1.78986,1.39618,
-1.7807,1.40076,
-1.77155,1.40533,
-1.75934,1.39771,
-1.75476,1.39313,
-1.74561,1.39313,
-1.73798,1.39618,
-1.73492,1.40381,
-1.72882,1.39771,
-1.72729,1.39313,
-1.72424,1.39313,
-1.72119,1.39618,
-1.72424,1.40228,
-1.72424,1.39771,
-1.72729,1.39008,
-1.72729,1.39008,
-1.72577,1.39771,
-1.72119,1.39771,
-1.72729,1.39618,
-1.72729,1.3916,
-1.73035,1.3916,
-1.73187,1.39923,
-1.72882,1.40076,
-1.73187,1.3916,
-1.73035,1.3916,
-1.7334,1.3916,
-1.73492,1.39771,
-1.73645,1.40076,
-1.73492,1.39618,
-1.73645,1.39008,
-1.73492,1.39313,
-1.73645,1.39618,
-1.74103,1.40381,
-1.74255,1.39618,
-1.74255,1.38702,
-1.74255,1.39313,
-1.74103,1.39771,
-1.74255,1.40381,
-1.74408,1.39618,
-1.74408,1.39008,
-1.74408,1.39771,
-1.74713,1.39771,
-1.74408,1.39923,
-1.74561,1.39771,
-1.74561,1.39008,
-1.74713,1.39618,
-1.75018,1.40076,
-1.75018,1.39008,
-1.74866,1.39771,
-1.75171,1.39313,
-1.75018,1.39313,
-1.75171,1.39923,
-1.75629,1.40228,
-1.76392,1.39313,
-1.76544,1.39313,
-1.77155,1.39313,
-1.77765,1.40076,
-1.78528,1.40076,
-1.79749,1.39618,
-1.80817,1.39771,
-1.81427,1.39771,
-1.82037,1.39618,
-1.83411,1.40228,
-1.84021,1.3855,
-1.85089,1.39923,
-1.86157,1.39771,
-1.87073,1.39771,
-1.87988,1.40228,
-1.89362,1.39618,
-1.90277,1.39313,
-1.92108,1.38702,
-1.93939,1.39771,
-1.94855,1.40533,
-1.96686,1.39618,
-1.98212,1.38855,
-1.99585,1.39618,
-2.00653,1.40076,
-2.02484,1.40381,
-2.03705,1.39923,
-2.04315,1.3916,
-2.05688,1.39313,
-2.07367,1.40076,
-2.0813,1.40228,
-2.09351,1.39771,
-2.10266,1.39008,
-2.11334,1.39313,
-2.12555,1.39771,
-2.13928,1.40381,
-2.15149,1.39771,
-2.16217,1.3916,
-2.17896,1.39618,
-2.19269,1.40228,
-2.19879,1.40228,
-2.21558,1.39771,
-2.22473,1.3916,
-2.24152,1.39618,
-2.25067,1.39771,
-2.26288,1.40381,
-2.27661,1.40228,
-2.28729,1.39618,
-2.2995,1.39771,
-2.31171,1.39771,
-2.32239,1.40381,
-2.33154,1.40533,
-2.34833,1.38855,
-2.36206,1.39313,
-2.37885,1.39313,
-2.38953,1.39923,
-2.40479,1.39923,
-2.4231,1.38702,
-2.43988,1.39771,
-2.45667,1.39771,
-2.47345,1.40076,
-2.48718,1.39771,
-2.50092,1.39313,
-2.51465,1.39313,
-2.53296,1.40076,
-2.55127,1.40076,
-2.57111,1.39771,
-2.59094,1.39771,
-2.60925,1.38702,
-2.62604,1.40228,
-2.64282,1.40228,
-2.65808,1.39923,
-2.67334,1.3916,
-2.69012,1.39618,
-2.70386,1.40228,
-2.72064,1.40381,
-2.73285,1.39771,
-2.75421,1.39313,
-2.77252,1.39618,
-2.78931,1.39771,
-2.79694,1.40076,
-2.80914,1.39771,
-2.82288,1.39618,
-2.84119,1.39771,
-2.85187,1.39771,
-2.86713,1.40381,
-2.88391,1.40076,
-2.89612,1.39008,
-2.90527,1.40228,
-2.91443,1.39923,
-2.91901,1.40839,
-2.92511,1.40076,
-2.92358,1.39313,
-2.91748,1.40076,
-2.90985,1.40076,
-2.89917,1.39771,
-2.88391,1.40381,
-2.86102,1.3916,
-2.84271,1.40076,
-2.81677,1.40228,
-2.79083,1.40381,
-2.75879,1.40228,
-2.7298,1.39313,
-2.69165,1.39618,
-2.65961,1.40076,
-2.62604,1.40381,
-2.58942,1.40381,
-2.55432,1.39618,
-2.52533,1.40076,
-2.48871,1.39618,
-2.45514,1.40839,
-2.42615,1.39771,
-2.39258,1.39923,
-2.36359,1.39771,
-2.33612,1.40228,
-2.30713,1.40381,
-2.27966,1.40076,
-2.2522,1.39771,
-2.22321,1.40076,
-2.19727,1.39771,
-2.17896,1.40381,
-2.15912,1.39771,
-2.13928,1.39771,
-2.1225,1.39771,
-2.11182,1.40228,
-2.09351,1.40533,
-2.07977,1.40076,
-2.06909,1.39313,
-2.05994,1.39923,
-2.05078,1.39923,
-2.0401,1.40381,
-2.03247,1.40686,
-2.02789,1.39771,
-2.02179,1.39923,
-2.01569,1.40076,
-2.00958,1.40381,
-2.00653,1.40076,
-2.00348,1.3916,
-1.9989,1.39618,
-1.99127,1.39923,
-1.99127,1.40533,
-1.98975,1.40076,
-1.99127,1.39313,
-1.98822,1.39618,
-1.99585,1.40381,
-1.9928,1.40533,
-2.00195,1.39923,
-2.00195,1.3916,
-2.00958,1.39923,
-2.01416,1.39923,
-2.02026,1.40381,
-2.02332,1.39771,
-2.03247,1.38702,
-2.034,1.41296,
-2.04163,1.40228,
-2.05078,1.40076,
-2.05688,1.39771,
-2.05994,1.39313,
-2.06604,1.39923,
-2.07214,1.40076,
-2.07367,1.40686,
-2.07977,1.40381,
-2.0813,1.39313,
-2.08282,1.39313,
-2.08282,1.40228,
-2.0874,1.40533,
-2.08588,1.39923,
-2.0874,1.3916,
-2.0874,1.39618,
-2.08893,1.40076,
-2.09045,1.40228,
-2.09045,1.39923,
-2.09503,1.39618,
-2.09503,1.40076,
-2.09961,1.40076,
-2.10114,1.40228,
-2.09961,1.39771,
-2.10419,1.39313,
-2.10266,1.39923,
-2.10266,1.40228,
-2.10266,1.40381,
-2.10571,1.40076,
-2.10876,1.39771,
-2.11182,1.39923,
-2.11487,1.40228,
-2.11487,1.40686,
-2.11792,1.39923,
-2.12097,1.39313,
-2.11945,1.39771,
-2.12555,1.39923,
-2.12555,1.40533,
-2.12708,1.39771,
-2.13013,1.39313,
-2.14081,1.39313,
-2.14691,1.39923,
-2.15302,1.40381,
-2.15759,1.39771,
-2.16522,1.39008,
-2.16827,1.39923,
-2.1759,1.40381,
-2.18506,1.40381,
-2.19574,1.39923,
-2.20795,1.39618,
-2.21863,1.39771,
-2.22626,1.40228,
-2.24152,1.40228,
-2.2583,1.39618,
-2.27051,1.39313,
-2.27966,1.40076,
-2.29187,1.40228,
-2.30713,1.40381,
-2.31476,1.40076,
-2.32544,1.39771,
-2.3407,1.39618,
-2.34985,1.40076,
-2.35901,1.40533,
-2.36969,1.40228,
-2.38647,1.39313,
-2.39105,1.39618,
-2.40021,1.39923,
-2.41089,1.40686,
-2.42157,1.39313,
-2.43225,1.39771,
-2.44446,1.38855,
-2.46124,1.3916,
-2.46735,1.40381,
-2.47955,1.39771,
-2.48718,1.39771,
-2.49481,1.39771,
-2.50549,1.39313,
-2.52075,1.40228,
-2.52991,1.39771,
-2.53601,1.39923,
-2.54822,1.39771,
-2.56653,1.40228,
-2.57568,1.40381,
-2.59247,1.39923,
-2.6062,1.39008,
-2.62604,1.40076,
-2.63824,1.40076,
-2.6535,1.40228,
-2.66571,1.40076,
-2.68402,1.38855,
-2.70081,1.39923,
-2.71759,1.40076,
-2.7298,1.40381,
-2.74811,1.39923,
-2.76184,1.3916,
-2.77557,1.39923,
-2.79388,1.40228,
-2.80457,1.40076,
-2.8244,1.39771,
-2.83966,1.39313,
-2.85645,1.39313,
-2.8656,1.39923,
-2.87933,1.40381,
-2.89307,1.40076,
-2.9068,1.3916,
-2.91901,1.39313,
-2.93427,1.40228,
-2.94495,1.40381,
-2.95868,1.39771,
-2.96936,1.39008,
-2.98309,1.38855,
-2.98767,1.39923,
-2.99835,1.40381,
-3.00293,1.39771,
-3.01056,1.39771,
-3.00751,1.39618,
-3.00446,1.39923,
-2.99683,1.40228,
-2.9892,1.39618,
-2.97546,1.39313,
-2.96478,1.3916,
-2.95258,1.39771,
-2.93274,1.40533,
-2.90833,1.39618,
-2.88391,1.39008,
-2.85645,1.39618,
-2.83051,1.39618,
-2.79541,1.40381,
-2.76184,1.39313,
-2.72369,1.39618,
-2.68402,1.39771,
-2.64587,1.39923,
-2.6123,1.39923,
-2.57568,1.39618,
-2.54364,1.39313,
-2.50702,1.39618,
-2.48108,1.39771,
-2.45056,1.39771,
-2.4231,1.39923,
-2.39563,1.3916,
-2.36511,1.39313,
-2.33917,1.39923,
-2.31476,1.40228,
-2.29187,1.3916,
-2.26746,1.39313,
-2.24457,1.39618,
-2.21863,1.40228,
-2.19421,1.40076,
-2.17285,1.39313,
-2.15302,1.39313,
-2.1347,1.39313,
-2.11639,1.39771,
-2.10266,1.40228,
-2.08588,1.3916,
-2.07367,1.39313,
-2.06451,1.3916,
-2.05383,1.39771,
-2.04315,1.40076,
-2.03857,1.39008,
-2.03094,1.38855,
-2.02637,1.38855,
-2.02484,1.39771,
-2.01874,1.40228,
-2.01263,1.39313,
-2.01721,1.3916,
-2.01874,1.39771,
-2.01416,1.39771,
-2.01874,1.40076,
-2.02179,1.39008,
-2.02637,1.3916,
-2.02637,1.39313,
-2.03094,1.39923,
-2.03552,1.40381,
-2.03705,1.39618,
-2.04315,1.3916,
-2.04773,1.39313,
-2.05536,1.39618,
-2.05536,1.40076,
-2.06451,1.39313,
-2.06604,1.39618,
-2.07062,1.38855,
-2.06909,1.39923,
-2.07062,1.40076,
-2.07062,1.39618,
-2.06757,1.3916,
-2.07214,1.39618,
-2.07214,1.40076,
-2.0752,1.40076,
-2.0752,1.39618,
-2.0752,1.39313,
-2.07672,1.3916,
-2.07672,1.39771,
-2.07825,1.40381,
-2.07672,1.39618,
-2.07672,1.39313,
-2.07825,1.3916,
-2.07672,1.39313,
-2.07825,1.40228,
-2.07977,1.39313,
-2.0813,1.39618,
-2.08435,1.39313,
-2.0874,1.39618,
-2.09045,1.40076,
-2.09503,1.39313,
-2.09961,1.3916,
-2.10419,1.39313,
-2.11182,1.39313,
-2.11487,1.39618,
-2.11792,1.3916,
-2.11945,1.40076,
-2.12402,1.38702,
-2.13013,1.3916,
-2.13776,1.39618,
-2.14386,1.39771,
-2.14844,1.3916,
-2.15302,1.39313,
-2.16827,1.39771,
-2.17133,1.38855,
-2.18048,1.3916,
-2.18353,1.39313,
-2.19269,1.39618,
-2.20337,1.39771,
-2.211,1.39771,
-2.2171,1.3916,
-2.22778,1.40686,
-2.23846,1.3916,
-2.24762,1.39313,
-2.25525,1.39771,
-2.26593,1.39618,
-2.27661,1.3916,
-2.28882,1.39008,
-2.29645,1.39618,
-2.30865,1.40076,
-2.31476,1.39313,
-2.32239,1.39008,
-2.33307,1.39008,
-2.34222,1.39618,
-2.35138,1.40076,
-2.36053,1.3916,
-2.37122,1.39008,
-2.37885,1.39618,
-2.38953,1.39618,
-2.40021,1.39771,
-2.40326,1.39618,
-2.41394,1.3916,
-2.4231,1.3916,
-2.43378,1.39771,
-2.43988,1.39771,
-2.45361,1.39313,
-2.46582,1.39008,
-2.47803,1.39008,
-2.48871,1.39313,
-2.49634,1.40076,
-2.50702,1.38855,
-2.5177,1.39008,
-2.52991,1.3916,
-2.53906,1.39618,
-2.54822,1.39771,
-2.56042,1.3916,
-2.57263,1.3916,
-2.58179,1.39008,
-2.59705,1.39313,
-2.60773,1.40076,
-2.62299,1.39313,
-2.63062,1.39008,
-2.64282,1.39008,
-2.65656,1.3916,
-2.66724,1.39923,
-2.67792,1.3916,
-2.69012,1.38855,
-2.70386,1.38855,
-2.71912,1.39618,
-2.7359,1.39923,
-2.74963,1.39313,
-2.76184,1.3916,
-2.78015,1.38855,
-2.79846,1.39313,
-2.81067,1.39771,
-2.82593,1.38855,
-2.83813,1.38855,
-2.84882,1.3916,
-2.86102,1.38855,
-2.8656,1.39771,
-2.87323,1.3916,
-2.87781,1.39008,
-2.87476,1.38702,
-2.87628,1.39008,
-2.86865,1.39771,
-2.86102,1.39313,
-2.85034,1.3855,
-2.83356,1.39313,
-2.8183,1.38855,
-2.80151,1.39313,
-2.7832,1.39008,
-2.75879,1.3916,
-2.73285,1.38855,
-2.70386,1.39313,
-2.67639,1.41296,
-2.65045,1.39008,
-2.61993,1.3855,
-2.58789,1.38855,
-2.5589,1.39008,
-2.52991,1.39618,
-2.49329,1.39008,
-2.46735,1.38702,
-2.4353,1.39008,
-2.40479,1.3916,
-2.38037,1.39923,
-2.34985,1.38702,
-2.32849,1.38702,
-2.29797,1.3855,
-2.27509,1.39008,
-2.25372,1.40839,
-2.23236,1.38702,
-2.21252,1.3855,
-2.19421,1.38855,
-2.17743,1.38855,
-2.16064,1.39771,
-2.14691,1.39008,
-2.1347,1.38702,
-2.11945,1.3855,
-2.10876,1.39008,
-2.09351,1.39771,
-2.07977,1.38702,
-2.07367,1.3855,
-2.06451,1.38702,
-2.05841,1.39313,
-2.05231,1.39313,
-2.0462,1.38702,
-2.04315,1.38702,
-2.04315,1.38855,
-2.04315,1.3916,
-2.04468,1.39923,
-2.04773,1.38245,
-2.04773,1.38092,
-2.0462,1.38702,
-2.04773,1.39008,
-2.05231,1.39923,
-2.05231,1.39008,
-2.05688,1.38397,
-2.05841,1.40686,
-2.06451,1.38855,
-2.06604,1.39923,
-2.07062,1.3916,
-2.07977,1.37939,
-2.07977,1.39008,
-2.0874,1.3916,
-2.09045,1.38245,
-2.10266,1.38855,
-2.10724,1.3855,
-2.11029,1.38702,
-2.11639,1.3855,
-2.1225,1.39313,
-2.12708,1.3916,
-2.13318,1.38702,
-2.13623,1.38397,
-2.13623,1.38855,
-2.14539,1.39008,
-2.15302,1.38702,
-2.16217,1.3855,
-2.16827,1.38855,
-2.17438,1.39008,
-2.18353,1.39618,
-2.19116,1.38702,
-2.19269,1.38245,
-2.20184,1.38245,
-2.211,1.39008,
-2.22168,1.3916,
-2.23083,1.38702,
-2.24304,1.3855,
-2.2522,1.3855,
-2.26593,1.38702,
-2.28119,1.39313,
-2.28882,1.3855,
-2.30255,1.38702,
-2.31323,1.3855,
-2.32697,1.38855,
-2.3407,1.39618,
-2.34985,1.3855,
-2.35291,1.38245,
-2.36359,1.38397,
-2.36816,1.38855,
-2.37122,1.37939,
-2.38037,1.3855,
-2.3819,1.38397,
-2.3819,1.38397,
-2.38342,1.38855,
-2.38495,1.39008,
-2.38647,1.38702,
-2.38495,1.38397,
-2.38953,1.38397,
-2.38953,1.38092,
-2.38953,1.39313,
-2.39258,1.38855,
-2.3941,1.3855,
-2.39716,1.38702,
-2.39563,1.38702,
-2.39868,1.3916,
-2.40021,1.38397,
-2.40326,1.3855,
-2.40631,1.3855,
-2.41089,1.38855,
-2.41852,1.38855,
-2.42767,1.38702,
-2.43683,1.38245,
-2.45056,1.38397,
-2.46735,1.38702,
-2.48108,1.39008,
-2.49634,1.3855,
-2.5116,1.38245,
-2.52686,1.38397,
-2.54364,1.38855,
-2.5589,1.38855,
-2.57416,1.38702,
-2.59094,1.38245,
-2.6062,1.3855,
-2.61688,1.3855,
-2.63214,1.39008,
-2.64435,1.3855,
-2.65503,1.38245,
-2.66724,1.38702,
-2.68097,1.38855,
-2.69318,1.38397,
-2.70538,1.37939,
-2.72369,1.38092,
-2.74048,1.38245,
-2.75879,1.38702,
-2.77252,1.38855,
-2.79236,1.38702,
-2.80762,1.38245,
-2.82593,1.38397,
-2.84271,1.38855,
-2.86407,1.38702,
-2.88239,1.38397,
-2.89917,1.37939,
-2.91443,1.38702,
-2.93427,1.38855,
-2.95105,1.38702,
-2.96783,1.38702,
-2.9892,1.38092,
-3.00751,1.38245,
-3.02124,1.3855,
-3.04108,1.38855,
-3.05786,1.38702,
-3.07312,1.38245,
-3.09143,1.38245,
-3.11127,1.38855,
-3.12347,1.39008,
-3.13568,1.38397,
-3.14636,1.37329,
-3.15704,1.38245,
-3.16162,1.38855,
-3.16772,1.39008,
-3.16772,1.3855,
-3.16467,1.37787,
-3.15399,1.38397,
-3.14636,1.38245,
-3.13568,1.3855,
-3.12042,1.3855,
-3.10211,1.38245,
-3.08075,1.3855,
-3.05939,1.38702,
-3.0365,1.38702,
-3.01666,1.3855,
-2.9892,1.38092,
-2.96326,1.37787,
-2.92969,1.38702,
-2.89917,1.38702,
-2.86713,1.3855,
-2.83508,1.37787,
-2.80151,1.38092,
-2.77252,1.38702,
-2.73895,1.38855,
-2.70691,1.3855,
-2.68402,1.38092,
-2.6535,1.38092,
-2.62909,1.38702,
-2.6001,1.38702,
-2.57568,1.38397,
-2.5528,1.3855,
-2.53143,1.38092,
-2.5116,1.38092,
-2.49634,1.38855,
-2.47498,1.3855,
-2.45819,1.38092,
-2.44293,1.38245,
-2.43378,1.38855,
-2.42004,1.39008,
-2.41241,1.38702,
-2.40173,1.37939,
-2.39716,1.38245,
-2.3941,1.3855,
-2.38647,1.3855,
-2.38647,1.38245,
-2.38495,1.38397,
-2.38647,1.38092,
-2.38495,1.38702,
-2.38495,1.39008,
-2.38647,1.3855,
-2.39258,1.38245,
-2.3941,1.38092,
-2.39563,1.38397,
-2.39868,1.38702,
-2.40326,1.3855,
-2.40479,1.38092,
-2.41089,1.38092,
-2.40631,1.38702,
-2.40936,1.38855,
-2.41241,1.38092,
-2.41394,1.38245,
-2.41852,1.38397,
-2.42157,1.38855,
-2.42615,1.38702,
-2.4292,1.37939,
-2.4353,1.38092,
-2.43835,1.37939,
-2.44751,1.3855,
-2.45209,1.3855,
-2.45819,1.38092,
-2.46429,1.37482,
-2.4704,1.38245,
-2.4826,1.38245,
-2.49329,1.38702,
-2.50549,1.37939,
-2.51617,1.37177,
-2.52533,1.37482,
-2.53601,1.37634,
-2.54822,1.38702,
-2.55432,1.38245,
-2.56042,1.37939,
-2.56348,1.38092,
-2.56958,1.38702,
-2.56958,1.38702,
-2.57263,1.37482,
-2.57568,1.37939,
-2.57416,1.37939,
-2.57111,1.38245,
-2.56653,1.38702,
-2.56653,1.37634,
-2.56042,1.37482,
-2.55585,1.37787,
-2.54364,1.37329,
-2.53601,1.38702,
-2.53296,1.37939,
-2.52533,1.38092,
-2.52075,1.37482,
-2.51312,1.38397,
-2.51312,1.3855,
-2.50549,1.38245,
-2.50244,1.38245,
-2.50244,1.38092,
-2.50244,1.38245,
-2.50244,1.3855,
-2.50549,1.38245,
-2.50397,1.37482,
-2.50549,1.38397,
-2.50854,1.38855,
-2.5116,1.38855,
-2.51312,1.38702,
-2.51617,1.37482,
-2.5177,1.38245,
-2.51923,1.38397,
-2.5238,1.38702,
-2.52838,1.37939,
-2.52838,1.37482,
-2.53601,1.38092,
-2.54669,1.38397,
-2.54974,1.38245,
-2.55737,1.37939,
-2.56348,1.37787,
-2.56958,1.37787,
-2.57568,1.38245,
-2.58331,1.38702,
-2.59247,1.38397,
-2.60315,1.37787,
-2.61536,1.37787,
-2.63062,1.38397,
-2.64282,1.3855,
-2.66266,1.37634,
-2.67487,1.37939,
-2.69165,1.38092,
-2.70844,1.38397,
-2.72217,1.39008,
-2.7359,1.37787,
-2.74506,1.37939,
-2.76031,1.38092,
-2.77252,1.38092,
-2.78931,1.38397,
-2.80457,1.37787,
-2.82135,1.37634,
-2.83661,1.37787,
-2.84882,1.38092,
-2.8717,1.38855,
-2.88239,1.38092,
-2.90222,1.37634,
-2.91901,1.37634,
-2.93884,1.38245,
-2.95563,1.38397,
-2.97394,1.38092,
-2.99072,1.37787,
-3.00903,1.37939,
-3.02277,1.38397,
-3.03955,1.38397,
-3.05481,1.37787,
-3.06702,1.37787,
-3.08228,1.38092,
-3.09143,1.38702,
-3.10669,1.38702,
-3.12195,1.38245,
-3.13721,1.38092,
-3.15247,1.37787,
-3.15857,1.38397,
-3.17078,1.38397,
-3.17993,1.38245,
-3.18451,1.37939,
-3.18756,1.37787,
-3.19366,1.38397,
-3.19366,1.38855,
-3.19977,1.37634,
-3.19977,1.37787,
-3.19366,1.38092,
-3.19061,1.38245,
-3.17688,1.3855,
-3.16925,1.37939,
-3.14941,1.37939,
-3.13568,1.3916,
-3.11279,1.38092,
-3.0899,1.3855,
-3.06854,1.37787,
-3.03955,1.37939,
-3.00903,1.37634,
-2.97699,1.38245,
-2.94189,1.38092,
-2.90985,1.39313,
-2.87018,1.38092,
-2.83203,1.38092,
-2.79846,1.37939,
-2.75726,1.3855,
-2.72217,1.37787,
-2.69012,1.37787,
-2.65198,1.37939,
-2.62451,1.38245,
-2.59247,1.3855,
-2.565,1.38397,
-2.53601,1.37787,
-2.50854,1.37024,
-2.48566,1.38245,
-2.45819,1.38397,
-2.4353,1.38092,
-2.41241,1.37787,
-2.39563,1.37482,
-2.38342,1.38092,
-2.36816,1.38702,
-2.35291,1.37787,
-2.34375,1.37787,
-2.32544,1.37939,
-2.31628,1.38397,
-2.30255,1.3855,
-2.29797,1.37939,
-2.28729,1.37939,
-2.28271,1.37787,
-2.28119,1.38092,
-2.27356,1.3855,
-2.26593,1.37939,
-2.26135,1.37787,
-2.25677,1.37634,
-2.2522,1.38245,
-2.2522,1.3855,
-2.2522,1.37787,
-2.25067,1.37634,
-2.2522,1.37634,
-2.25525,1.37024,
-2.25525,1.38397,
-2.2583,1.37787,
-2.25983,1.37177,
-2.26288,1.37939,
-2.26288,1.38397,
-2.27051,1.38397,
-2.27814,1.37939,
-2.27966,1.37634,
-2.28729,1.37787,
-2.29187,1.38855,
-2.29797,1.38397,
-2.3056,1.38092,
-2.30865,1.37939,
-2.31934,1.37787,
-2.32391,1.38397,
-2.32544,1.38397,
-2.33154,1.37329,
-2.33307,1.37482,
-2.33459,1.37634,
-2.33917,1.38397,
-2.33917,1.3855,
-2.33459,1.38245,
-2.33307,1.37787,
-2.33307,1.38397,
-2.32849,1.38397,
-2.32544,1.38245,
-2.32544,1.37634,
-2.32086,1.37482,
-2.31323,1.37634,
-2.31171,1.38092,
-2.3056,1.3855,
-2.2995,1.38092,
-2.2934,1.36719,
-2.29187,1.38092,
-2.28577,1.38092,
-2.28271,1.3855,
-2.27814,1.37939,
-2.27814,1.38092,
-2.27814,1.37177,
-2.27051,1.3916,
-2.26746,1.38702,
-2.2644,1.37939,
-2.26288,1.37634,
-2.26288,1.37634,
-2.26746,1.38092,
-2.26746,1.38855,
-2.27203,1.37939,
-2.27661,1.37482,
-2.28271,1.37482,
-2.29187,1.38092,
-2.29492,1.38702,
-2.29645,1.37939,
-2.30713,1.37634,
-2.31018,1.37787,
-2.31934,1.38245,
-2.32544,1.3855,
-2.33307,1.37787,
-2.3407,1.38092,
-2.35138,1.37787,
-2.36053,1.37939,
-2.37427,1.3855,
-2.38647,1.37939,
-2.39563,1.37634,
-2.40936,1.37787,
-2.41547,1.38245,
-2.42615,1.38702,
-2.43988,1.37787,
-2.45361,1.37634,
-2.4704,1.38092,
-2.47955,1.38397,
-2.49634,1.38397,
-2.50549,1.38092,
-2.51923,1.37787,
-2.52686,1.37787,
-2.53754,1.38245,
-2.54974,1.38397,
-2.56195,1.38092,
-2.56958,1.37787,
-2.58331,1.37329,
-2.59552,1.38245,
-2.60468,1.38397,
-2.61993,1.37939,
-2.63367,1.37634,
-2.64893,1.37787,
-2.65961,1.38855,
-2.67029,1.38397,
-2.68402,1.37634,
-2.69623,1.37482,
-2.71149,1.37634,
-2.72369,1.38245,
-2.73743,1.38092,
-2.75269,1.37939,
-2.76947,1.37634,
-2.7771,1.37939,
-2.78931,1.38092,
-2.79999,1.38397,
-2.81525,1.37634,
-2.82593,1.37939,
-2.84271,1.37482,
-2.84882,1.38397,
-2.8595,1.38397,
-2.8656,1.37634,
-2.8717,1.37329,
-2.87933,1.38245,
-2.88544,1.38092,
-2.89154,1.38092,
-2.89459,1.37634,
-2.89154,1.37939,
-2.89307,1.37787,
-2.88391,1.38245,
-2.87476,1.38397,
-2.8656,1.37939,
-2.85187,1.36261,
-2.83203,1.37939,
-2.81067,1.38397,
-2.78015,1.37939,
-2.75574,1.37939,
-2.72064,1.37939,
-2.68555,1.37634,
-2.64893,1.38245,
-2.6123,1.38397,
-2.57263,1.37634,
-2.53296,1.37329,
-2.49329,1.37634,
-2.45056,1.38092,
-2.40936,1.38397,
-2.36969,1.38092,
-2.33307,1.37634,
-2.2934,1.37482,
-2.25677,1.37939,
-2.21863,1.38245,
-2.18506,1.37787,
-2.14691,1.37482,
-2.11639,1.37787,
-2.08282,1.38245,
-2.04926,1.3855,
-2.01721,1.37634,
-1.9928,1.37482,
-1.96533,1.37177,
-1.94092,1.38092,
-1.91498,1.38397,
-1.89362,1.37939,
-1.87073,1.37634,
-1.84937,1.37787,
-1.82953,1.38245,
-1.80969,1.37482,
-1.79596,1.37939,
-1.7746,1.37634,
-1.76544,1.37939,
-1.75476,1.37939,
-1.74103,1.38245,
-1.73187,1.37329,
-1.71814,1.37787,
-1.70746,1.37787,
-1.70746,1.38092,
-1.69983,1.38397,
-1.69373,1.37787,
-1.68304,1.37482,
-1.68152,1.37634,
-1.67999,1.38397,
-1.67236,1.38702,
-1.67084,1.37787,
-1.66931,1.37939,
-1.66779,1.37939,
-1.66779,1.38092,
-1.66931,1.38397,
-1.66931,1.37634,
-1.66931,1.37329,
-1.66779,1.37482,
-1.66626,1.37939,
-1.66931,1.3855,
-1.67084,1.38092,
-1.67389,1.37482,
-1.67236,1.37787,
-1.67084,1.38245,
-1.67389,1.38397,
-1.67236,1.37634,
-1.67084,1.37634,
-1.67542,1.37787,
-1.67847,1.38245,
-1.68152,1.38397,
-1.68762,1.37177,
-1.68915,1.37482,
-1.69373,1.37634,
-1.69525,1.38092,
-1.6983,1.38397,
-1.70135,1.37939,
-1.70288,1.37634,
-1.70288,1.37634,
-1.70288,1.38245,
-1.70593,1.38397,
-1.70746,1.37787,
-1.69983,1.37482,
-1.70135,1.37634,
-1.70135,1.38397,
-1.70441,1.3855,
-1.70441,1.37482,
-1.70135,1.37787,
-1.70288,1.37482,
-1.69983,1.37787,
-1.70441,1.38245,
-1.70288,1.37482,
-1.70288,1.37787,
-1.70441,1.37787,
-1.70593,1.37787,
-1.71051,1.38397,
-1.70746,1.37482,
-1.70898,1.37634,
-1.70898,1.37482,
-1.71661,1.37787,
-1.72272,1.38245,
-1.72577,1.37634,
-1.73187,1.37787,
-1.73798,1.37787,
-1.74713,1.38397,
-1.75171,1.38092,
-1.76086,1.37634,
-1.77002,1.37329,
-1.7746,1.37939,
-1.78528,1.38245,
-1.79596,1.38092,
-1.80359,1.38092,
-1.81122,1.37329,
-1.8219,1.37482,
-1.83411,1.38245,
-1.84631,1.37939,
-1.86615,1.37787,
-1.87531,1.37634,
-1.88904,1.37787,
-1.90277,1.38397,
-1.91803,1.38245,
-1.93481,1.37634,
-1.94702,1.37482,
-1.96381,1.37634,
-1.97906,1.38092,
-2.00043,1.38092,
-2.01569,1.37634,
-2.03094,1.37939,
-2.04926,1.37482,
-2.06451,1.38245,
-2.0874,1.38397,
-2.09503,1.37634,
-2.11334,1.37482,
-2.1286,1.37482,
-2.14996,1.38245,
-2.16827,1.38245,
-2.18353,1.37482,
-2.20337,1.37329,
-2.2171,1.38092,
-2.23999,1.3855,
-2.25983,1.37939,
-2.27966,1.36719,
-2.29034,1.37177,
-2.31476,1.37482,
-2.33154,1.37634,
-2.34985,1.37939,
-2.36664,1.37634,
-2.388,1.37482,
-2.40326,1.37482,
-2.41547,1.38397,
-2.43225,1.38397,
-2.44293,1.37482,
-2.45209,1.37787,
-2.46124,1.37634,
-2.47192,1.38245,
-2.47955,1.38245,
-2.48871,1.37482,
-2.50092,1.37177,
-2.50549,1.37634,
-2.5177,1.38245,
-2.5238,1.38245,
-2.52991,1.37939,
-2.52686,1.37787,
-2.5238,1.37787,
-2.51923,1.37939,
-2.51312,1.38245,
-2.49786,1.37634,
-2.48413,1.37787,
-2.46124,1.37634,
-2.43988,1.38092,
-2.41241,1.38855,
-2.38037,1.37634,
-2.34985,1.37482,
-2.31628,1.37482,
-2.27509,1.37939,
-2.24152,1.38702,
-2.19574,1.37787,
-2.16064,1.37787,
-2.11945,1.37939,
-2.07672,1.38245,
-2.03552,1.38245,
-2.00043,1.38092,
-1.95465,1.37939,
-1.91498,1.37787,
-1.87683,1.38397,
-1.84021,1.38702,
-1.80969,1.38245,
-1.77155,1.37939,
-1.7395,1.37634,
-1.70288,1.38855,
-1.67389,1.3855,
-1.65253,1.37787,
-1.62506,1.38092,
-1.6037,1.38245,
-1.58386,1.38855,
-1.56403,1.38855,
-1.54572,1.37482,
-1.53046,1.38092,
-1.51672,1.37787,
-1.49841,1.38702,
-1.48621,1.38702,
-1.47095,1.37939,
-1.45721,1.38245,
-1.44653,1.37634,
-1.42975,1.38397,
-1.42059,1.38702,
-1.41144,1.38397,
-1.40076,1.37939,
-1.3916,1.38092,
-1.3855,1.38397,
-1.37329,1.39008,
-1.36566,1.38245,
-1.36414,1.37634,
-1.3504,1.38397,
-1.34583,1.38855,
-1.3443,1.38702,
-1.33362,1.38397,
-1.33057,1.38245,
-1.32599,1.37177,
-1.32446,1.3916,
-1.32294,1.3855,
-1.32294,1.3855,
-1.32294,1.38702,
-1.32294,1.38245,
-1.32446,1.38245,
-1.33362,1.3916,
-1.33514,1.37634,
-1.3382,1.38245,
-1.3443,1.38245,
-1.34888,1.39313,
-1.35651,1.39008,
-1.35956,1.38855,
-1.36719,1.38397,
-1.37177,1.40381,
-1.37787,1.38702,
-1.38245,1.39008,
-1.38397,1.3855,
-1.3916,1.38397,
-1.3916,1.38397,
-1.3916,1.38855,
-1.39771,1.39008,
-1.39771,1.38702,
-1.39923,1.38855,
-1.39771,1.38702,
-1.39771,1.3916,
-1.39771,1.39618,
-1.39771,1.39008,
-1.39313,1.3855,
-1.39465,1.37634,
-1.39465,1.39618,
-1.39465,1.39313,
-1.39465,1.38702,
-1.39465,1.38702,
-1.39771,1.3916,
-1.40381,1.39313,
-1.40839,1.40839,
-1.41449,1.39313,
-1.41602,1.38855,
-1.42212,1.39008,
-1.42822,1.39923,
-1.42822,1.39618,
-1.43433,1.3916,
-1.43433,1.38245,
-1.44043,1.38855,
-1.44958,1.39923,
-1.45874,1.39313,
-1.46484,1.38855,
-1.47095,1.39008,
-1.48163,1.3916,
-1.49384,1.40381,
-1.49994,1.39923,
-1.5152,1.39008,
-1.52588,1.3916,
-1.53503,1.39008,
-1.55029,1.40076,
-1.56555,1.39923,
-1.57928,1.39771,
-1.59454,1.40228,
-1.6098,1.39313,
-1.62659,1.39771,
-1.63879,1.39923,
-1.65253,1.39618,
-1.66779,1.39313,
-1.67999,1.39618,
-1.69525,1.40533,
-1.70898,1.40533,
-1.72577,1.3916,
-1.7395,1.39923,
-1.74866,1.40076,
-1.76392,1.40533,
-1.7746,1.39771,
-1.7868,1.40076,
-1.80359,1.39313,
-1.8158,1.40076,
-1.83105,1.40228,
-1.84326,1.40381,
-1.85547,1.40228,
-1.8692,1.3916,
-1.88141,1.39008,
-1.89056,1.40533,
-1.9043,1.40076,
-1.9165,1.39923,
-1.93329,1.39923,
-1.94092,1.38702,
-1.95618,1.40533,
-1.96991,1.40533,
-1.98212,1.39923,
-1.99738,1.40076,
-2.01263,1.39771,
-2.02484,1.39923,
-2.04163,1.40686,
-2.05383,1.40381,
-2.06451,1.40076,
-2.07825,1.40228,
-2.09503,1.40686,
-2.11029,1.40686,
-2.1225,1.40533,
-2.13928,1.40076,
-2.14996,1.40533,
-2.16217,1.40991,
-2.17438,1.40839,
-2.18811,1.40381,
-2.19879,1.40228,
-2.22015,1.40533,
-2.23236,1.40991,
-2.24457,1.40533,
-2.25525,1.3916,
-2.26746,1.40381,
-2.28119,1.40686,
-2.29645,1.41144,
-2.30103,1.40686,
-2.30865,1.40991,
-2.31171,1.41144,
-2.31171,1.40686,
-2.30713,1.41144,
-2.2995,1.41144,
-2.28882,1.40381,
-2.27814,1.40839,
-2.25677,1.40686,
-2.24152,1.41449,
-2.21863,1.40381,
-2.18506,1.40839,
-2.15607,1.40839,
-2.1225,1.41296,
-2.0874,1.41602,
-2.04468,1.42059,
-2.00653,1.40991,
-1.96686,1.41449,
-1.92719,1.40839,
-1.88751,1.41602,
-1.84631,1.41754,
-1.80817,1.40991,
-1.76697,1.41296,
-1.72729,1.41144,
-1.6922,1.41296,
-1.65558,1.41754,
-1.62201,1.41144,
-1.58081,1.40839,
-1.55182,1.41296,
-1.52588,1.41602,
-1.49841,1.42059,
-1.46942,1.41144,
-1.44653,1.41144,
-1.42365,1.41449,
-1.39771,1.41602,
-1.38397,1.41602,
-1.36261,1.41296,
-1.34583,1.41449,
-1.32904,1.41602,
-1.31378,1.42059,
-1.29852,1.42212,
-1.28479,1.41754,
-1.27411,1.41602,
-1.26038,1.41602,
-1.25275,1.41907,
-1.24207,1.42212,
-1.23291,1.41449,
-1.22375,1.40686,
-1.21918,1.40991,
-1.2146,1.42059,
-1.2085,1.42059,
-1.20239,1.41907,
-1.20087,1.41907,
-1.19629,1.41754,
-1.19476,1.42059,
-1.19781,1.42212,
-1.19629,1.41449,
-1.20087,1.41602,
-1.20544,1.41907,
-1.21155,1.42212,
-1.21613,1.42517,
-1.2207,1.42212,
-1.22986,1.41754,
-1.23291,1.42059,
-1.24512,1.42517,
-1.25122,1.42212,
-1.26038,1.42059,
-1.27411,1.41754,
-1.28479,1.42059,
-1.29089,1.41907,
-1.30157,1.44196,
-1.31226,1.42212,
-1.31683,1.41602,
-1.32599,1.42059,
-1.33514,1.42517,
-1.34735,1.42517,
-1.35193,1.42365,
-1.36108,1.42059,
-1.36719,1.41449,
-1.37482,1.42822,
-1.38245,1.42822,
-1.39008,1.42212,
-1.39618,1.41907,
-1.39771,1.42517,
-1.40076,1.4328,
-1.40533,1.41907,
-1.40839,1.42975,
-1.41449,1.42517,
-1.42059,1.42365,
-1.42212,1.42365,
-1.42365,1.42975,
-1.42975,1.42517,
-1.42822,1.42517,
-1.43433,1.42517,
-1.4389,1.42975,
-1.44196,1.4328,
-1.44196,1.42365,
-1.44958,1.42059,
-1.45874,1.42822,
-1.46179,1.42975,
-1.4679,1.4328,
-1.47552,1.42517,
-1.48163,1.42517,
-1.48926,1.42975,
-1.49231,1.43127,
-1.50299,1.43127,
-1.51062,1.42365,
-1.51978,1.41754,
-1.52588,1.42975,
-1.53503,1.43127,
-1.55182,1.43433,
-1.55792,1.43127,
-1.57013,1.42975,
-1.58386,1.42517,
-1.60065,1.4328,
-1.61285,1.43127,
-1.62964,1.43585,
-1.6449,1.42975,
-1.66626,1.42975,
-1.67694,1.43433,
-1.6983,1.43585,
-1.71051,1.42975,
-1.72577,1.43127,
-1.73645,1.43127,
-1.74866,1.43433,
-1.76544,1.43585,
-1.7807,1.42975,
-1.79596,1.43127,
-1.80969,1.43127,
-1.82953,1.43738,
-1.84021,1.43433,
-1.85394,1.43585,
-1.86768,1.42822,
-1.87988,1.42517,
-1.88904,1.43127,
-1.90582,1.43585,
-1.91498,1.43585,
-1.92719,1.4328,
-1.93634,1.43585,
-1.9516,1.4389,
-1.96533,1.43585,
-1.97601,1.4328,
-1.99127,1.43433,
-2.00653,1.4328,
-2.02026,1.4389,
-2.03705,1.43585,
-2.04773,1.43738,
-2.05994,1.4328,
-2.07214,1.43433,
-2.08435,1.44043,
-2.09961,1.43585,
-2.11029,1.43433,
-2.12402,1.43127,
-2.1286,1.43433,
-2.14386,1.44043,
-2.15607,1.4328,
-2.17285,1.43433,
-2.18658,1.43433,
-2.19574,1.4328,
-2.20642,1.44043,
-2.21863,1.43738,
-2.23236,1.43127,
-2.24762,1.44196,
-2.26135,1.4328,
-2.27356,1.44196,
-2.28424,1.44043,
-2.2934,1.43433,
-2.30255,1.4328,
-2.31476,1.43738,
-2.31781,1.44043,
-2.32849,1.4389,
-2.33154,1.43738,
-2.33307,1.43585,
-2.33612,1.43585,
-2.34375,1.44043,
-2.34222,1.4389,
-2.33612,1.4389,
-2.33154,1.4328,
-2.32849,1.43585,
-2.32086,1.44043,
-2.30713,1.44043,
-2.29187,1.4389,
-2.27661,1.43585,
-2.2583,1.43433,
-2.23846,1.44196,
-2.21252,1.4389,
-2.18811,1.43738,
-2.16217,1.43738,
-2.1347,1.43738,
-2.10571,1.44653,
-2.07825,1.44043,
-2.04926,1.4389,
-2.01874,1.43738,
-1.98517,1.43738,
-1.95618,1.44196,
-1.92261,1.44501,
-1.88904,1.44043,
-1.85852,1.43585,
-1.82648,1.43585,
-1.79138,1.44196,
-1.76392,1.44501,
-1.73187,1.4389,
-1.70135,1.43585,
-1.67236,1.43738,
-1.64642,1.44348,
-1.62201,1.44501,
-1.6037,1.43738,
-1.58081,1.43738,
-1.5625,1.44043,
-1.54877,1.44653,
-1.53198,1.44196,
-1.51978,1.43738,
-1.50604,1.44043,
-1.49231,1.44043,
-1.48315,1.44348,
-1.474,1.4389,
-1.47247,1.44348,
-1.46637,1.4389,
-1.45874,1.4389,
-1.45111,1.44501,
-1.44653,1.44653,
-1.4389,1.43738,
-1.43585,1.44043,
-1.4267,1.44043,
-1.4267,1.44653,
-1.42212,1.44501,
-1.42059,1.44196,
-1.41754,1.4389,
-1.41754,1.44043,
-1.41754,1.44348,
-1.42059,1.44501,
-1.42212,1.4389,
-1.41907,1.44348,
-1.42365,1.44196,
-1.42517,1.45111,
-1.43127,1.44653,
-1.43585,1.44196,
-1.4389,1.43738,
-1.44348,1.44043,
-1.45264,1.44653,
-1.45416,1.44501,
-1.45874,1.44196,
-1.46484,1.44043,
-1.47095,1.44196,
-1.47705,1.44806,
-1.4801,1.44348,
-1.49078,1.44501,
-1.49689,1.44043,
-1.50452,1.4389,
-1.51825,1.44653,
-1.52588,1.44348,
-1.5274,1.44348,
-1.53351,1.44196,
-1.53809,1.44196,
-1.54572,1.44501,
-1.55334,1.44501,
-1.55182,1.44196,
-1.5564,1.44196,
-1.56097,1.44043,
-1.5625,1.44958,
-1.56555,1.44501,
-1.5686,1.44196,
-1.57166,1.44348,
-1.57318,1.4389,
-1.57623,1.44958,
-1.57623,1.44653,
-1.58081,1.44348,
-1.58081,1.44501,
-1.58844,1.44043,
-1.58844,1.44653,
-1.59607,1.44501,
-1.59912,1.44043,
-1.6037,1.44043,
-1.60522,1.44348,
-1.62048,1.45111,
-1.62964,1.44806,
-1.63574,1.44501,
-1.64795,1.44043,
-1.65558,1.44196,
-1.67084,1.44653,
-1.67847,1.44653,
-1.6922,1.44196,
-1.70746,1.44501,
-1.71661,1.44501,
-1.7334,1.44653,
-1.75476,1.44653,
-1.76849,1.44501,
-1.78528,1.4389,
-1.80206,1.44043,
-1.8158,1.44653,
-1.82953,1.44653,
-1.85089,1.44348,
-1.86462,1.44348,
-1.88141,1.44043,
-1.90277,1.45111,
-1.92261,1.44501,
-1.94702,1.4389,
-1.97144,1.44043,
-1.9928,1.44196,
-2.01721,1.44958,
-2.03857,1.44501,
-2.06757,1.44501,
-2.09045,1.45111,
-2.11639,1.4389,
-2.14081,1.44806,
-2.16217,1.44348,
-2.18658,1.44501,
-2.211,1.44348,
-2.23389,1.44196,
-2.25525,1.44806,
-2.27661,1.45111,
-2.29797,1.44348,
-2.31781,1.44196,
-2.33612,1.44196,
-2.36359,1.44958,
-2.37732,1.44653,
-2.39105,1.44348,
-2.40631,1.4389,
-2.42615,1.44348,
-2.44293,1.44806,
-2.45667,1.44501,
-2.46887,1.44348,
-2.48108,1.43738,
-2.49786,1.43738,
-2.51312,1.4389,
-2.52686,1.44348,
-2.54059,1.44043,
-2.5528,1.44043,
-2.56958,1.44196,
-2.58484,1.44958,
-2.60162,1.44501,
-2.61841,1.44043,
-2.63519,1.4389,
-2.64587,1.44196,
-2.65961,1.44958,
-2.67487,1.44501,
-2.69165,1.44348,
-2.70386,1.44348,
-2.71759,1.44196,
-2.73438,1.44653,
-2.74963,1.44653,
-2.76642,1.44043,
-2.77863,1.44196,
-2.79846,1.44196,
-2.81067,1.44653,
-2.82745,1.44806,
-2.84119,1.44196,
-2.85797,1.4389,
-2.87476,1.45569,
-2.88544,1.44501,
-2.90375,1.44653,
-2.91901,1.44348,
-2.93427,1.44348,
-2.94495,1.44196,
-2.95868,1.44806,
-2.97394,1.45721,
-2.98462,1.4328,
-3.0014,1.44348,
-3.01819,1.44043,
-3.02429,1.44806,
-3.0365,1.44806,
-3.04565,1.44348,
-3.04718,1.44043,
-3.05176,1.44043,
-3.05023,1.44958,
-3.04718,1.44348,
-3.04565,1.44043,
-3.0365,1.44043,
-3.02429,1.44043,
-3.00751,1.44806,
-2.9953,1.44196,
-2.97089,1.4389,
-2.94495,1.44043,
-2.91901,1.44196,
-2.88696,1.44348,
-2.85797,1.44348,
-2.82898,1.44348,
-2.79846,1.44196,
-2.76642,1.44196,
-2.73132,1.44501,
-2.70233,1.44653,
-2.66724,1.44043,
-2.63977,1.4389,
-2.6123,1.44043,
-2.58789,1.44501,
-2.55737,1.44501,
-2.53143,1.44043,
-2.49939,1.44043,
-2.47955,1.44348,
-2.45361,1.44348,
-2.42462,1.44196,
-2.40173,1.4389,
-2.38037,1.44043,
-2.36053,1.43738,
-2.34528,1.44653,
-2.33154,1.44348,
-2.31628,1.44196,
-2.30255,1.45416,
-2.29187,1.43585,
-2.28577,1.44653,
-2.27814,1.44043,
-2.27051,1.4389,
-2.26746,1.4389,
-2.27051,1.44501,
-2.2644,1.44806,
-2.26593,1.44501,
-2.26593,1.43433,
-2.2644,1.44043,
-2.2644,1.42975,
-2.2644,1.44348,
-2.26746,1.44501,
-2.26593,1.44043,
-2.27203,1.44348,
-2.27814,1.4389,
-2.27966,1.44501,
-2.28729,1.44501,
-2.29034,1.44043,
-2.29492,1.43585,
-2.30103,1.43585,
-2.3056,1.44348,
-2.31018,1.44043,
-2.31476,1.44196,
-2.32239,1.4389,
-2.33002,1.4389,
-2.3407,1.44348,
-2.34375,1.44043,
-2.35291,1.44043,
-2.35901,1.4389,
-2.36816,1.4389,
-2.37885,1.44348,
-2.38342,1.44196,
-2.38953,1.44348,
-2.39716,1.44043,
-2.39868,1.43433,
-2.40479,1.44043,
-2.40631,1.44196,
-2.40936,1.44196,
-2.41089,1.43585,
-2.41547,1.43738,
-2.41699,1.44653,
-2.41852,1.44043,
-2.41699,1.4389,
-2.42157,1.43585,
-2.41852,1.43738,
-2.41547,1.44043,
-2.41547,1.44043,
-2.41394,1.43738,
-2.41547,1.44043,
-2.41699,1.43585,
-2.4231,1.44043,
-2.42462,1.44196,
-2.42462,1.43433,
-2.42767,1.43585,
-2.43225,1.4389,
-2.43683,1.44043,
-2.43835,1.43738,
-2.44751,1.43738,
-2.45056,1.43738,
-2.45819,1.4389,
-2.46124,1.44043,
-2.46887,1.43585,
-2.47803,1.43585,
-2.48566,1.43433,
-2.49481,1.43585,
-2.50549,1.44196,
-2.51465,1.44196,
-2.52228,1.44043,
-2.53143,1.43585,
-2.54669,1.42517,
-2.55432,1.44348,
-2.56042,1.44043,
-2.57263,1.43127,
-2.58179,1.43585,
-2.59247,1.43738,
-2.60468,1.44043,
-2.61841,1.43585,
-2.62756,1.43433,
-2.6413,1.43738,
-2.65503,1.43585,
-2.66418,1.43738,
-2.67792,1.4389,
-2.69012,1.43585,
-2.69775,1.43738,
-2.70538,1.4328,
-2.71454,1.4389,
-2.72675,1.43738,
-2.73743,1.43585,
-2.74963,1.43433,
-2.76184,1.43127,
-2.77252,1.43738,
-2.7832,1.43738,
-2.79846,1.43585,
-2.81525,1.43433,
-2.82593,1.43738,
-2.83813,1.43738,
-2.85645,1.43585,
-2.87018,1.4328,
-2.88544,1.43585,
-2.9007,1.43585,
-2.90985,1.4389,
-2.92358,1.43585,
-2.93274,1.4328,
-2.94495,1.43433,
-2.9541,1.4328,
-2.96936,1.43738,
-2.97546,1.4389,
-2.98462,1.4328,
-2.9953,1.4328,
-3.00446,1.43127,
-3.00903,1.43738,
-3.02277,1.43433,
-3.03192,1.42975,
-3.0365,1.4328,
-3.04565,1.4328,
-3.05023,1.43433,
-3.05786,1.43585,
-3.06702,1.4328,
-3.07465,1.43433,
-3.0838,1.42975,
-3.0899,1.43433,
-3.10059,1.43585,
-3.10974,1.43127,
-3.11432,1.42822,
-3.12347,1.43127,
-3.12805,1.43585,
-3.13721,1.4389,
-3.14636,1.42975,
-3.15094,1.42975,
-3.16467,1.4328,
-3.17078,1.4328,
-3.18146,1.43127,
-3.19061,1.4328,
-3.19977,1.43127,
-3.2074,1.43433,
-3.21503,1.43433,
-3.2196,1.4328,
-3.22876,1.43738,
-3.22876,1.43433,
-3.22876,1.42822,
-3.22571,1.43738,
-3.21655,1.4328,
-3.21655,1.43433,
-3.2074,1.42975,
-3.19214,1.42975,
-3.17993,1.43585,
-3.16162,1.43433,
-3.14178,1.42975,
-3.1189,1.42822,
-3.08838,1.42975,
-3.07007,1.4328,
-3.0426,1.4328,
-3.01819,1.42975,
-2.9953,1.4328,
-2.97394,1.42975,
-2.94495,1.43433,
-2.92053,1.43433,
-2.89917,1.42517,
-2.87476,1.42517,
-2.85034,1.42975,
-2.83661,1.43433,
-2.8183,1.43127,
-2.79999,1.42822,
-2.78168,1.42975,
-2.76947,1.42975,
-2.75574,1.43433,
-2.74353,1.43433,
-2.73285,1.42365,
-2.72369,1.43127,
-2.71301,1.42975,
-2.70386,1.4328,
-2.69775,1.42975,
-2.69165,1.42822,
-2.69012,1.42975,
-2.69012,1.42517,
-2.69012,1.43127,
-2.68402,1.43127,
-2.68707,1.42517,
-2.68707,1.42822,
-2.68707,1.42517,
-2.69318,1.43433,
-2.69318,1.43433,
-2.69928,1.42517,
-2.70538,1.42822,
-2.71301,1.42975,
-2.71912,1.4328,
-2.72369,1.43127,
-2.73285,1.42517,
-2.74048,1.42822,
-2.74963,1.41907,
-2.75879,1.41754,
-2.76489,1.43127,
-2.77405,1.42212,
-2.77863,1.42365,
-2.79388,1.42365,
-2.80609,1.43127,
-2.82135,1.42975,
-2.83051,1.42212,
-2.84119,1.42517,
-2.85034,1.42517,
-2.86255,1.42975,
-2.8717,1.42822,
-2.88544,1.42212,
-2.89612,1.42365,
-2.90833,1.42365,
-2.91595,1.43433,
-2.92511,1.42975,
-2.93427,1.42212,
-2.94189,1.42059,
-2.948,1.42517,
-2.95868,1.43127,
-2.96326,1.42517,
-2.96783,1.42212,
-2.97241,1.41907,
-2.97089,1.42365,
-2.97699,1.42517,
-2.97852,1.4328,
-2.97852,1.42059,
-2.98309,1.42365,
-2.98309,1.42212,
-2.98767,1.42822,
-2.98767,1.42975,
-2.98767,1.41907,
-2.98309,1.42212,
-2.98615,1.42212,
-2.98157,1.42365,
-2.98462,1.42517,
-2.98004,1.42059,
-2.98309,1.41449,
-2.98309,1.42365,
-2.98309,1.42365,
-2.98615,1.42517,
-2.9892,1.42365,
-2.99377,1.42365,
-2.99683,1.42212,
-2.99683,1.42365,
-3.00446,1.42365,
-3.00598,1.42059,
-3.01361,1.41754,
-3.01666,1.42212,
-3.02124,1.42365,
-3.0304,1.42365,
-3.03802,1.42365,
-3.03955,1.41907,
-3.04718,1.42059,
-3.05176,1.42365,
-3.06244,1.42822,
-3.06549,1.41907,
-3.07465,1.41907,
-3.0838,1.42059,
-3.09143,1.42517,
-3.10211,1.42517,
-3.10974,1.41754,
-3.11737,1.42059,
-3.1311,1.41907,
-3.13568,1.41907,
-3.14178,1.42365,
-3.15399,1.41907,
-3.16162,1.41602,
-3.17383,1.42365,
-3.18146,1.41602,
-3.18909,1.43127,
-3.19214,1.42059,
-3.20282,1.41144,
-3.20892,1.42059,
-3.2135,1.42365,
-3.22113,1.42365,
-3.22876,1.41907,
-3.23639,1.41754,
-3.24249,1.42059,
-3.2486,1.42059,
-3.25775,1.42059,
-3.26843,1.41754,
-3.27911,1.41449,
-3.28827,1.41602,
-3.29742,1.41907,
-3.30811,1.42212,
-3.32031,1.41907,
-3.32794,1.41602,
-3.34167,1.41602,
-3.35083,1.41907,
-3.35999,1.41754,
-3.37524,1.40991,
-3.38593,1.41296,
-3.39813,1.41602,
-3.41034,1.42059,
-3.41949,1.42059,
-3.43323,1.41754,
-3.44696,1.41754,
-3.46069,1.41754,
-3.46527,1.41754,
-3.47595,1.42365,
-3.48358,1.41602,
-3.48969,1.41144,
-3.49731,1.42059,
-3.50037,1.41449,
-3.51257,1.42212,
-3.51257,1.41449,
-3.5141,1.41144,
-3.52173,1.41144,
-3.52325,1.41907,
-3.52783,1.41602,
-3.53699,1.41144,
-3.53851,1.41296,
-3.54462,1.41602,
-3.55225,1.41907,
-3.55377,1.41602,
-3.55682,1.41296,
-3.55835,1.41144,
-3.55988,1.41602,
-3.56445,1.41907,
-3.5675,1.41754,
-3.56598,1.41144,
-3.56445,1.41449,
-3.56293,1.41602,
-3.5553,1.41754,
-3.54462,1.42059,
-3.53241,1.41296,
-3.51715,1.41449,
-3.49731,1.41296,
-3.47748,1.41602,
-3.45001,1.41907,
-3.42865,1.41144,
-3.40118,1.41449,
-3.37677,1.41449,
-3.35083,1.41449,
-3.32336,1.41907,
-3.2959,1.41144,
-3.26843,1.41449,
-3.24249,1.41296,
-3.21045,1.41296,
-3.18604,1.42059,
-3.15857,1.40991,
-3.1311,1.40839,
-3.10516,1.41449,
-3.08075,1.42059,
-3.05939,1.41754,
-3.04108,1.40839,
-3.01666,1.41296,
-2.99988,1.41296,
-2.97852,1.41449,
-2.96631,1.41907,
-2.95105,1.41449,
-2.93732,1.40686,
-2.92816,1.41144,
-2.9129,1.41754,
-2.90527,1.42212,
-2.89459,1.41144,
-2.89001,1.40686,
-2.88086,1.41144,
-2.8717,1.41449,
-2.86407,1.41754,
-2.85645,1.40991,
-2.85645,1.40839,
-2.84882,1.41144,
-2.84271,1.41449,
-2.84119,1.41907,
-2.83508,1.40991,
-2.83051,1.40991,
-2.82135,1.40991,
-2.81372,1.41296,
-2.80609,1.41602,
-2.79846,1.40686,
-2.78778,1.40839,
-2.77863,1.41144,
-2.771,1.41296,
-2.76489,1.41754,
-2.75726,1.41296,
-2.74658,1.40533,
-2.73743,1.41144,
-2.72827,1.41449,
-2.71759,1.41449,
-2.71301,1.40839,
-2.70233,1.40686,
-2.69623,1.41296,
-2.69623,1.41296,
-2.69012,1.41296,
-2.6886,1.40839,
-2.68707,1.40533,
-2.69012,1.41144,
-2.69318,1.41296,
-2.69623,1.41296,
-2.69623,1.40991,
-2.69775,1.40839,
-2.69623,1.41144,
-2.69012,1.41144,
-2.69165,1.41602,
-2.69012,1.40686,
-2.6947,1.40381,
-2.69623,1.41144,
-2.6947,1.41449,
-2.6947,1.41144,
-2.69928,1.40839,
-2.69928,1.40686,
-2.69928,1.41296,
-2.6947,1.40991,
-2.6947,1.41144,
-2.69165,1.40686,
-2.68707,1.40381,
-2.68707,1.41296,
-2.68097,1.41144,
-2.68097,1.41602,
-2.67487,1.40686,
-2.67639,1.40686,
-2.67792,1.41144,
-2.67639,1.40839,
-2.67639,1.41296,
-2.67487,1.40839,
-2.67792,1.40381,
-2.67792,1.41296,
-2.68402,1.40991,
-2.68707,1.40991,
-2.68707,1.40381,
-2.69165,1.40076,
-2.69012,1.40839,
-2.6947,1.41144,
-2.69775,1.41449,
-2.69775,1.40686,
-2.70081,1.40381,
-2.70233,1.40839,
-2.70386,1.40991,
-2.70844,1.41144,
-2.71149,1.40533,
-2.71301,1.40228,
-2.72064,1.40228,
-2.72369,1.41296,
-2.72827,1.40991,
-2.73285,1.40381,
-2.74048,1.40381,
-2.74963,1.40686,
-2.76184,1.40533,
-2.76947,1.40533,
-2.78015,1.40228,
-2.79236,1.40381,
-2.79999,1.40991,
-2.81525,1.40381,
-2.82593,1.40991,
-2.83661,1.40381,
-2.84424,1.39923,
-2.85187,1.40839,
-2.86102,1.40533,
-2.87018,1.40991,
-2.87476,1.40228,
-2.89001,1.40076,
-2.89459,1.41144,
-2.9068,1.40533,
-2.91138,1.41144,
-2.92053,1.40381,
-2.92816,1.40228,
-2.93732,1.40686,
-2.94189,1.40381,
-2.95105,1.40839,
-2.9541,1.40381,
-2.95563,1.41602,
-2.96173,1.40839,
-2.96631,1.40991,
-2.97089,1.40991,
-2.97699,1.40381,
-2.98004,1.40076,
-2.98309,1.40991,
-2.9953,1.40991,
-3.00293,1.40533,
-3.00903,1.40228,
-3.01361,1.40228,
-3.02124,1.40533,
-3.02887,1.40381,
-3.03345,1.40533,
-3.04108,1.40076,
-3.04413,1.40228,
-3.05634,1.40991,
-3.06244,1.40381,
-3.06702,1.40686,
-3.07465,1.39771,
-3.08075,1.39923,
-3.08533,1.40686,
-3.0899,1.40686,
-3.09601,1.41144,
-3.10211,1.40076,
-3.10822,1.39008,
-3.11432,1.40533,
-3.11584,1.40533,
-3.12195,1.40991,
-3.12347,1.40228,
-3.125,1.39771,
-3.125,1.40533,
-3.12805,1.40686,
-3.12653,1.41144,
-3.12653,1.40228,
-3.12195,1.39771,
-3.11584,1.40228,
-3.11279,1.40533,
-3.10364,1.40686,
-3.08838,1.40533,
-3.0777,1.39771,
-3.05939,1.40381,
-3.04413,1.40533,
-3.01666,1.40839,
-2.99377,1.39923,
-2.96936,1.39618,
-2.94647,1.40533,
-2.92358,1.40533,
-2.89917,1.40533,
-2.87628,1.40228,
-2.85034,1.40076,
-2.8244,1.40228,
-2.79694,1.40076,
-2.771,1.40533,
-2.74811,1.39923,
-2.72369,1.40076,
-2.70233,1.40381,
-2.67944,1.40381,
-2.65656,1.40839,
-2.63672,1.39923,
-2.62299,1.39618,
-2.6062,1.40381,
-2.59094,1.40228,
-2.57568,1.39313,
-2.56348,1.39618,
-2.55432,1.39618,
-2.54364,1.40533,
-2.53754,1.40839,
-2.52533,1.40533,
-2.51923,1.40076,
-2.50854,1.3916,
-2.50092,1.40228,
-2.49329,1.40076,
-2.48718,1.40381,
-2.48108,1.39923,
-2.47345,1.39313,
-2.46582,1.40381,
-2.45819,1.40076,
-2.45056,1.40381,
-2.44446,1.39771,
-2.44293,1.39618,
-2.43835,1.40228,
-2.43225,1.40533,
-2.4292,1.40381,
-2.42462,1.39618,
-2.41547,1.39771,
-2.41394,1.40076,
-2.40631,1.39771,
-2.40173,1.40228,
-2.39868,1.39618,
-2.39563,1.39618,
-2.39258,1.40839,
-2.39258,1.40381,
-2.388,1.40381,
-2.38495,1.39771,
-2.38342,1.39313,
-2.3819,1.40228,
-2.3819,1.40381,
-2.37427,1.40533,
-2.37427,1.39771,
-2.37427,1.39313,
-2.36511,1.40228,
-2.36359,1.40076,
-2.36053,1.40228,
-2.35748,1.40076,
-2.35748,1.39618,
-2.35748,1.40381,
-2.35596,1.40076,
-2.34985,1.40228,
-2.34528,1.40076,
-2.3407,1.39618,
-2.33612,1.40076,
-2.33154,1.40228,
-2.33459,1.40228,
-2.33002,1.39313,
-2.32544,1.39618,
-2.32239,1.40076,
-2.31628,1.40076,
-2.31171,1.40076,
-2.31171,1.39618,
-2.30255,1.39008,
-2.30103,1.40076,
-2.2995,1.40076,
-2.30103,1.39923,
-2.30255,1.40076,
-2.30103,1.3916,
-2.29645,1.40228,
-2.2934,1.40076,
-2.2934,1.40228,
-2.2934,1.40228,
-2.29034,1.3855,
-2.2934,1.40228,
-2.2995,1.39923,
-2.30255,1.40228,
-2.30713,1.39771,
-2.31018,1.39313,
-2.31476,1.40228,
-2.31323,1.39923,
-2.31781,1.40076,
-2.32239,1.39313,
-2.32086,1.39313,
-2.32239,1.40228,
-2.32239,1.40381,
-2.32391,1.39923,
-2.32544,1.39313,
-2.32849,1.39618,
-2.33612,1.39313,
-2.34222,1.40228,
-2.35291,1.39923,
-2.35748,1.39313,
-2.36206,1.39008,
-2.36664,1.39923,
-2.37122,1.40076,
-2.37885,1.39313,
-2.38953,1.39313,
-2.39563,1.39618,
-2.40173,1.40076,
-2.41394,1.40076,
-2.42462,1.39923,
-2.43073,1.39618,
-2.43988,1.40076,
-2.45056,1.39618,
-2.45361,1.39618,
-2.46429,1.40228,
-2.47192,1.39618,
-2.48108,1.39313,
-2.49176,1.39923,
-2.50244,1.39923,
-2.51465,1.40533,
-2.52228,1.3916,
-2.53143,1.3916,
-2.54669,1.40076,
-2.56195,1.39923,
-2.57416,1.39771,
-2.58484,1.3916,
-2.59857,1.39008,
-2.60925,1.39923,
-2.61841,1.40228,
-2.62909,1.39771,
-2.63672,1.38397,
-2.64435,1.3916,
-2.65503,1.39771,
-2.66113,1.39771,
-2.66724,1.39923,
-2.67487,1.39618,
-2.68555,1.3916,
-2.6947,1.41449,
-2.70538,1.39618,
-2.71149,1.39771,
-2.72064,1.38702,
-2.72827,1.39771,
-2.7359,1.39923,
-2.73743,1.39313,
-2.74506,1.40228,
-2.74658,1.39313,
-2.75269,1.39618,
-2.75879,1.39771,
-2.76489,1.40228,
-2.76489,1.39923,
-2.77405,1.3916,
-2.7771,1.38855,
-2.78778,1.39923,
-2.79388,1.39923,
-2.79999,1.40228,
-2.80609,1.38702,
-2.81067,1.3916,
-2.81677,1.39923,
-2.8244,1.40076,
-2.82593,1.39923,
-2.83203,1.39618,
-2.83813,1.3916,
-2.84119,1.39771,
-2.84271,1.39923,
-2.84576,1.39618,
-2.84119,1.39618,
-2.84576,1.39313,
-2.84729,1.39313,
-2.84576,1.40076,
-2.84424,1.40076,
-2.83661,1.39008,
-2.83051,1.39618,
-2.81677,1.38702,
-2.80762,1.40228,
-2.79388,1.39771,
-2.77557,1.38855,
-2.76031,1.39313,
-2.74506,1.39618,
-2.72064,1.39313,
-2.69775,1.39771,
-2.67639,1.39313,
-2.6535,1.38855,
-2.63062,1.39618,
-2.60468,1.39618,
-2.58331,1.40533,
-2.55432,1.3916,
-2.53296,1.38702,
-2.50397,1.3916,
-2.48566,1.40686,
-2.46277,1.40076,
-2.44598,1.38855,
-2.42462,1.39313,
-2.40631,1.39618,
-2.39105,1.39771,
-2.37579,1.39923,
-2.36206,1.38702,
-2.34833,1.3916,
-2.33459,1.39923,
-2.32544,1.39618,
-2.31476,1.39923,
-2.30865,1.39313,
-2.30103,1.39313,
-2.2995,1.39618,
-2.29797,1.39771,
-2.2934,1.39313,
-2.29187,1.39008,
-2.28882,1.39008,
-2.28577,1.3916,
-2.28271,1.39923,
-2.27814,1.39771,
-2.27814,1.3916,
-2.27814,1.3916,
-2.27661,1.39618,
-2.27356,1.39313,
-2.27509,1.39618,
-2.27203,1.39008,
-2.27051,1.39008,
-2.2644,1.39618,
-2.2644,1.39771,
-2.2644,1.39923,
-2.26593,1.39008,
-2.26746,1.39008,
-2.27356,1.39618,
-2.27356,1.39771,
-2.27051,1.39771,
-2.27509,1.39008,
-2.27661,1.39008,
-2.27814,1.39923,
-2.27509,1.39618,
-2.27356,1.39923,
-2.27661,1.39008,
-2.27966,1.39008,
-2.28119,1.39923,
-2.27814,1.39618,
-2.28271,1.39313,
-2.28271,1.3916,
-2.28424,1.38855,
-2.28271,1.39313,
-2.28424,1.39923,
-2.28119,1.39771,
-2.27509,1.3916,
-2.27203,1.38855,
-2.26288,1.3916,
-2.25983,1.40228,
-2.25525,1.39771,
-2.24609,1.38855,
-2.24152,1.3916,
-2.23389,1.39313,
-2.22778,1.39771,
-2.22473,1.3916,
-2.22168,1.39313,
-2.22015,1.39313,
-2.22015,1.39618,
-2.21558,1.39313,
-2.20947,1.39771,
-2.20947,1.39008,
-2.20795,1.38855,
-2.20947,1.38855,
-2.20642,1.39771,
-2.20337,1.39618,
-2.20184,1.3916,
-2.2049,1.3855,
-2.20337,1.39771,
-2.20337,1.39313,
-2.20337,1.39008,
-2.19879,1.3916,
-2.20184,1.39008,
-2.20337,1.39313,
-2.2049,1.39618,
-2.2049,1.39618,
-2.20947,1.39313,
-2.20947,1.38702,
-2.21405,1.3916,
-2.21252,1.39618,
-2.21252,1.39618,
-2.21405,1.37939,
-2.2171,1.38092,
-2.21863,1.39313,
-2.22321,1.39923,
-2.22473,1.39771,
-2.23236,1.3855,
-2.23236,1.38855,
-2.23236,1.3916,
-2.24304,1.38397,
-2.24457,1.39771,
-2.24609,1.38855,
-2.24762,1.39313,
-2.25067,1.39313,
-2.25525,1.39771,
-2.25983,1.39618,
-2.26593,1.38855,
-2.27203,1.3855,
-2.27966,1.3916,
-2.28882,1.39771,
-2.29492,1.40228,
-2.30255,1.3916,
-2.31323,1.38702,
-2.32239,1.39771,
-2.33154,1.39313,
-2.3468,1.39008,
-2.35291,1.38855,
-2.36359,1.38855,
-2.36969,1.39618,
-2.37732,1.39771,
-2.38953,1.39771,
-2.39563,1.39618,
-2.40479,1.38702,
-2.41547,1.39313,
-2.4231,1.39771,
-2.42767,1.3916,
-2.43378,1.38702,
-2.43835,1.39008,
-2.44598,1.39313,
-2.45056,1.39313,
-2.45667,1.39618,
-2.45819,1.38855,
-2.45972,1.38855,
-2.46277,1.39313,
-2.46124,1.3916,
-2.46735,1.3916,
-2.46735,1.3916,
-2.46887,1.38702,
-2.4704,1.39313,
-2.47192,1.39771,
-2.47345,1.39771,
-2.4826,1.38855,
-2.48871,1.38397,
-2.49634,1.39313,
-2.50244,1.39618,
-2.5116,1.39771,
-2.51923,1.38702,
-2.52838,1.3855,
-2.53296,1.39313,
-2.54211,1.39771,
-2.54822,1.3916,
-2.5528,1.3916,
-2.55585,1.38855,
-2.5589,1.39008,
-2.55432,1.3916,
-2.54364,1.39313,
-2.53601,1.39008,
-2.52686,1.39008,
-2.51465,1.38855,
-2.49634,1.3916,
-2.47803,1.39008,
-2.45819,1.40076,
-2.4353,1.38855,
-2.41547,1.39313,
-2.39258,1.39618,
-2.36969,1.39313,
-2.34528,1.3855,
-2.32239,1.3916,
-2.29645,1.39008,
-2.26593,1.39313,
-2.24457,1.39771,
-2.2171,1.38702,
-2.19269,1.38855,
-2.16522,1.39008,
-2.14539,1.39313,
-2.12555,1.39618,
-2.10419,1.38855,
-2.0874,1.39008,
-2.06909,1.39313,
-2.05231,1.39771,
-2.03857,1.39313,
-2.02179,1.39008,
-2.00653,1.39008,
-1.98975,1.3916,
-1.98059,1.39313,
-1.97144,1.3916,
-1.96381,1.3916,
-1.9577,1.38855,
-1.9516,1.39008,
-1.9455,1.39313,
-1.93634,1.3916,
-1.93634,1.39008,
-1.93329,1.38702,
-1.92413,1.3916,
-1.92261,1.39618,
-1.91345,1.3916,
-1.9104,1.3855,
-1.90735,1.38855,
-1.90582,1.39313,
-1.90582,1.39771,
-1.90735,1.39618,
-1.90887,1.39008,
-1.90735,1.39008,
-1.90887,1.3916,
-1.90277,1.39618,
-1.9043,1.39618,
-1.90125,1.39008,
-1.90125,1.39313,
-1.90125,1.38855,
-1.9043,1.39923,
-1.89819,1.39771,
-1.89667,1.39008,
-1.89514,1.39313,
-1.89362,1.39313,
-1.88904,1.39618,
-1.88751,1.39008,
-1.88293,1.38855,
-1.87988,1.3855,
-1.87378,1.39618,
-1.8692,1.39618,
-1.86462,1.39313,
-1.85852,1.3916,
-1.86005,1.3916,
-1.85242,1.39008,
-1.85242,1.39771,
-1.85242,1.39923,
-1.84784,1.39313,
-1.84479,1.39008,
-1.84021,1.39313,
-1.83868,1.39313,
-1.83411,1.39771,
-1.83258,1.3916,
-1.828,1.39008,
-1.82495,1.39313,
-1.82037,1.40076,
-1.8158,1.3916,
-1.81122,1.38855,
-1.81427,1.3916,
-1.81274,1.39618,
-1.80969,1.39618,
-1.81122,1.39618,
-1.81274,1.39313,
-1.81274,1.3916,
-1.8158,1.39313,
-1.81732,1.39618,
-1.82037,1.39618,
-1.8219,1.39008,
-1.82648,1.38855,
-1.82495,1.39313,
-1.828,1.39923,
-1.83105,1.39618,
-1.83563,1.3916,
-1.83868,1.3916,
-1.84326,1.39618,
-1.84631,1.39618,
-1.85394,1.39313,
-1.85547,1.3916,
-1.8631,1.39008,
-1.86768,1.39618,
-1.87378,1.39618,
-1.87531,1.39771,
-1.87988,1.3916,
-1.88599,1.38855,
-1.88904,1.39008,
-1.89819,1.39923,
-1.89972,1.39313,
-1.90277,1.38855,
-1.90735,1.39618,
-1.9104,1.39771,
-1.91803,1.39008,
-1.91956,1.38397,
-1.93176,1.3916,
-1.93939,1.3916,
-1.95007,1.39313,
-1.9577,1.39771,
-1.96838,1.39771,
-1.97754,1.39923,
-1.98975,1.3916,
-2.00195,1.39313,
-2.01263,1.39618,
-2.02179,1.39313,
-2.02789,1.3916,
-2.03857,1.3855,
-2.0462,1.39313,
-2.05231,1.39618,
-2.06146,1.3916,
-2.07214,1.38855,
-2.07977,1.39008,
-2.08893,1.39618,
-2.09656,1.39771,
-2.10724,1.39618,
-2.11334,1.3916,
-2.11945,1.39313,
-2.1286,1.39008,
-2.13928,1.39771,
-2.15149,1.39313,
-2.15759,1.38855,
-2.1698,1.39008,
-2.17896,1.3916,
-2.18811,1.40381,
-2.20184,1.39313,
-2.20184,1.38855,
-2.211,1.3855,
-2.22321,1.39771,
-2.23694,1.39923,
-2.25067,1.39771,
-2.2583,1.3916,
-2.27661,1.3916,
-2.28424,1.39923,
-2.2934,1.39618,
-2.30713,1.39771,
-2.31781,1.3916,
-2.32849,1.3916,
-2.33917,1.3916,
-2.34985,1.39923,
-2.36206,1.40076,
-2.37427,1.3916,
-2.38495,1.39008,
-2.38953,1.39923,
-2.39716,1.40228,
-2.41394,1.39618,
-2.42462,1.38855,
-2.42767,1.3916,
-2.43073,1.39618,
-2.43225,1.39923,
-2.43225,1.39923,
-2.43378,1.39771,
-2.42004,1.39313,
-2.40936,1.3916,
-2.3941,1.39313,
-2.37122,1.38855,
-2.34985,1.39313,
-2.33002,1.39008,
-2.30103,1.39618,
-2.27356,1.39923,
-2.24609,1.39771,
-2.2171,1.3916,
-2.18811,1.3916,
-2.15759,1.39618,
-2.1286,1.39771,
-2.10114,1.39618,
-2.07214,1.39313,
-2.0401,1.39618,
-2.01416,1.39618,
-1.98669,1.39771,
-1.96533,1.40076,
-1.94397,1.39313,
-1.92261,1.39008,
-1.90277,1.3916,
-1.87988,1.40228,
-1.8631,1.40381,
-1.84021,1.39313,
-1.82495,1.3916,
-1.80054,1.39923,
-1.7807,1.39923,
-1.76086,1.38702,
-1.74561,1.3916,
-1.72577,1.39313,
-1.70746,1.39313,
-1.68762,1.39771,
-1.67389,1.39923,
-1.65558,1.39313,
-1.64032,1.39008,
-1.62354,1.39618,
-1.60522,1.40076,
-1.59149,1.39313,
-1.57623,1.3916,
-1.56097,1.3916,
-1.55182,1.39618,
-1.53656,1.40686,
-1.52435,1.39923,
-1.5152,1.39008,
-1.50299,1.39618,
-1.49384,1.39313,
-1.48315,1.40228,
-1.46942,1.40076,
-1.46179,1.39771,
-1.45569,1.39008,
-1.44958,1.38855,
-1.44196,1.3916,
-1.43585,1.40076,
-1.43127,1.3916,
-1.4267,1.39313,
-1.42517,1.40076,
-1.42517,1.40076,
-1.42212,1.39923,
-1.42212,1.39313,
-1.42212,1.39313,
-1.42365,1.39771,
-1.42212,1.40076,
-1.42365,1.39618,
-1.42059,1.3916,
-1.42059,1.39618,
-1.41907,1.39313,
-1.42212,1.39618,
-1.41602,1.39618,
-1.41296,1.39008,
-1.40686,1.3916,
-1.40381,1.39313,
-1.40381,1.40381,
-1.39618,1.40076,
-1.39465,1.38855,
-1.3916,1.3916,
-1.3855,1.39618,
-1.38397,1.39771,
-1.37939,1.39618,
-1.37939,1.39618,
-1.37329,1.39771,
-1.37177,1.39923,
-1.37482,1.40381,
-1.37177,1.40076,
-1.37482,1.39008,
-1.37787,1.38855,
-1.38092,1.39313,
-1.37939,1.40533,
-1.38092,1.40076,
-1.38245,1.39313,
-1.3855,1.3916,
-1.38702,1.38855,
-1.38855,1.39771,
-1.39008,1.39771,
-1.38397,1.38702,
-1.38245,1.39313,
-1.38397,1.39618,
-1.38245,1.40381,
-1.38702,1.40076,
-1.38245,1.39618,
-1.3855,1.3855,
-1.38855,1.39923,
-1.39618,1.40839,
-1.39618,1.39618,
-1.39771,1.3916,
-1.39618,1.39313,
-1.39923,1.39923,
-1.40076,1.40228,
-1.40381,1.39923,
-1.40686,1.39008,
-1.40686,1.39618,
-1.41144,1.39923,
-1.41144,1.39771,
-1.41449,1.39923,
-1.41754,1.39313,
-1.41754,1.39008,
-1.41754,1.39618,
-1.41907,1.40533,
-1.42365,1.40076,
-1.42975,1.39313,
-1.43433,1.39313,
-1.44196,1.39923,
-1.44958,1.40076,
-1.45721,1.39313,
-1.46637,1.3916,
-1.47705,1.39313,
-1.48315,1.39313,
-1.48773,1.40076,
-1.49841,1.40228,
-1.50452,1.39313,
-1.50452,1.39618,
-1.51062,1.39008,
-1.51672,1.40381,
-1.52588,1.39923,
-1.53809,1.39008,
-1.54419,1.3916,
-1.5564,1.39313,
-1.5625,1.40533,
-1.57013,1.39923,
-1.57928,1.3916,
-1.58691,1.39313,
-1.59149,1.39771,
-1.59607,1.39771,
-1.6098,1.40076,
-1.61743,1.3916,
-1.62354,1.39618,
-1.63574,1.39771,
-1.64642,1.40381,
-1.6571,1.40076,
-1.66321,1.38855,
-1.67084,1.38855,
-1.67847,1.39771,
-1.68915,1.40076,
-1.69678,1.39771,
-1.70135,1.3916,
-1.71356,1.39313,
-1.72272,1.39923,
-1.7334,1.40076,
-1.74255,1.39313,
-1.74713,1.3916,
-1.75934,1.39008,
-1.77002,1.39313,
-1.78223,1.39923,
-1.78528,1.39923,
-1.79901,1.39313,
-1.80817,1.39618,
-1.81732,1.39771,
-1.82953,1.40533,
-1.83716,1.39771,
-1.84631,1.38855,
-1.85394,1.39313,
-1.86157,1.39923,
-1.87073,1.38855,
-1.87378,1.41907,
-1.87683,1.38855,
-1.87988,1.39313,
-1.88293,1.3916,
-1.87836,1.40381,
-1.8692,1.40228,
-1.86005,1.39618,
-1.84326,1.39771,
-1.828,1.39771,
-1.81122,1.40228,
-1.78528,1.40228,
-1.76239,1.3916,
-1.73798,1.39618,
-1.71051,1.39618,
-1.68304,1.40228,
-1.65405,1.39923,
-1.62811,1.39313,
-1.59454,1.39771,
-1.56403,1.40076,
-1.53961,1.40381,
-1.51215,1.40076,
-1.48468,1.39618,
-1.45874,1.3916,
-1.43433,1.38855,
-1.41144,1.40533,
-1.38702,1.39771,
-1.36108,1.3916,
-1.3382,1.39313,
-1.31989,1.39618,
-1.3031,1.40533,
-1.28784,1.40991,
-1.26801,1.39008,
-1.25732,1.39771,
-1.24664,1.39923,
-1.23138,1.40228,
-1.21918,1.39923,
-1.2085,1.39313,
-1.19171,1.39618,
-1.1795,1.39923,
-1.1673,1.40533,
-1.15356,1.40533,
-1.14288,1.39313,
-1.13068,1.39923,
-1.12,1.40076,
-1.10779,1.40381,
-1.09406,1.40228,
-1.08032,1.39313,
-1.06812,1.39771,
-1.05896,1.40381,
-1.04828,1.40381,
-1.03912,1.39771,
-1.02386,1.39618,
-1.01013,1.39771,
-0.994873,1.39923,
-0.984192,1.40228,
-0.970459,1.39923,
-0.961304,1.39618,
-0.952148,1.39771,
-0.941467,1.39923,
-0.938416,1.40839,
-0.932312,1.39008,
-0.923157,1.39618,
-0.920105,1.39313,
-0.917053,1.39771,
-0.912476,1.40381,
-0.906372,1.40228,
-0.904846,1.3916,
-0.898743,1.40076,
-0.897217,1.3916,
-0.892639,1.40228,
-0.889587,1.40076,
-0.892639,1.39313,
-0.892639,1.39771,
-0.895691,1.39771,
-0.900269,1.40381,
-0.901794,1.40533,
-0.901794,1.39771,
-0.90332,1.39618,
-0.904846,1.40076,
-0.901794,1.40381,
-0.900269,1.39771,
-0.901794,1.39771,
-0.90332,1.39313,
-0.90332,1.40228,
-0.906372,1.40381,
-0.906372,1.40381,
-0.90332,1.39923,
-0.907898,1.39771,
-0.906372,1.39923,
-0.904846,1.40839,
-0.904846,1.40381,
-0.906372,1.39771,
-0.904846,1.39618,
-0.906372,1.40228,
-0.907898,1.40991,
-0.91095,1.39771,
-0.915527,1.39618,
-0.914001,1.39313,
-0.915527,1.40533,
-0.917053,1.40533,
-0.920105,1.40076,
-0.927734,1.40076,
-0.932312,1.39923,
-0.933838,1.40076,
-0.941467,1.40228,
-0.944519,1.40381,
-0.949097,1.39771,
-0.956726,1.39618,
-0.961304,1.39923,
-0.961304,1.40381,
-0.970459,1.40228,
-0.975037,1.40076,
-0.976563,1.39771,
-0.982666,1.40381,
-0.98877,1.40839,
-1.00098,1.40076,
-1.00861,1.40076,
-1.01776,1.40381,
-1.02539,1.39923,
-1.03302,1.40686,
-1.04218,1.40228,
-1.05286,1.39923,
-1.06354,1.39618,
-1.06506,1.40076,
-1.07574,1.40839,
-1.08185,1.40228,
-1.09253,1.40076,
-1.10321,1.39923,
-1.11847,1.40381,
-1.12457,1.40686,
-1.13983,1.40381,
-1.14594,1.39618,
-1.15814,1.39923,
-1.1734,1.40076,
-1.18713,1.40686,
-1.19476,1.40228,
-1.20544,1.40076,
-1.21918,1.39923,
-1.23138,1.40228,
-1.24817,1.40533,
-1.26038,1.40686,
-1.27106,1.39923,
-1.28021,1.40381,
-1.29242,1.40381,
-1.3031,1.40839,
-1.31683,1.40228,
-1.32751,1.39923,
-1.33972,1.40076,
-1.35345,1.40381,
-1.37024,1.40686,
-1.38092,1.40533,
-1.39313,1.40228,
-1.40381,1.40381,
-1.41602,1.40533,
-1.4328,1.40839,
-1.44806,1.40533,
-1.46332,1.39923,
-1.474,1.40076,
-1.48621,1.40228,
-1.50299,1.41144,
-1.51215,1.40533,
-1.52893,1.39771,
-1.54114,1.40381,
-1.55334,1.40686,
-1.5686,1.40839,
-1.57776,1.40533,
-1.59149,1.40076,
-1.60217,1.40381,
-1.61285,1.40381,
-1.62964,1.40686,
-1.64032,1.40839,
-1.64948,1.40076,
-1.66473,1.40076,
-1.67847,1.40533,
-1.68915,1.40991,
-1.70288,1.40686,
-1.70898,1.40076,
-1.71814,1.39923,
-1.73187,1.40228,
-1.74561,1.40991,
-1.75629,1.39771,
-1.76392,1.40381,
-1.7746,1.40533,
-1.78375,1.40533,
-1.79291,1.40991,
-1.80664,1.40533,
-1.81732,1.40533,
-1.8158,1.40228,
-1.82953,1.40381,
-1.83716,1.40991,
-1.84326,1.40686,
-1.84631,1.40228,
-1.84937,1.40076,
-1.84479,1.40228,
-1.84021,1.41602,
-1.83411,1.40533,
-1.82495,1.40076,
-1.81122,1.40381,
-1.79291,1.40533,
-1.77917,1.40839,
-1.75781,1.40533,
-1.73645,1.40228,
-1.71204,1.40533,
-1.68304,1.40381,
-1.66321,1.41449,
-1.62506,1.40839,
-1.60828,1.40228,
-1.57928,1.40381,
-1.55792,1.40228,
-1.53198,1.41144,
-1.50757,1.40533,
-1.48163,1.40381,
-1.45721,1.40228,
-1.4328,1.40839,
-1.40686,1.40991,
-1.38855,1.40533,
-1.36871,1.40381,
-1.34888,1.40381,
-1.32904,1.40381,
-1.31378,1.41296,
-1.29242,1.40991,
-1.27869,1.39771,
-1.25885,1.40839,
-1.25122,1.40686,
-1.23749,1.41449,
-1.22528,1.40686,
-1.21613,1.40228,
-1.21002,1.40686,
-1.19629,1.41144,
-1.19171,1.41144,
-1.18408,1.40991,
-1.17645,1.39923,
-1.1673,1.41296,
-1.15967,1.41296,
-1.15509,1.40686,
-1.15509,1.40686,
-1.14746,1.40533,
-1.14746,1.40381,
-1.14441,1.40686,
-1.14441,1.41144,
-1.14136,1.40686,
-1.14288,1.40381,
-1.13831,1.40839,
-1.13831,1.40839,
-1.13373,1.40991,
-1.1322,1.40686,
-1.13068,1.40686,
-1.1322,1.40381,
-1.12915,1.40533,
-1.1261,1.40991,
-1.12457,1.40686,
-1.12305,1.40839,
-1.12305,1.40991,
-1.12152,1.40381,
-1.12305,1.41602,
-1.12305,1.40839,
-1.12457,1.40076,
-1.12457,1.40839,
-1.13678,1.40686,
