-3.6087,1.3855,
-3.57056,1.37939,
-3.53088,1.37939,
-3.49121,1.38702,
-3.45154,1.39008,
-3.40576,1.38397,
-3.36304,1.38245,
-3.32031,1.38092,
-3.27911,1.38397,
-3.23944,1.39008,
-3.20129,1.38397,
-3.16925,1.38092,
-3.13873,1.38397,
-3.10822,1.39008,
-3.08075,1.39008,
-3.05939,1.38397,
-3.0426,1.3855,
-3.02429,1.38397,
-3.01514,1.38397,
-3.00598,1.38702,
-3.00293,1.38855,
-2.99835,1.38397,
-2.99835,1.38245,
-3.00293,1.38855,
-3.00598,1.39008,
-3.00903,1.38702,
-3.01361,1.3855,
-3.02277,1.38397,
-3.0304,1.38702,
-3.04565,1.39313,
-3.05786,1.38855,
-3.07617,1.38702,
-3.08838,1.38245,
-3.10516,1.38855,
-3.12195,1.38855,
-3.13721,1.3855,
-3.14789,1.39008,
-3.15857,1.38092,
-3.1723,1.3855,
-3.18298,1.39008,
-3.19214,1.3916,
-3.20435,1.38702,
-3.2135,1.38092,
-3.22113,1.39008,
-3.23029,1.3916,
-3.24402,1.38702,
-3.2547,1.38855,
-3.26385,1.3855,
-3.27454,1.3916,
-3.28369,1.39008,
-3.29132,1.39008,
-3.302,1.38702,
-3.31268,1.38702,
-3.31879,1.39008,
-3.33252,1.39618,
-3.34167,1.3855,
-3.35236,1.38855,
-3.36304,1.38702,
-3.36761,1.39771,
-3.3783,1.39313,
-3.38287,1.38702,
-3.38593,1.38702,
-3.39355,1.3855,
-3.39813,1.39313,
-3.40118,1.39618,
-3.40576,1.38855,
-3.40729,1.39313,
-3.40729,1.3855,
-3.40576,1.39008,
-3.40271,1.39618,
-3.40271,1.3916,
-3.40118,1.3916,
-3.40271,1.39008,
-3.39813,1.39008,
-3.39355,1.40076,
-3.38593,1.3916,
-3.38287,1.3916,
-3.38135,1.38855,
-3.37982,1.38855,
-3.37677,1.39771,
-3.37372,1.39313,
-3.37219,1.39313,
-3.37067,1.39008,
-3.36761,1.39313,
-3.36761,1.39923,
-3.36609,1.39618,
-3.36761,1.39771,
-3.37067,1.38702,
-3.37372,1.39313,
-3.37982,1.39923,
-3.3844,1.39313,
-3.3905,1.3916,
-3.39203,1.39313,
-3.39813,1.3916,
-3.40576,1.39923,
-3.41034,1.39618,
-3.41797,1.39618,
-3.42255,1.3916,
-3.4317,1.39923,
-3.44238,1.40228,
-3.45154,1.39618,
-3.46222,1.39771,
-3.47137,1.39313,
-3.479,1.39618,
-3.48358,1.39923,
-3.48969,1.39923,
-3.49426,1.39618,
-3.50037,1.39771,
-3.50952,1.40076,
-3.51563,1.40228,
-3.5202,1.39618,
-3.52478,1.39771,
-3.53088,1.39771,
-3.53546,1.39923,
-3.54919,1.40381,
-3.5553,1.39771,
-3.56293,1.40076,
-3.56903,1.40076,
-3.57361,1.40228,
-3.58276,1.40381,
-3.58887,1.39923,
-3.59802,1.40076,
-3.59955,1.39923,
-3.60565,1.40228,
-3.62091,1.40533,
-3.62701,1.40381,
-3.63922,1.40228,
-3.6499,1.39923,
-3.65601,1.40228,
-3.66364,1.40686,
-3.67279,1.40381,
-3.67432,1.40228,
-3.685,1.39313,
-3.69415,1.40533,
-3.70178,1.39923,
-3.70789,1.41754,
-3.71704,1.40076,
-3.72009,1.40076,
-3.72925,1.40533,
-3.7323,1.40991,
-3.7384,1.40533,
-3.75061,1.40076,
-3.75977,1.39923,
-3.76129,1.40533,
-3.7735,1.40686,
-3.7796,1.40381,
-3.78723,1.40381,
-3.79639,1.40381,
-3.80249,1.40533,
-3.80707,1.41144,
-3.81927,1.40533,
-3.82385,1.40991,
-3.82843,1.40533,
-3.83759,1.40533,
-3.84369,1.40991,
-3.84979,1.40381,
-3.862,1.40686,
-3.86658,1.40381,
-3.87573,1.40686,
-3.88336,1.41449,
-3.89099,1.40991,
-3.90015,1.41144,
-3.90472,1.40381,
-3.9093,1.41144,
-3.91388,1.41144,
-3.92456,1.41296,
-3.92761,1.40686,
-3.92609,1.40686,
-3.92609,1.41602,
-3.92761,1.41296,
-3.91693,1.41144,
-3.9032,1.40991,
-3.89099,1.40839,
-3.8681,1.41144,
-3.84064,1.41602,
-3.81165,1.40839,
-3.77808,1.41144,
-3.73993,1.40686,
-3.69873,1.41144,
-3.65753,1.41754,
-3.61786,1.41144,
-3.57056,1.41144,
-3.52936,1.40686,
-3.48663,1.41296,
-3.45154,1.41602,
-3.40881,1.41144,
-3.37524,1.40991,
-3.34167,1.41144,
-3.30963,1.41907,
-3.28674,1.42059,
-3.26538,1.41449,
-3.24402,1.41296,
-3.22266,1.41296,
-3.21045,1.41296,
-3.19977,1.41907,
-3.18909,1.41144,
-3.17841,1.41449,
-3.17841,1.40991,
-3.17688,1.41449,
-3.17993,1.41907,
-3.17841,1.41296,
-3.18298,1.41602,
-3.19214,1.41449,
-3.20282,1.41602,
-3.20892,1.41907,
-3.21503,1.41602,
-3.22876,1.41602,
-3.23639,1.41449,
-3.24402,1.42212,
-3.25012,1.42212,
-3.25623,1.41754,
-3.2608,1.41907,
-3.26996,1.41602,
-3.27454,1.41907,
-3.28064,1.42365,
-3.28522,1.42059,
-3.29285,1.41754,
-3.29895,1.41602,
-3.30353,1.42059,
-3.31116,1.42517,
-3.31268,1.42212,
-3.32184,1.41907,
-3.32642,1.41602,
-3.33862,1.41907,
-3.34625,1.42365,
-3.35236,1.42212,
-3.36151,1.41907,
-3.37219,1.41449,
-3.38287,1.42365,
-3.38898,1.42212,
-3.39813,1.42365,
-3.40729,1.41907,
-3.41949,1.42517,
-3.42865,1.42365,
-3.44086,1.42822,
-3.44391,1.42212,
-3.45154,1.42059,
-3.45612,1.41907,
-3.46222,1.42517,
-3.4668,1.42822,
-3.46832,1.42365,
-3.47137,1.42212,
-3.479,1.41907,
-3.48053,1.42365,
-3.48053,1.42975,
-3.48816,1.42365,
-3.48663,1.42517,
-3.48816,1.42212,
-3.49121,1.43738,
-3.49121,1.42365,
-3.48816,1.42517,
-3.48358,1.42365,
-3.48206,1.42059,
-3.47443,1.42517,
-3.47137,1.42822,
-3.46375,1.42517,
-3.45917,1.42517,
-3.45459,1.42365,
-3.45306,1.42365,
-3.45001,1.42822,
-3.44696,1.42822,
-3.44543,1.42822,
-3.44696,1.42212,
-3.44238,1.42975,
-3.44238,1.43127,
-3.44238,1.42517,
-3.43933,1.42212,
-3.43933,1.42212,
-3.44086,1.42822,
-3.43933,1.4328,
-3.43933,1.42822,
-3.44543,1.42365,
-3.45001,1.42975,
-3.45154,1.42822,
-3.45612,1.4328,
-3.45917,1.42822,
-3.46069,1.42517,
-3.46375,1.42517,
-3.4668,1.43127,
-3.47137,1.43585,
-3.47748,1.43127,
-3.48053,1.42212,
-3.48816,1.42517,
-3.48969,1.4328,
-3.50037,1.42517,
-3.50189,1.44348,
-3.51257,1.42975,
-3.52478,1.42822,
-3.52631,1.4328,
-3.53241,1.43433,
-3.54004,1.42975,
-3.55072,1.43433,
-3.55988,1.42975,
-3.57208,1.42517,
-3.57971,1.4328,
-3.58887,1.42975,
-3.5965,1.4328,
-3.60413,1.43127,
-3.61328,1.42975,
-3.61938,1.43127,
-3.62701,1.4328,
-3.63464,1.42975,
-3.6438,1.4328,
-3.65143,1.43433,
-3.66211,1.43585,
-3.66821,1.42975,
-3.67737,1.4328,
-3.68042,1.42365,
-3.69263,1.4328,
-3.70026,1.43585,
-3.71094,1.43585,
-3.71246,1.42975,
-3.72009,1.42975,
-3.72772,1.43127,
-3.73383,1.43585,
-3.74146,1.43738,
-3.75366,1.4328,
-3.76282,1.42822,
-3.77045,1.43433,
-3.7796,1.43585,
-3.79333,1.43585,
-3.80554,1.4328,
-3.81012,1.42975,
-3.81927,1.43433,
-3.82538,1.43585,
-3.8269,1.43738,
-3.83453,1.43585,
-3.83759,1.43127,
-3.84369,1.4389,
-3.84674,1.44043,
-3.85742,1.43738,
-3.85895,1.43585,
-3.86658,1.42822,
-3.87268,1.4328,
-3.87421,1.4389,
-3.87726,1.43433,
-3.87573,1.4328,
-3.87268,1.43127,
-3.87268,1.43585,
-3.86353,1.4389,
-3.8559,1.44501,
-3.84521,1.43433,
-3.82843,1.4328,
-3.80707,1.43738,
-3.78418,1.43738,
-3.75977,1.4389,
-3.7262,1.4328,
-3.69263,1.43433,
-3.65753,1.43433,
-3.62396,1.44043,
-3.58582,1.43738,
-3.54614,1.43433,
-3.50952,1.43433,
-3.47443,1.43585,
-3.44238,1.44348,
-3.40729,1.4389,
-3.3783,1.43585,
-3.34473,1.43585,
-3.32031,1.4389,
-3.29285,1.44348,
-3.27301,1.43738,
-3.25165,1.43585,
-3.23486,1.4328,
-3.22113,1.43738,
-3.20587,1.44348,
-3.19519,1.43738,
-3.18909,1.4328,
-3.18604,1.43585,
-3.18451,1.43738,
-3.18298,1.44348,
-3.18909,1.44043,
-3.19366,1.43585,
-3.20282,1.4389,
-3.20892,1.4389,
-3.22418,1.44043,
-3.24249,1.44043,
-3.25317,1.43738,
-3.26233,1.44196,
-3.27454,1.4389,
-3.28064,1.43585,
-3.28674,1.4389,
-3.28979,1.4389,
-3.29285,1.44196,
-3.302,1.44043,
-3.30353,1.44043,
-3.30811,1.4389,
-3.30811,1.43738,
-3.31421,1.43585,
-3.31726,1.44043,
-3.32031,1.44196,
-3.32184,1.44043,
-3.32947,1.4389,
-3.3371,1.43585,
-3.34015,1.4389,
-3.3432,1.44196,
-3.34473,1.44043,
-3.35083,1.43585,
-3.35083,1.43585,
-3.35236,1.4389,
-3.35236,1.44196,
-3.35236,1.44043,
-3.35541,1.43738,
-3.3493,1.43433,
-3.3432,1.44196,
-3.3371,1.44348,
-3.32794,1.44196,
-3.32031,1.43738,
-3.31268,1.43585,
-3.30658,1.44196,
-3.2959,1.44348,
-3.28674,1.44043,
-3.27759,1.43585,
-3.27148,1.44043,
-3.25928,1.44196,
-3.25317,1.44348,
-3.24402,1.43738,
-3.23486,1.43738,
-3.22723,1.43738,
-3.21655,1.44196,
-3.21198,1.44196,
-3.20129,1.43738,
-3.19061,1.43738,
-3.18756,1.43585,
-3.17841,1.44348,
-3.1723,1.44196,
-3.1662,1.43738,
-3.1601,1.43738,
-3.15247,1.43738,
-3.15094,1.44196,
-3.14636,1.44348,
-3.14636,1.4389,
-3.14484,1.44043,
-3.14484,1.43738,
-3.14789,1.44043,
-3.14941,1.4389,
-3.14484,1.44043,
-3.15552,1.4389,
-3.1601,1.43585,
-3.1662,1.44348,
-3.1723,1.44196,
-3.17383,1.44043,
-3.18298,1.4389,
-3.18604,1.43738,
-3.19061,1.44348,
-3.19519,1.44501,
-3.20435,1.44348,
-3.21045,1.44043,
-3.2196,1.43738,
-3.22876,1.44043,
-3.23944,1.44501,
-3.24554,1.44043,
-3.2547,1.43585,
-3.26233,1.43585,
-3.26843,1.4389,
-3.27911,1.44196,
-3.28827,1.4389,
-3.29285,1.4389,
-3.29285,1.43585,
-3.302,1.43738,
-3.31268,1.44196,
-3.31421,1.44196,
-3.32489,1.43585,
-3.32794,1.43585,
-3.33252,1.44196,
-3.33862,1.44348,
-3.3371,1.44043,
-3.34015,1.4389,
-3.35083,1.44043,
-3.35236,1.44043,
-3.35388,1.4389,
-3.36609,1.44196,
-3.37372,1.4389,
-3.3783,1.43738,
-3.3844,1.44196,
-3.38898,1.44043,
-3.39661,1.4389,
-3.40118,1.4389,
-3.41187,1.44196,
-3.41644,1.4389,
-3.42102,1.44043,
-3.42712,1.44043,
-3.43475,1.4389,
-3.44238,1.44196,
-3.45001,1.44196,
-3.45917,1.44501,
-3.46832,1.44043,
-3.479,1.43585,
-3.48358,1.43585,
-3.49579,1.44043,
-3.51105,1.44501,
-3.51563,1.44196,
-3.51868,1.43585,
-3.52631,1.4389,
-3.52783,1.44196,
-3.53088,1.44501,
-3.52936,1.44196,
-3.52783,1.43738,
-3.5202,1.43738,
-3.5141,1.44043,
-3.50189,1.44196,
-3.49121,1.44196,
-3.47443,1.44196,
-3.45459,1.43738,
-3.4256,1.44196,
-3.39813,1.44196,
-3.36456,1.4389,
-3.33252,1.42822,
-3.29285,1.43738,
-3.25317,1.44043,
-3.2135,1.44196,
-3.1723,1.44196,
-3.1311,1.43738,
-3.09143,1.4389,
-3.05176,1.44501,
-3.01819,1.44958,
-2.98309,1.4389,
-2.95105,1.4389,
-2.92358,1.4328,
-2.89459,1.44043,
-2.87476,1.44348,
-2.85797,1.44196,
-2.83661,1.44043,
-2.82593,1.43738,
-2.81372,1.4389,
-2.80457,1.44501,
-2.79846,1.44043,
-2.79541,1.43585,
-2.79388,1.43585,
-2.79083,1.4389,
-2.79083,1.45264,
-2.79541,1.44196,
-2.79999,1.44043,
-2.80609,1.4389,
-2.81525,1.43738,
-2.82288,1.44043,
-2.83051,1.44196,
-2.84271,1.43127,
-2.85645,1.43738,
-2.87018,1.44196,
-2.87781,1.44501,
-2.89154,1.44196,
-2.9007,1.43738,
-2.90985,1.43738,
-2.92664,1.4389,
-2.93732,1.44196,
-2.94647,1.44196,
-2.95258,1.43585,
-2.96631,1.43585,
-2.97089,1.4389,
-2.98462,1.44196,
-2.99072,1.44043,
-3.00446,1.43738,
-3.01208,1.4389,
-3.01971,1.44196,
-3.02887,1.44043,
-3.0365,1.4389,
-3.05176,1.43738,
-3.06396,1.44043,
-3.07465,1.44196,
-3.08838,1.43738,
-3.10211,1.44043,
-3.11737,1.43738,
-3.12805,1.43738,
-3.13721,1.44043,
-3.14331,1.44196,
-3.15399,1.44196,
-3.16162,1.4328,
-3.16772,1.44043,
-3.17383,1.44043,
-3.17688,1.44196,
-3.17993,1.44043,
-3.18451,1.43738,
-3.17993,1.43585,
-3.17841,1.4389,
-3.17535,1.4389,
-3.17078,1.44043,
-3.16925,1.43738,
-3.16467,1.43433,
-3.16162,1.44196,
-3.15247,1.44043,
-3.14789,1.44043,
-3.14026,1.43433,
-3.13873,1.43433,
-3.13721,1.4389,
-3.13263,1.44043,
-3.1311,1.44196,
-3.12347,1.43585,
-3.12347,1.43433,
-3.12347,1.4389,
-3.125,1.4389,
-3.12347,1.43585,
-3.12653,1.43738,
-3.12805,1.43127,
-3.13263,1.44196,
-3.14026,1.44043,
-3.14178,1.4389,
-3.14941,1.43433,
-3.15399,1.4389,
-3.1601,1.4389,
-3.17078,1.44196,
-3.17383,1.44043,
-3.17993,1.4389,
-3.18451,1.43585,
-3.19366,1.4389,
-3.20129,1.44196,
-3.2074,1.4389,
-3.21198,1.43738,
-3.21808,1.4328,
-3.22723,1.43433,
-3.23639,1.4389,
-3.24554,1.4389,
-3.25317,1.43738,
-3.25928,1.43585,
-3.26843,1.43738,
-3.27606,1.4389,
-3.27911,1.4389,
-3.29132,1.43433,
-3.2959,1.43585,
-3.30658,1.44196,
-3.31573,1.44043,
-3.32336,1.4389,
-3.33099,1.43433,
-3.3432,1.43585,
-3.35388,1.44196,
-3.35999,1.44043,
-3.36609,1.44043,
-3.3783,1.4328,
-3.38135,1.43585,
-3.3905,1.44043,
-3.39661,1.44043,
-3.39966,1.43738,
-3.40881,1.4328,
-3.41949,1.43433,
-3.42712,1.43738,
-3.43628,1.4389,
-3.44696,1.44043,
-3.45001,1.43127,
-3.45764,1.43585,
-3.45612,1.43738,
-3.46375,1.43585,
-3.46375,1.43738,
-3.4668,1.4328,
-3.46985,1.43585,
-3.47595,1.43585,
-3.48053,1.4328,
-3.48053,1.44196,
-3.48663,1.43738,
-3.49121,1.43433,
-3.49121,1.43433,
-3.49579,1.43738,
-3.50037,1.4389,
-3.50189,1.4328,
-3.508,1.43433,
-3.50952,1.43738,
-3.51257,1.44043,
-3.51105,1.4389,
-3.50952,1.43433,
-3.50494,1.42975,
-3.49579,1.43585,
-3.48816,1.43738,
-3.47595,1.43433,
-3.46069,1.43433,
-3.44238,1.42975,
-3.41644,1.43585,
-3.38898,1.43585,
-3.35388,1.4328,
-3.31421,1.43433,
-3.27454,1.43127,
-3.23029,1.43433,
-3.18604,1.43585,
-3.13721,1.4328,
-3.08838,1.4328,
-3.0426,1.4328,
-2.99835,1.43585,
-2.95563,1.43738,
-2.91443,1.42975,
-2.87323,1.43433,
-2.83813,1.42975,
-2.80609,1.43738,
-2.77252,1.43433,
-2.74353,1.4328,
-2.71301,1.43433,
-2.69318,1.42975,
-2.67487,1.43738,
-2.65808,1.43433,
-2.63977,1.4328,
-2.62604,1.43127,
-2.61688,1.43127,
-2.60773,1.43585,
-2.6062,1.43433,
-2.59857,1.43433,
-2.6001,1.4328,
-2.59552,1.4328,
-2.59399,1.4328,
-2.59094,1.43738,
-2.59705,1.43433,
-2.6001,1.4328,
-2.6062,1.43127,
-2.60925,1.4328,
-2.61078,1.43585,
-2.61841,1.43433,
-2.61993,1.42822,
-2.62299,1.43127,
-2.62451,1.43433,
-2.62604,1.43738,
-2.62909,1.4328,
-2.62909,1.42822,
-2.63062,1.42822,
-2.63367,1.43585,
-2.63824,1.43127,
-2.64435,1.43433,
-2.65045,1.43127,
-2.65808,1.42822,
-2.66266,1.4328,
-2.66876,1.43433,
-2.67181,1.43127,
-2.67639,1.42975,
-2.68402,1.43433,
-2.6947,1.43433,
-2.69775,1.43433,
-2.70386,1.43127,
-2.71149,1.42975,
-2.72369,1.42975,
-2.72675,1.43127,
-2.73132,1.43127,
-2.73743,1.42822,
-2.74658,1.42517,
-2.74963,1.4328,
-2.75879,1.42975,
-2.76184,1.42975,
-2.76489,1.43127,
-2.76947,1.42822,
-2.76947,1.42822,
-2.77557,1.42975,
-2.7771,1.43127,
-2.77557,1.43127,
-2.78015,1.42517,
-2.78015,1.42517,
-2.78168,1.42822,
-2.78625,1.43127,
-2.78778,1.43127,
-2.79083,1.42975,
-2.78931,1.42822,
-2.78931,1.43127,
-2.78168,1.43433,
-2.7771,1.43433,
-2.77405,1.42517,
-2.77252,1.42059,
-2.76794,1.43127,
-2.76794,1.42822,
-2.76642,1.42975,
-2.76184,1.43127,
-2.76184,1.42365,
-2.76489,1.43127,
-2.76337,1.42975,
-2.76337,1.42975,
-2.76031,1.42517,
-2.76031,1.42517,
-2.76184,1.42822,
-2.76031,1.42365,
-2.76184,1.42975,
-2.76337,1.42517,
-2.76489,1.42517,
-2.76642,1.42365,
-2.77405,1.42822,
-2.78015,1.42517,
-2.7832,1.42822,
-2.79236,1.42365,
-2.79694,1.42365,
-2.79999,1.42365,
-2.81067,1.43738,
-2.82745,1.42365,
-2.83508,1.42365,
-2.84271,1.42822,
-2.85645,1.42517,
-2.86255,1.42822,
-2.87476,1.42517,
-2.88086,1.42212,
-2.89459,1.42212,
-2.90222,1.42975,
-2.90985,1.42822,
-2.91595,1.42365,
-2.91901,1.42365,
-2.93121,1.42365,
-2.93579,1.42975,
-2.93884,1.42517,
-2.94189,1.41907,
-2.94952,1.42365,
-2.95563,1.42365,
-2.95563,1.42975,
-2.96478,1.42517,
-2.96631,1.42059,
-2.97394,1.42212,
-2.97699,1.42517,
-2.97852,1.42822,
-2.98462,1.42365,
-2.98767,1.42212,
-2.99835,1.42212,
-3.00446,1.42822,
-3.00598,1.42975,
-3.01208,1.42365,
-3.02124,1.42059,
-3.02277,1.42212,
-3.03192,1.42212,
-3.03802,1.42212,
-3.04413,1.42059,
-3.04871,1.42365,
-3.04871,1.42212,
-3.05481,1.42517,
-3.05328,1.41907,
-3.05634,1.42212,
-3.05634,1.42059,
-3.05634,1.42059,
-3.05634,1.42212,
-3.05634,1.42365,
-3.05786,1.42365,
-3.05939,1.41907,
-3.05481,1.42059,
-3.05328,1.42517,
-3.05023,1.42365,
-3.04413,1.42517,
-3.03497,1.42059,
-3.01971,1.41754,
-3.00446,1.42365,
-2.98309,1.42212,
-2.96021,1.42365,
-2.92969,1.41907,
-2.89764,1.41907,
-2.8656,1.42822,
-2.82593,1.42517,
-2.78625,1.41907,
-2.74506,1.41754,
-2.70538,1.42059,
-2.65961,1.42212,
-2.62146,1.41754,
-2.58484,1.42365,
-2.54364,1.41449,
-2.51465,1.4328,
-2.47803,1.42212,
-2.44751,1.42365,
-2.42004,1.42059,
-2.39258,1.41907,
-2.36664,1.42059,
-2.34375,1.42059,
-2.32086,1.42059,
-2.30713,1.43127,
-2.29187,1.41907,
-2.28119,1.41754,
-2.27051,1.42059,
-2.25983,1.42059,
-2.25372,1.42059,
-2.24915,1.41754,
-2.24609,1.42059,
-2.24304,1.41602,
-2.23694,1.41754,
-2.24152,1.42212,
-2.24152,1.41602,
-2.24152,1.41449,
-2.24762,1.41907,
-2.24915,1.42059,
-2.25372,1.41754,
-2.25525,1.41449,
-2.25983,1.41602,
-2.26288,1.41754,
-2.26746,1.42059,
-2.27051,1.41754,
-2.27356,1.41449,
-2.27814,1.41449,
-2.27966,1.41907,
-2.28424,1.41754,
-2.28882,1.41907,
-2.29492,1.41602,
-2.30103,1.41144,
-2.31018,1.41754,
-2.31628,1.41907,
-2.32239,1.41907,
-2.32697,1.41449,
-2.33307,1.40991,
-2.34375,1.41449,
-2.34833,1.41754,
-2.35443,1.41602,
-2.36206,1.41144,
-2.36053,1.41602,
-2.37122,1.42059,
-2.3819,1.41449,
-2.388,1.41602,
-2.3941,1.41296,
-2.39868,1.41296,
-2.40021,1.41602,
-2.40479,1.41602,
-2.41241,1.41907,
-2.41241,1.40991,
-2.4231,1.41449,
-2.42615,1.41754,
-2.42615,1.41449,
-2.43073,1.41907,
-2.43073,1.41449,
-2.43378,1.41296,
-2.4353,1.41449,
-2.4353,1.41602,
-2.43835,1.41754,
-2.43378,1.41296,
-2.43835,1.41144,
-2.43683,1.41602,
-2.43378,1.42059,
-2.43378,1.41602,
-2.43683,1.41144,
-2.43683,1.40839,
-2.43988,1.41602,
-2.44293,1.41296,
-2.44293,1.41296,
-2.44598,1.40991,
-2.44446,1.41144,
-2.44904,1.41754,
-2.44904,1.41449,
-2.45514,1.40991,
-2.45667,1.41296,
-2.45819,1.41144,
-2.45972,1.41754,
-2.46429,1.41296,
-2.46887,1.41296,
-2.46735,1.40991,
-2.4704,1.41296,
-2.4704,1.41144,
-2.4704,1.41602,
-2.47345,1.41296,
-2.47803,1.40991,
-2.48108,1.40839,
-2.4826,1.40991,
-2.48871,1.41296,
-2.48718,1.41296,
-2.49176,1.41296,
-2.49786,1.40839,
-2.50244,1.40991,
-2.50244,1.40991,
-2.50397,1.41296,
-2.50702,1.40991,
-2.5116,1.40686,
-2.50854,1.41296,
-2.51465,1.41296,
-2.51617,1.40991,
-2.51617,1.40686,
-2.5238,1.40839,
-2.5238,1.41144,
-2.52838,1.41144,
-2.52838,1.41144,
-2.53448,1.40686,
-2.53296,1.41144,
-2.53448,1.40686,
-2.53906,1.41144,
-2.54059,1.40991,
-2.54669,1.40533,
-2.54822,1.41449,
-2.5528,1.40533,
-2.55585,1.41296,
-2.55737,1.40991,
-2.55737,1.40686,
-2.56195,1.40839,
-2.56958,1.40381,
-2.57416,1.40991,
-2.58026,1.40686,
-2.58331,1.40228,
-2.58636,1.41144,
-2.58942,1.40991,
-2.59399,1.40839,
-2.59552,1.40991,
-2.60162,1.40533,
-2.60315,1.40991,
-2.60315,1.40839,
-2.60925,1.40839,
-2.60773,1.40991,
-2.60773,1.40381,
-2.61078,1.40533,
-2.6123,1.40686,
-2.61688,1.40991,
-2.61993,1.40839,
-2.61993,1.40076,
-2.62604,1.40228,
-2.62451,1.40686,
-2.62756,1.40839,
-2.63062,1.40991,
-2.63062,1.40228,
-2.63367,1.40228,
-2.63672,1.40839,
-2.6413,1.40533,
-2.63214,1.40228,
-2.62451,1.40076,
-2.61688,1.40228,
-2.60315,1.40991,
-2.58789,1.40686,
-2.57111,1.40686,
-2.54974,1.40381,
-2.52533,1.40381,
-2.49634,1.40686,
-2.46582,1.40839,
-2.43683,1.40533,
-2.39868,1.40533,
-2.36511,1.40686,
-2.33154,1.40533,
-2.29492,1.40839,
-2.25372,1.40533,
-2.21863,1.40533,
-2.1759,1.40381,
-2.13928,1.40228,
-2.10266,1.40533,
-2.06909,1.40381,
-2.03857,1.40381,
-2.00806,1.40381,
-1.98364,1.40076,
-1.96686,1.40533,
-1.94244,1.40228,
-1.92871,1.40076,
-1.91193,1.40076,
-1.89972,1.40381,
-1.88904,1.40839,
-1.88293,1.40533,
-1.87531,1.39923,
-1.87683,1.40228,
-1.87378,1.40533,
-1.87378,1.40686,
-1.87836,1.40228,
-1.87836,1.39771,
-1.88141,1.39923,
-1.88904,1.40533,
-1.89362,1.40381,
-1.89972,1.40076,
-1.90277,1.39771,
-1.90887,1.40228,
-1.91193,1.41754,
-1.91345,1.39618,
-1.91803,1.39771,
-1.92261,1.39923,
-1.92871,1.40381,
-1.93481,1.40076,
-1.93481,1.40076,
-1.93939,1.40076,
-1.94092,1.39771,
-1.94092,1.39771,
-1.9455,1.40533,
-1.94244,1.40228,
-1.94702,1.40228,
-1.95007,1.40228,
-1.9516,1.39923,
-1.95313,1.39923,
-1.95618,1.40228,
-1.95618,1.40381,
-1.96228,1.39618,
-1.96381,1.39771,
-1.96381,1.40228,
-1.96991,1.40533,
-1.97449,1.40228,
-1.97906,1.39771,
-1.98212,1.39313,
-1.98364,1.40228,
-1.98975,1.40076,
-1.99738,1.40228,
-2.00043,1.39771,
-2.00653,1.39618,
-2.01111,1.39923,
-2.01874,1.39771,
-2.02484,1.39923,
-2.03247,1.39618,
-2.03705,1.39923,
-2.04468,1.39923,
-2.05383,1.40076,
-2.06146,1.39771,
-2.07214,1.39771,
-2.07367,1.39923,
-2.0813,1.40076,
-2.09198,1.40076,
-2.09656,1.39618,
-2.10724,1.39771,
-2.10876,1.39771,
-2.11487,1.40076,
-2.11029,1.40076,
-2.11334,1.39313,
-2.11334,1.39618,
-2.11182,1.39771,
-2.11334,1.39771,
-2.11487,1.39771,
-2.11487,1.39771,
-2.11945,1.39771,
-2.11945,1.39618,
-2.11945,1.39923,
-2.12097,1.39771,
-2.12708,1.39313,
-2.12708,1.3916,
-2.12708,1.39923,
-2.1347,1.39313,
-2.13623,1.39771,
-2.14081,1.3916,
-2.14539,1.39313,
-2.14539,1.39618,
-2.15149,1.39618,
-2.15607,1.39771,
-2.16064,1.3916,
-2.16522,1.38855,
-2.17285,1.39313,
-2.17896,1.3916,
-2.18811,1.40076,
-2.19727,1.39618,
-2.20795,1.39771,
-2.21558,1.39771,
-2.22626,1.39313,
-2.23999,1.39771,
-2.24762,1.39313,
-2.25677,1.39008,
-2.26593,1.39313,
-2.27661,1.38855,
-2.28577,1.39313,
-2.29187,1.39618,
-2.30255,1.39008,
-2.31018,1.39771,
-2.31476,1.39313,
-2.31934,1.3916,
-2.32544,1.39313,
-2.33154,1.38855,
-2.33307,1.3916,
-2.33917,1.39313,
-2.34375,1.39313,
-2.34833,1.39771,
-2.35291,1.39008,
-2.35901,1.39008,
-2.37122,1.39313,
-2.37579,1.39618,
-2.38495,1.39313,
-2.39563,1.3916,
-2.40631,1.38702,
-2.4231,1.39008,
-2.4292,1.39313,
-2.44598,1.39313,
-2.45514,1.38855,
-2.46277,1.39008,
-2.46887,1.3916,
-2.4826,1.3916,
-2.48871,1.3916,
-2.49634,1.38855,
-2.51312,1.38855,
-2.52075,1.3916,
-2.53296,1.39008,
-2.54211,1.39313,
-2.55737,1.38855,
-2.565,1.3916,
-2.57263,1.39313,
-2.58026,1.3916,
-2.58484,1.39008,
-2.58789,1.38855,
-2.58942,1.39008,
-2.59094,1.38855,
-2.59247,1.3916,
-2.58942,1.39008,
-2.59399,1.38855,
-2.59247,1.38855,
-2.58789,1.3855,
-2.58026,1.3916,
-2.56805,1.39008,
-2.54669,1.3855,
-2.52838,1.38702,
-2.50702,1.38855,
-2.48108,1.3916,
-2.44904,1.3916,
-2.41547,1.38702,
-2.37732,1.38855,
-2.33307,1.38702,
-2.29645,1.39008,
-2.25372,1.38855,
-2.20947,1.38702,
-2.1698,1.38702,
-2.1286,1.38855,
-2.0874,1.39618,
-2.05078,1.38397,
-2.01263,1.38245,
-1.97449,1.3916,
-1.94397,1.38855,
-1.91193,1.3916,
-1.88141,1.38855,
-1.86157,1.37482,
-1.84174,1.3855,
-1.82037,1.38702,
-1.80206,1.3855,
-1.78986,1.39008,
-1.7746,1.3855,
-1.76849,1.38855,
-1.76392,1.38397,
-1.75476,1.38397,
-1.75781,1.38702,
-1.75018,1.38397,
-1.75171,1.3916,
-1.75629,1.38397,
-1.76086,1.39008,
-1.76392,1.3916,
-1.76544,1.38245,
-1.77155,1.38702,
-1.7746,1.3916,
-1.7807,1.38702,
-1.7868,1.39008,
-1.79138,1.3855,
-1.79596,1.38702,
-1.80511,1.38702,
-1.81122,1.39008,
-1.81274,1.38702,
-1.81732,1.38397,
-1.8219,1.3855,
-1.83258,1.39008,
-1.84174,1.39008,
-1.85242,1.38702,
-1.86005,1.37787,
-1.8692,1.38092,
-1.87836,1.3916,
-1.88599,1.38702,
-1.89972,1.38702,
-1.91803,1.38092,
-1.92719,1.3855,
-1.93939,1.3855,
-1.94702,1.38855,
-1.96228,1.38397,
-1.97296,1.38397,
-1.97754,1.3855,
-1.98517,1.3855,
-1.99127,1.3855,
-1.9989,1.38397,
-2.00043,1.39771,
-2.00043,1.3855,
-2.00348,1.3855,
-2.00653,1.38702,
-2.00195,1.38702,
-2.00348,1.38397,
-2.00195,1.3855,
-2.00043,1.38702,
-1.9928,1.38702,
-1.9928,1.38245,
-1.99585,1.38245,
-1.98975,1.3855,
-1.98669,1.38397,
-1.98364,1.3855,
-1.97754,1.3855,
-1.97449,1.37939,
-1.97754,1.38397,
-1.97296,1.38397,
-1.96991,1.38702,
-1.96686,1.3855,
-1.96686,1.37634,
-1.96838,1.38397,
-1.96686,1.3855,
-1.97144,1.3855,
-1.97449,1.38702,
-1.98059,1.38397,
-1.98669,1.3855,
-1.99127,1.3855,
-1.9989,1.38702,
-2.00348,1.38245,
-2.005,1.38245,
-2.00806,1.38397,
-2.00958,1.38092,
-2.01569,1.38397,
-2.01874,1.3855,
-2.02484,1.38092,
-2.03094,1.38092,
-2.03552,1.3855,
-2.0462,1.3855,
-2.05841,1.3855,
-2.06757,1.37939,
-2.07672,1.38092,
-2.0813,1.38245,
-2.0874,1.3855,
-2.09503,1.3855,
-2.10571,1.38092,
-2.10876,1.37939,
-2.11639,1.37787,
-2.12402,1.3855,
-2.13013,1.38702,
-2.13623,1.38092,
-2.14233,1.37939,
-2.14691,1.38245,
-2.14996,1.37482,
-2.15759,1.38092,
-2.16522,1.37939,
-2.1759,1.38092,
-2.18201,1.37939,
-2.18658,1.3855,
-2.19574,1.38092,
-2.2049,1.37634,
-2.21558,1.38397,
-2.22473,1.3855,
-2.23083,1.38245,
-2.23999,1.38092,
-2.25067,1.38092,
-2.25525,1.38092,
-2.2644,1.38245,
-2.27509,1.38245,
-2.27966,1.38245,
-2.28424,1.38092,
-2.2934,1.38245,
-2.2995,1.38092,
-2.30865,1.38245,
-2.31628,1.38397,
-2.32391,1.38245,
-2.33459,1.38092,
-2.34375,1.38245,
-2.35138,1.38397,
-2.35596,1.38397,
-2.37122,1.38245,
-2.37885,1.38092,
-2.38647,1.38397,
-2.39258,1.37482,
-2.39563,1.38092,
-2.40173,1.37787,
-2.40479,1.38092,
-2.40631,1.38397,
-2.41394,1.38245,
-2.41699,1.38092,
-2.42157,1.38702,
-2.42462,1.37787,
-2.4231,1.38397,
-2.42004,1.38397,
-2.40936,1.38397,
-2.39716,1.38092,
-2.38037,1.38245,
-2.35901,1.38092,
-2.33459,1.38092,
-2.30865,1.38245,
-2.27051,1.37787,
-2.23236,1.37939,
-2.18964,1.38397,
-2.14691,1.38092,
-2.10419,1.38245,
-2.05231,1.37787,
-2.005,1.38092,
-1.9577,1.38092,
-1.91193,1.38245,
-1.87225,1.37939,
-1.83411,1.37939,
-1.80206,1.37939,
-1.76544,1.37939,
-1.73645,1.38245,
-1.70746,1.38245,
-1.67999,1.37634,
-1.65863,1.37939,
-1.63269,1.38092,
-1.61285,1.38245,
-1.59607,1.38397,
-1.58539,1.37634,
-1.57013,1.37634,
-1.55792,1.38245,
-1.55029,1.38245,
-1.54266,1.38397,
-1.53809,1.37787,
-1.53351,1.37939,
-1.53198,1.38245,
-1.53198,1.38245,
-1.53198,1.37939,
-1.53503,1.37939,
-1.53351,1.38092,
-1.53503,1.38397,
-1.53656,1.38092,
-1.53961,1.37939,
-1.54419,1.37634,
-1.54572,1.38245,
-1.55182,1.38245,
-1.55182,1.38092,
-1.55792,1.3855,
-1.5625,1.37787,
-1.56708,1.37634,
-1.56708,1.38092,
-1.57013,1.38092,
-1.57166,1.37939,
-1.57928,1.37787,
-1.58844,1.37939,
-1.59149,1.38092,
-1.60217,1.3916,
-1.61133,1.38092,
-1.62048,1.37482,
-1.62659,1.37787,
-1.63727,1.38092,
-1.64337,1.38245,
-1.64948,1.3855,
-1.66016,1.37634,
-1.66779,1.37787,
-1.67389,1.38092,
-1.68304,1.3855,
-1.69373,1.38397,
-1.70135,1.37482,
-1.70441,1.37939,
-1.71204,1.38092,
-1.71814,1.38092,
-1.72577,1.37939,
-1.72577,1.37482,
-1.73187,1.37939,
-1.73798,1.38092,
-1.73798,1.38245,
-1.73645,1.38092,
-1.73492,1.37939,
-1.73492,1.37939,
-1.7334,1.37939,
-1.73035,1.37634,
-1.73492,1.37939,
-1.73187,1.37634,
-1.73187,1.37939,
-1.7334,1.38245,
-1.73187,1.37939,
-1.73492,1.37939,
-1.73187,1.37787,
-1.7334,1.37787,
-1.7334,1.37634,
-1.73492,1.38245,
-1.73035,1.38092,
-1.73035,1.37482,
-1.7334,1.38245,
-1.73492,1.37939,
-1.73187,1.38397,
-1.73492,1.37939,
-1.7334,1.37482,
-1.73645,1.37634,
-1.73492,1.38092,
-1.7395,1.38092,
-1.7395,1.38245,
-1.74103,1.37787,
-1.74103,1.37787,
-1.74713,1.38092,
-1.75018,1.38092,
-1.75476,1.38245,
-1.75934,1.37939,
-1.76544,1.37787,
-1.77307,1.38092,
-1.7807,1.37939,
-1.79291,1.37787,
-1.80206,1.37787,
-1.80664,1.37939,
-1.81885,1.37939,
-1.82953,1.37939,
-1.84021,1.37939,
-1.85089,1.37787,
-1.86462,1.37939,
-1.87531,1.38092,
-1.88446,1.37939,
-1.89514,1.37939,
-1.90125,1.37787,
-1.91498,1.37787,
-1.92719,1.37939,
-1.93634,1.37939,
-1.95007,1.38092,
-1.96228,1.37787,
-1.97449,1.37177,
-1.98364,1.37939,
-1.99585,1.38092,
-1.9989,1.37939,
-2.01111,1.38092,
-2.01874,1.37787,
-2.03247,1.38092,
-2.04315,1.38092,
-2.05383,1.37939,
-2.07062,1.37634,
-2.0813,1.37939,
-2.09198,1.37787,
-2.10114,1.38245,
-2.11639,1.38092,
-2.12402,1.37329,
-2.13623,1.37939,
-2.14233,1.37634,
-2.15607,1.38397,
-2.1637,1.38092,
-2.17133,1.37787,
-2.18506,1.38092,
-2.18658,1.38245,
-2.19269,1.38245,
-2.20337,1.38245,
-2.21252,1.37787,
-2.22321,1.38245,
-2.22778,1.38092,
-2.23389,1.38092,
-2.24304,1.38245,
-2.2522,1.37787,
-2.2583,1.38397,
-2.26135,1.38245,
-2.27203,1.38092,
-2.27661,1.37939,
-2.28271,1.37329,
-2.28729,1.37787,
-2.28882,1.38092,
-2.2934,1.3855,
-2.2934,1.38397,
-2.28729,1.37787,
-2.27661,1.37634,
-2.25983,1.38245,
-2.23999,1.38245,
-2.2171,1.37939,
-2.18506,1.37939,
-2.15759,1.37787,
-2.11945,1.38245,
-2.07672,1.39008,
-2.03705,1.38702,
-1.9928,1.37939,
-1.94855,1.37787,
-1.9043,1.38702,
-1.85394,1.38397,
-1.81122,1.38245,
-1.76849,1.37177,
-1.72577,1.38092,
-1.68152,1.38092,
-1.6449,1.38245,
-1.6098,1.38397,
-1.57776,1.37939,
-1.55029,1.38092,
-1.52435,1.3855,
-1.49841,1.38245,
-1.47552,1.38245,
-1.45416,1.38245,
-1.43585,1.37939,
-1.42212,1.38397,
-1.40686,1.38397,
-1.39771,1.38092,
-1.39008,1.38245,
-1.38397,1.38092,
-1.38092,1.38397,
-1.37939,1.38397,
-1.37329,1.38397,
-1.37177,1.38092,
-1.37482,1.38397,
-1.37329,1.38397,
-1.38092,1.3855,
-1.37787,1.3855,
-1.38397,1.38092,
-1.3855,1.38245,
-1.3855,1.38397,
-1.39465,1.38702,
-1.39771,1.38397,
-1.40076,1.37634,
-1.40533,1.38092,
-1.40839,1.38397,
-1.40839,1.3855,
-1.41144,1.3855,
-1.41754,1.38092,
-1.4267,1.38397,
-1.43127,1.3855,
-1.4389,1.38245,
-1.44653,1.39618,
-1.44958,1.38245,
-1.45569,1.38855,
-1.46179,1.38702,
-1.46942,1.38397,
-1.474,1.3855,
-1.48621,1.37939,
-1.49078,1.3855,
-1.50146,1.38702,
-1.50757,1.38397,
-1.52283,1.38702,
-1.52893,1.37634,
-1.53656,1.3855,
-1.54114,1.39008,
-1.54572,1.38702,
-1.55487,1.38702,
-1.5564,1.38092,
-1.55792,1.38397,
-1.55792,1.38245,
-1.55792,1.39313,
-1.56097,1.3855,
-1.56097,1.38397,
-1.56097,1.38397,
-1.55792,1.38855,
-1.55487,1.38855,
-1.5564,1.39008,
-1.5564,1.38245,
-1.5564,1.38397,
-1.5564,1.39008,
-1.55487,1.38702,
-1.55487,1.38855,
-1.54877,1.38702,
-1.54572,1.38702,
-1.54266,1.39008,
-1.54266,1.3916,
-1.54266,1.38702,
-1.54572,1.3855,
-1.54572,1.38397,
-1.54114,1.39008,
-1.54572,1.39008,
-1.54266,1.38855,
-1.54266,1.38397,
-1.54114,1.39008,
-1.54572,1.38855,
-1.55182,1.39008,
-1.5564,1.38855,
-1.5625,1.3855,
-1.5686,1.38702,
-1.57166,1.3916,
-1.57471,1.39008,
-1.58386,1.3916,
-1.59454,1.38702,
-1.6037,1.38855,
-1.61438,1.38702,
-1.62506,1.3916,
-1.63727,1.3916,
-1.6449,1.3855,
-1.65558,1.3855,
-1.66473,1.38855,
-1.67694,1.39313,
-1.6861,1.39313,
-1.70135,1.39008,
-1.71051,1.38855,
-1.72577,1.39313,
-1.73798,1.39771,
-1.74561,1.39313,
-1.75629,1.38855,
-1.76849,1.39313,
-1.77917,1.39313,
-1.79596,1.39771,
-1.80664,1.39008,
-1.81427,1.39008,
-1.828,1.3916,
-1.83868,1.3916,
-1.84479,1.39313,
-1.85852,1.3916,
-1.86462,1.38702,
-1.87836,1.39313,
-1.89514,1.39008,
-1.90277,1.39618,
-1.91345,1.39618,
-1.92261,1.39008,
-1.93329,1.39771,
-1.9455,1.39008,
-1.95465,1.39771,
-1.96686,1.39771,
-1.97449,1.39313,
-1.98212,1.39618,
-1.9928,1.39618,
-2.00043,1.39618,
-2.01263,1.39618,
-2.02484,1.38855,
-2.034,1.39313,
-2.04315,1.39923,
-2.05078,1.39923,
-2.05383,1.39923,
-2.05841,1.3916,
-2.06604,1.39771,
-2.07672,1.39313,
-2.08435,1.40076,
-2.09198,1.3916,
-2.10266,1.39313,
-2.11029,1.39618,
-2.11639,1.39923,
-2.12708,1.39771,
-2.13776,1.40076,
-2.14996,1.39771,
-2.15912,1.39771,
-2.16827,1.40228,
-2.17438,1.39923,
-2.18658,1.40228,
-2.19574,1.39313,
-2.20642,1.39313,
-2.20795,1.40076,
-2.20947,1.40533,
-2.21252,1.39923,
-2.20337,1.39771,
-2.19574,1.40076,
-2.17743,1.39923,
-2.15759,1.39771,
-2.1347,1.40381,
-2.10266,1.39618,
-2.07214,1.39008,
-2.034,1.39313,
-1.99738,1.40076,
-1.95465,1.40076,
-1.90887,1.39771,
-1.86615,1.39618,
-1.81427,1.39771,
-1.76544,1.40228,
-1.71356,1.39313,
-1.66626,1.39923,
-1.62048,1.40076,
-1.57471,1.40228,
-1.53351,1.40381,
-1.49841,1.40228,
-1.45874,1.39618,
-1.42975,1.39923,
-1.40076,1.40076,
-1.37177,1.40381,
-1.34888,1.40381,
-1.32904,1.39771,
-1.31378,1.40228,
-1.29395,1.40228,
-1.28326,1.40076,
-1.27411,1.40381,
-1.26648,1.40228,
-1.25732,1.40228,
-1.25885,1.40228,
-1.25427,1.40228,
-1.25275,1.40381,
-1.25427,1.40076,
-1.25732,1.40228,
-1.25885,1.40228,
-1.26495,1.40381,
-1.27106,1.40686,
-1.27716,1.40533,
-1.28021,1.40076,
-1.28479,1.40381,
-1.28937,1.40381,
-1.297,1.40381,
-1.30157,1.40076,
-1.3092,1.40228,
-1.31531,1.40381,
-1.31683,1.40381,
-1.31989,1.41144,
-1.32446,1.40381,
-1.32751,1.40228,
-1.33209,1.40228,
-1.33667,1.40839,
-1.3443,1.40533,
-1.34583,1.40228,
-1.34888,1.40686,
-1.35193,1.40533,
-1.35803,1.40839,
-1.36719,1.40686,
-1.37482,1.40228,
-1.37939,1.40381,
-1.38397,1.40686,
-1.39313,1.40839,
-1.39618,1.40533,
-1.40381,1.40381,
-1.40533,1.40381,
-1.41144,1.40991,
-1.41754,1.40533,
-1.4267,1.40991,
-1.42975,1.40686,
-1.43738,1.40228,
-1.44043,1.40076,
-1.44653,1.40533,
-1.45569,1.40686,
-1.46179,1.40686,
-1.46942,1.40839,
-1.47247,1.40686,
-1.4801,1.41144,
-1.48315,1.41296,
-1.48468,1.40991,
-1.48773,1.40839,
-1.48773,1.40991,
-1.48773,1.41144,
-1.49078,1.40991,
-1.48926,1.40228,
-1.48926,1.40686,
-1.48926,1.40686,
-1.49078,1.41144,
-1.49536,1.41144,
-1.49841,1.40533,
-1.49994,1.40686,
-1.50757,1.40686,
-1.50909,1.41296,
-1.5152,1.40839,
-1.51825,1.40533,
-1.52283,1.40839,
-1.53046,1.40686,
-1.53656,1.40839,
-1.54419,1.41296,
-1.55182,1.40381,
-1.56097,1.41144,
-1.57166,1.40381,
-1.58081,1.41449,
-1.59302,1.41144,
-1.6037,1.40839,
-1.61285,1.40991,
-1.62048,1.40839,
-1.63116,1.40991,
-1.64337,1.41296,
-1.65405,1.40533,
-1.65405,1.41144,
-1.66321,1.40991,
-1.67236,1.41144,
-1.67542,1.41449,
-1.68762,1.40991,
-1.69373,1.40991,
-1.70441,1.40839,
-1.71356,1.41449,
-1.72272,1.41296,
-1.73035,1.40991,
-1.73798,1.41144,
-1.74866,1.41144,
-1.75934,1.41296,
-1.77612,1.41449,
-1.78375,1.41907,
-1.79443,1.41144,
-1.80511,1.41602,
-1.81274,1.41296,
-1.82648,1.40839,
-1.83563,1.40686,
-1.84784,1.41296,
-1.86005,1.41602,
-1.8692,1.41602,
-1.87988,1.41144,
-1.89056,1.40686,
-1.90582,1.41144,
-1.9165,1.40839,
-1.92719,1.41449,
-1.93481,1.41449,
-1.9455,1.40839,
-1.95465,1.40991,
-1.96838,1.41296,
-1.97906,1.40839,
-1.98822,1.41449,
-2.00043,1.41144,
-2.00806,1.41144,
-2.01874,1.40839,
-2.03094,1.41449,
-2.03705,1.41449,
-2.04773,1.40839,
-2.05688,1.41144,
-2.07214,1.40839,
-2.07825,1.41449,
-2.08588,1.41296,
-2.09503,1.40839,
-2.10571,1.41449,
-2.11334,1.41296,
-2.11945,1.41602,
-2.13318,1.41602,
-2.14233,1.40991,
-2.14844,1.41144,
-2.15607,1.40991,
-2.1698,1.41449,
-2.17743,1.41449,
-2.18506,1.40991,
-2.19116,1.41144,
-2.19116,1.40991,
-2.18964,1.41296,
-2.18353,1.41296,
-2.17438,1.40839,
-2.1637,1.41296,
-2.15149,1.41296,
-2.1347,1.41449,
-2.10724,1.41449,
-2.0813,1.41144,
-2.05078,1.41144,
-2.01721,1.41602,
-1.97754,1.41754,
-1.93481,1.41602,
-1.89362,1.41144,
-1.84937,1.41144,
-1.80511,1.41144,
-1.75934,1.41602,
-1.71814,1.41907,
-1.67999,1.41144,
-1.63879,1.41296,
-1.60065,1.41144,
-1.56555,1.41296,
-1.53198,1.41449,
-1.49994,1.41144,
-1.474,1.41449,
-1.44958,1.41449,
-1.42975,1.41449,
-1.41296,1.41296,
-1.39923,1.40991,
-1.38855,1.41449,
-1.37787,1.41449,
-1.36566,1.41754,
-1.36108,1.41449,
-1.35651,1.41144,
-1.35651,1.41296,
-1.35345,1.41144,
-1.35193,1.41602,
-1.35345,1.41296,
-1.35498,1.41296,
-1.36108,1.41449,
-1.36414,1.41449,
-1.37024,1.41907,
-1.37482,1.41602,
-1.38245,1.41296,
-1.39008,1.41144,
-1.39618,1.41296,
-1.40381,1.41449,
-1.41296,1.41602,
-1.42059,1.41144,
-1.4267,1.41296,
-1.4389,1.41296,
-1.44806,1.41907,
-1.45111,1.41602,
-1.45874,1.41144,
-1.46027,1.41296,
-1.4679,1.41296,
-1.47552,1.41449,
-1.48773,1.41602,
-1.49078,1.41144,
-1.49689,1.41449,
-1.50299,1.41144,
-1.50604,1.41907,
-1.51062,1.41754,
-1.51672,1.40839,
-1.5152,1.41449,
-1.5213,1.41296,
-1.51672,1.40839,
-1.51215,1.41449,
-1.51062,1.41602,
-1.50909,1.41754,
-1.50757,1.41449,
-1.50146,1.41296,
-1.49536,1.41754,
-1.48926,1.40686,
-1.48468,1.41602,
-1.47705,1.41449,
-1.46484,1.41144,
-1.45874,1.41907,
-1.44806,1.41296,
-1.44043,1.41449,
-1.4328,1.41449,
-1.42822,1.41754,
-1.41754,1.41907,
-1.40839,1.40686,
-1.40076,1.40839,
-1.40076,1.41144,
-1.39923,1.41754,
-1.39313,1.41907,
-1.39313,1.41144,
-1.39771,1.40991,
-1.39923,1.41296,
-1.39618,1.41602,
-1.40076,1.41754,
-1.41144,1.40839,
-1.42365,1.40839,
-1.42212,1.41602,
-1.4328,1.41449,
-1.44043,1.41602,
-1.44958,1.40686,
-1.45721,1.41449,
-1.46179,1.41754,
-1.47247,1.41754,
-1.48315,1.41602,
-1.48926,1.41144,
-1.49994,1.41602,
-1.50604,1.41449,
-1.51672,1.41602,
-1.52283,1.41602,
-1.52893,1.40686,
-1.53503,1.41296,
-1.54572,1.40839,
-1.55487,1.41449,
-1.56708,1.41602,
-1.57471,1.41296,
-1.58844,1.41296,
-1.60065,1.40839,
-1.60828,1.41754,
-1.62048,1.41449,
-1.63116,1.40991,
-1.64337,1.41449,
-1.65405,1.40991,
-1.66473,1.41449,
-1.67084,1.41754,
-1.67999,1.40991,
-1.69067,1.41144,
-1.6983,1.41144,
-1.70898,1.41602,
-1.71814,1.41296,
-1.72729,1.40533,
-1.73798,1.41449,
-1.75018,1.41296,
-1.76086,1.41449,
-1.77307,1.41296,
-1.7807,1.40839,
-1.79291,1.41296,
-1.79901,1.41144,
-1.80511,1.41754,
-1.81885,1.41449,
-1.82953,1.41144,
-1.84021,1.41449,
-1.84937,1.41449,
-1.85394,1.41144,
-1.86157,1.41754,
-1.86768,1.40839,
-1.8692,1.41296,
-1.87378,1.41144,
-1.88141,1.41296,
-1.88599,1.41449,
-1.89514,1.40839,
-1.89667,1.40991,
-1.90887,1.41296,
-1.92108,1.41449,
-1.93787,1.41602,
-1.9577,1.40839,
-1.98822,1.40991,
-2.01569,1.41449,
-2.04315,1.41296,
-2.06757,1.41907,
-2.09198,1.40839,
-2.11487,1.40991,
-2.14081,1.41296,
-2.16522,1.41144,
-2.18964,1.40991,
-2.21558,1.40839,
-2.23389,1.41296,
-2.2522,1.41754,
-2.27051,1.41296,
-2.27966,1.41144,
-2.28577,1.40686,
-2.2934,1.41296,
-2.29034,1.41144,
-2.2934,1.41602,
-2.29492,1.41144,
-2.2934,1.40686,
-2.29492,1.41296,
-2.29187,1.40991,
-2.28729,1.41602,
-2.27814,1.40991,
-2.27356,1.40991,
-2.26288,1.41144,
-2.25525,1.40839,
-2.23999,1.41296,
-2.22626,1.41296,
-2.21252,1.40686,
-2.19116,1.41144,
-2.17285,1.41144,
-2.14844,1.41296,
-2.1286,1.41296,
-2.10266,1.40686,
-2.08435,1.40839,
-2.06146,1.41144,
-2.0401,1.41296,
-2.01721,1.40839,
-1.99585,1.40381,
-1.97754,1.40839,
-1.95923,1.40686,
-1.94397,1.41144,
-1.92261,1.41449,
-1.9043,1.40686,
-1.88904,1.40686,
-1.87531,1.40839,
-1.86462,1.41144,
-1.8631,1.40991,
-1.85394,1.40533,
-1.85089,1.40533,
-1.84937,1.41144,
-1.84479,1.42212,
-1.84326,1.41296,
-1.84326,1.40686,
-1.84631,1.41144,
-1.84021,1.40991,
-1.84326,1.40991,
-1.84479,1.41602,
-1.84479,1.40533,
-1.84326,1.40839,
-1.84021,1.41296,
-1.83563,1.41144,
-1.82953,1.41754,
-1.81885,1.40686,
-1.80969,1.40839,
-1.80359,1.41144,
-1.79749,1.40533,
-1.78528,1.41144,
-1.77765,1.40839,
-1.77002,1.41144,
-1.75934,1.41296,
-1.74866,1.41144,
-1.74255,1.41296,
-1.73645,1.40228,
-1.73798,1.41296,
-1.7334,1.41144,
-1.7334,1.41296,
-1.73187,1.41449,
-1.73187,1.40533,
-1.73492,1.40991,
-1.73798,1.41754,
-1.74561,1.41296,
-1.74866,1.41144,
-1.75476,1.40686,
-1.76086,1.40991,
-1.75781,1.40533,
-1.75781,1.41296,
-1.76239,1.41449,
-1.76849,1.40839,
-1.77002,1.40839,
-1.77002,1.40839,
-1.77612,1.41144,
-1.77307,1.41144,
-1.77612,1.40686,
-1.7746,1.40991,
-1.77307,1.40839,
-1.77155,1.41449,
-1.7746,1.40839,
-1.77155,1.40381,
-1.76697,1.40991,
-1.76544,1.40991,
-1.75629,1.41602,
-1.75018,1.41449,
-1.75018,1.40381,
-1.74561,1.40991,
-1.74561,1.40839,
-1.74255,1.40991,
-1.7395,1.40991,
-1.74103,1.40533,
-1.7395,1.41144,
-1.74255,1.40686,
-1.74408,1.40839,
-1.74561,1.41296,
-1.74713,1.40533,
-1.75018,1.40839,
-1.75476,1.40839,
-1.76086,1.40839,
-1.76239,1.41296,
-1.77002,1.40076,
-1.77765,1.40839,
-1.78375,1.40839,
-1.79138,1.40991,
-1.79901,1.41602,
-1.80664,1.40533,
-1.8158,1.40686,
-1.82037,1.40533,
-1.828,1.41144,
-1.82953,1.41144,
-1.83411,1.40686,
-1.83716,1.40839,
-1.84174,1.40991,
-1.84631,1.41296,
-1.84174,1.40991,
-1.83868,1.40228,
-1.84021,1.40839,
-1.84021,1.40686,
-1.83716,1.40686,
-1.83868,1.40991,
-1.83563,1.40381,
-1.83411,1.40839,
-1.83563,1.40991,
-1.84174,1.40991,
-1.83868,1.40991,
-1.83868,1.40686,
-1.83563,1.40839,
-1.82495,1.40533,
-1.8158,1.41144,
-1.80359,1.41144,
-1.79596,1.40228,
-1.7807,1.41296,
-1.77155,1.40381,
-1.75934,1.41144,
-1.74408,1.40839,
-1.73187,1.40839,
-1.71661,1.40839,
-1.70288,1.40686,
-1.69067,1.41144,
-1.67542,1.40991,
-1.66626,1.40533,
-1.64948,1.40533,
-1.64032,1.40839,
-1.63269,1.41449,
-1.62659,1.40991,
-1.62354,1.40533,
-1.62201,1.40686,
-1.61438,1.40991,
-1.61743,1.41144,
-1.62354,1.41144,
-1.62506,1.40228,
-1.62964,1.41144,
-1.62811,1.40533,
-1.62659,1.40991,
-1.62964,1.41296,
-1.62659,1.40686,
-1.62201,1.40839,
-1.62354,1.40839,
-1.61438,1.40839,
-1.61285,1.41144,
-1.6037,1.40228,
-1.59149,1.41144,
-1.57623,1.40686,
-1.55334,1.40839,
-1.52893,1.41296,
-1.49994,1.40228,
-1.47552,1.40686,
-1.44043,1.40839,
-1.40686,1.41296,
-1.37177,1.40991,
-1.32904,1.40533,
-1.29242,1.40991,
-1.24969,1.40533,
-1.21002,1.41144,
-1.1673,1.41602,
-1.12762,1.39923,
-1.08795,1.40839,
-1.04675,1.40686,
-1.01013,1.41144,
-0.973511,1.41296,
-0.932312,1.40839,
-0.895691,1.40839,
-0.854492,1.40686,
-0.817871,1.40991,
-0.779724,1.40991,
-0.746155,1.40686,
-0.720215,1.40839,
-0.694275,1.40991,
-0.671387,1.40991,
-0.65155,1.41296,
-0.639343,1.40381,
-0.627136,1.40991,
-0.622559,1.40686,
-0.616455,1.41296,
-0.622559,1.40991,
-0.628662,1.40839,
-0.640869,1.40839,
-0.648499,1.40686,
-0.663757,1.40991,
-0.672913,1.41144,
-0.68512,1.40839,
-0.697327,1.40991,
-0.715637,1.40533,
-0.72937,1.40991,
-0.741577,1.41144,
-0.750732,1.40533,
-0.764465,1.40991,
-0.772095,1.41144,
-0.778198,1.41296,
-0.785828,1.41144,
-0.784302,1.40228,
-0.784302,1.41296,
-0.787354,1.40839,
-0.785828,1.41144,
-0.785828,1.41602,
-0.784302,1.40533,
-0.787354,1.41144,
-0.798035,1.40991,
-0.804138,1.40991,
-0.810242,1.41144,
-0.820923,1.40686,
-0.823975,1.41449,
-0.836182,1.40839,
-0.842285,1.41144,
-0.845337,1.41449,
-0.85144,1.40991,
-0.85144,1.41296,
-0.854492,1.40381,
-0.856018,1.42517,
-0.852966,1.41144,
-0.849915,1.40991,
-0.842285,1.41449,
-0.834656,1.41449,
-0.828552,1.41602,
-0.814819,1.41449,
-0.804138,1.40991,
-0.787354,1.42059,
-0.778198,1.41144,
-0.764465,1.41602,
-0.750732,1.41602,
-0.735474,1.40686,
-0.721741,1.41449,
-0.71106,1.41296,
-0.700378,1.41754,
-0.689697,1.41602,
-0.679016,1.41296,
-0.67749,1.41754,
-0.668335,1.41296,
-0.665283,1.41754,
-0.663757,1.41602,
-0.665283,1.41144,
-0.663757,1.41296,
-0.668335,1.41296,
-0.672913,1.41602,
-0.67749,1.41602,
-0.691223,1.41144,
-0.70343,1.41602,
-0.714111,1.41754,
-0.72937,1.41754,
-0.743103,1.40991,
-0.761414,1.41144,
-0.776672,1.41602,
-0.790405,1.41449,
-0.810242,1.41602,
-0.823975,1.41754,
-0.842285,1.41449,
-0.863647,1.41754,
-0.878906,1.41296,
-0.904846,1.41907,
-0.921631,1.41907,
-0.942993,1.41449,
-0.964355,1.41602,
-0.982666,1.41602,
-1.00708,1.42059,
-1.02692,1.42059,
-1.0498,1.41449,
-1.07269,1.41907,
-1.09406,1.41602,
-1.11389,1.41754,
-1.13678,1.42365,
-1.15814,1.41449,
-1.17645,1.42059,
-1.19476,1.41602,
-1.21155,1.42212,
-1.23138,1.41907,
-1.24817,1.41296,
-1.26343,1.42212,
-1.28326,1.41754,
-1.29547,1.42212,
-1.31073,1.42059,
-1.32294,1.41449,
-1.33057,1.42059,
-1.34277,1.42212,
-1.35193,1.42365,
-1.35498,1.42365,
-1.35803,1.41754,
-1.36566,1.42517,
-1.37024,1.42212,
-1.37024,1.42059,
-1.37482,1.42517,
-1.37787,1.41602,
-1.3855,1.42517,
-1.38702,1.42059,
-1.39313,1.42365,
-1.39771,1.42517,
-1.40533,1.41754,
-1.40839,1.42365,
-1.42212,1.42517,
-1.42365,1.42365,
-1.4267,1.42517,
-1.43127,1.42059,
-1.43738,1.42517,
-1.43585,1.42822,
-1.44043,1.42822,
-1.44196,1.42975,
-1.44348,1.42059,
-1.44653,1.42975,
-1.45264,1.42975,
-1.45264,1.42975,
-1.45721,1.42822,
-1.45874,1.42517,
-1.46027,1.42975,
-1.46027,1.42822,
-1.45874,1.43127,
-1.45569,1.43127,
-1.45569,1.42517,
-1.45111,1.42975,
-1.44653,1.42822,
-1.43738,1.43127,
-1.42975,1.43433,
-1.42212,1.42059,
-1.41296,1.42822,
-1.39771,1.42822,
-1.38702,1.43127,
-1.37177,1.4328,
-1.35651,1.42822,
-1.3382,1.4328,
-1.32446,1.43127,
-1.30615,1.4328,
-1.29547,1.43433,
-1.28021,1.42822,
-1.26801,1.43433,
-1.26038,1.43127,
-1.25427,1.43738,
-1.24054,1.43433,
-1.22986,1.42822,
-1.22528,1.4328,
-1.21918,1.43433,
-1.21307,1.43585,
-1.2146,1.43433,
-1.20544,1.43127,
-1.20544,1.4328,
-1.21002,1.43433,
-1.21002,1.43585,
-1.21307,1.43585,
-1.2207,1.42975,
-1.22375,1.43585,
-1.23291,1.43585,
-1.24359,1.43433,
-1.25122,1.43738,
-1.26648,1.43127,
-1.27716,1.43585,
-1.29395,1.4328,
-1.31073,1.4328,
-1.32446,1.43738,
-1.33209,1.43127,
-1.3382,1.43738,
-1.35345,1.4328,
-1.36414,1.43738,
-1.37482,1.44043,
-1.38397,1.43585,
-1.39771,1.43585,
-1.41144,1.43585,
-1.41602,1.44043,
-1.4267,1.44196,
-1.42975,1.43433,
-1.43433,1.43585,
-1.43738,1.44043,
-1.4389,1.44043,
-1.44043,1.44196,
-1.4389,1.43433,
-1.4328,1.43738,
-1.4267,1.43738,
-1.42059,1.4389,
-1.41144,1.43738,
-1.40076,1.43585,
-1.39313,1.43738,
-1.38397,1.4389,
-1.37482,1.4389,
-1.35956,1.44043,
-1.34735,1.43738,
-1.33057,1.44196,
-1.31226,1.43738,
-1.29089,1.44653,
-1.2619,1.44501,
-1.23749,1.4389,
-1.2085,1.44196,
-1.18408,1.43738,
-1.15814,1.44348,
-1.12915,1.44501,
-1.10779,1.44196,
-1.08185,1.43433,
-1.06354,1.4389,
-1.04065,1.44653,
-1.01776,1.44348,
-0.999451,1.4389,
-0.978088,1.44196,
-0.961304,1.44043,
-0.946045,1.44501,
-0.933838,1.44501,
-0.920105,1.43585,
-0.912476,1.44043,
-0.901794,1.44043,
-0.895691,1.44501,
-0.886536,1.44348,
-0.88501,1.44196,
-0.88501,1.44501,
-0.881958,1.44348,
-0.88501,1.44501,
-0.892639,1.44501,
-0.897217,1.44196,
-0.909424,1.44348,
-0.921631,1.44196,
-0.93689,1.44196,
-0.947571,1.44653,
-0.970459,1.44043,
-0.98877,1.44348,
-1.00708,1.44501,
-1.02844,1.44653,
-1.05133,1.44501,
-1.06354,1.44196,
-1.0849,1.44196,
-1.10474,1.44348,
-1.12152,1.44653,
-1.14136,1.44806,
-1.15662,1.44196,
-1.17493,1.44043,
-1.19019,1.44958,
-1.21002,1.44653,
-1.22375,1.44806,
-1.23749,1.44043,
-1.25427,1.44501,
-1.26648,1.44348,
-1.28632,1.44806,
-1.29547,1.44958,
-1.31073,1.44348,
-1.32294,1.45569,
-1.33209,1.44348,
-1.34277,1.44806,
-1.35345,1.44653,
-1.35803,1.44348,
-1.37177,1.44806,
-1.38245,1.44806,
-1.39313,1.44958,
-1.40381,1.44501,
-1.41754,1.44501,
-1.42822,1.44806,
-1.44348,1.44196,
-1.45721,1.44501,
-1.474,1.44653,
-1.48621,1.44653,
-1.49994,1.44806,
-1.51215,1.44653,
-1.5213,1.44501,
-1.53503,1.44806,
-1.55029,1.44806,
-1.56403,1.44196,
-1.57623,1.44806,
-1.58844,1.44958,
-1.59607,1.44806,
-1.59912,1.44043,
-1.59607,1.44958,
-1.59149,1.44806,
-1.57776,1.44348,
-1.5625,1.45111,
-1.54572,1.44501,
-1.51825,1.44806,
-1.49384,1.44653,
-1.45721,1.44958,
-1.42365,1.44806,
-1.38855,1.44958,
-1.34888,1.45111,
-1.31073,1.44653,
-1.26953,1.44958,
-1.22528,1.44958,
-1.18713,1.44958,
-1.14288,1.45111,
-1.11084,1.45111,
-1.08032,1.44806,
-1.05286,1.45416,
-1.02234,1.44501,
-1.00403,1.44958,
-0.98114,1.44806,
-0.968933,1.44806,
-0.956726,1.45264,
-0.949097,1.44806,
-0.942993,1.44806,
-0.938416,1.44653,
-0.939941,1.45111,
-0.93689,1.45264,
-0.935364,1.44806,
-0.93689,1.45264,
-0.942993,1.44806,
-0.947571,1.45111,
-0.953674,1.45111,
-0.956726,1.45111,
-0.964355,1.44806,
-0.970459,1.45569,
-0.98114,1.45264,
-0.990295,1.44958,
-0.999451,1.44653,
-1.01166,1.45111,
-1.01929,1.46179,
-1.02539,1.45111,
-1.03302,1.45264,
-1.04523,1.44806,
-1.05591,1.44806,
-1.06506,1.45416,
-1.07574,1.45264,
-1.0849,1.44958,
-1.09711,1.45264,
-1.11389,1.45111,
-1.12457,1.45111,
-1.1322,1.45264,
-1.14594,1.45264,
-1.15204,1.45264,
-1.16119,1.45264,
-1.17798,1.46332,
-1.18866,1.45416,
-1.20544,1.45416,
-1.21918,1.44958,
-1.23138,1.45111,
-1.24969,1.45264,
-1.25885,1.45416,
-1.27106,1.45264,
-1.28632,1.44653,
-1.30005,1.45264,
-1.31378,1.45416,
-1.31989,1.45569,
-1.32751,1.45111,
-1.34583,1.44806,
-1.35498,1.45111,
-1.36108,1.45111,
-1.37024,1.45264,
-1.38245,1.45111,
-1.38397,1.44653,
-1.39008,1.44958,
-1.40076,1.45264,
-1.40686,1.45111,
-1.41144,1.45721,
-1.41907,1.44958,
-1.41907,1.44958,
-1.42517,1.44958,
-1.42517,1.45111,
-1.42517,1.45264,
-1.42517,1.44806,
-1.43127,1.44653,
-1.43433,1.44958,
-1.4389,1.45111,
-1.44653,1.45416,
-1.45874,1.44806,
-1.46484,1.44653,
-1.474,1.45264,
-1.49078,1.45111,
-1.49689,1.45111,
-1.50299,1.44806,
-1.51978,1.44958,
-1.5274,1.45111,
-1.53961,1.44958,
-1.5564,1.45264,
-1.57623,1.44958,
-1.59149,1.46179,
-1.60828,1.45111,
-1.62659,1.45111,
-1.64337,1.45111,
-1.66321,1.44958,
-1.68304,1.44958,
-1.70135,1.45569,
-1.71509,1.46484,
-1.73187,1.45111,
-1.74713,1.45111,
-1.76544,1.44806,
-1.7807,1.45264,
-1.79596,1.45111,
-1.81885,1.45111,
-1.83868,1.45264,
-1.8631,1.44806,
-1.88446,1.45111,
-1.90125,1.45264,
-1.91956,1.45111,
-1.93939,1.45264,
-1.95923,1.44806,
-1.98059,1.44501,
-2.00195,1.45111,
-2.02026,1.45111,
-2.0462,1.45111,
-2.07214,1.44958,
-2.08893,1.45111,
-2.10571,1.45416,
-2.12097,1.45111,
-2.14233,1.44958,
-2.16064,1.44958,
-2.17438,1.45416,
-2.18506,1.45264,
-2.19879,1.45111,
-2.20947,1.44958,
-2.22015,1.45264,
-2.23389,1.45264,
-2.25067,1.45111,
-2.2583,1.44806,
-2.27356,1.44958,
-2.28119,1.45111,
-2.28882,1.45111,
-2.29645,1.45111,
-2.30255,1.44958,
-2.31018,1.44958,
-2.31323,1.45416,
-2.31323,1.45264,
-2.31171,1.44958,
-2.3056,1.45264,
-2.29187,1.44958,
-2.27814,1.44806,
-2.2583,1.45111,
-2.23389,1.45111,
-2.20184,1.45416,
-2.17285,1.44806,
-2.13623,1.44653,
-2.09656,1.45264,
-2.05078,1.45721,
-2.00806,1.45264,
-1.9577,1.45264,
-1.9104,1.44653,
-1.86768,1.45111,
-1.8219,1.45721,
-1.77917,1.45264,
-1.7395,1.44806,
-1.69983,1.45111,
-1.66168,1.45111,
-1.62506,1.45111,
-1.5976,1.45111,
-1.57013,1.45111,
-1.54572,1.45111,
-1.52435,1.44958,
-1.49994,1.45416,
-1.47705,1.44958,
-1.46484,1.44958,
-1.45569,1.45416,
-1.44958,1.44653,
-1.44348,1.45264,
-1.44043,1.44958,
-1.44043,1.44958,
-1.44806,1.44958,
-1.45264,1.44958,
-1.45721,1.45111,
-1.46637,1.45111,
-1.47705,1.45111,
-1.48773,1.44958,
-1.50452,1.44958,
-1.51825,1.44958,
-1.53198,1.45264,
-1.54266,1.44806,
-1.55487,1.44958,
-1.56708,1.44958,
-1.58386,1.45569,
-1.59149,1.45111,
-1.59912,1.44806,
-1.6098,1.44958,
-1.61743,1.45111,
-1.62506,1.45111,
-1.63422,1.45264,
-1.6449,1.44958,
-1.65558,1.44958,
-1.66473,1.44806,
-1.67999,1.45264,
-1.69525,1.44958,
-1.70898,1.44653,
-1.72577,1.45264,
-1.7395,1.45111,
-1.75018,1.45111,
-1.76392,1.44958,
-1.77307,1.44806,
-1.78223,1.44806,
-1.78986,1.45111,
-1.80511,1.44958,
-1.80969,1.45111,
-1.82037,1.45111,
-1.83411,1.44653,
-1.83563,1.45111,
-1.84631,1.44958,
-1.85089,1.44653,
-1.85852,1.44958,
-1.8631,1.44653,
-1.87225,1.44806,
-1.88293,1.45416,
-1.88599,1.45264,
-1.89819,1.44958,
-1.9043,1.44501,
-1.91345,1.45111,
-1.92719,1.45721,
-1.94092,1.44806,
-1.95313,1.44958,
-1.96381,1.44958,
-1.97296,1.45111,
-1.98212,1.45264,
-1.99738,1.44958,
-2.00195,1.45264,
-2.01569,1.45721,
-2.03094,1.44806,
-2.03552,1.44958,
-2.04163,1.44958,
-2.05841,1.44958,
-2.06909,1.44806,
-2.07825,1.45111,
-2.09198,1.45264,
-2.10876,1.44958,
-2.11945,1.45264,
-2.1286,1.44806,
-2.14386,1.44958,
-2.15149,1.45264,
-2.1637,1.44958,
-2.1698,1.44653,
-2.18201,1.44958,
-2.19574,1.44958,
-2.20795,1.45416,
-2.22168,1.44958,
-2.23389,1.44653,
-2.24609,1.44653,
-2.26135,1.44958,
-2.27051,1.45264,
-2.28119,1.44348,
-2.29187,1.45111,
-2.2995,1.44501,
-2.31018,1.44806,
-2.31628,1.45111,
-2.33002,1.44653,
-2.34222,1.44348,
-2.3468,1.44653,
-2.35748,1.44958,
-2.36969,1.44958,
-2.38037,1.44958,
-2.39563,1.44958,
-2.41394,1.45111,
-2.42157,1.45264,
-2.43683,1.44806,
-2.45056,1.44958,
-2.46277,1.44653,
-2.47803,1.45416,
-2.49481,1.44958,
-2.50854,1.44806,
-2.52228,1.45111,
-2.53448,1.44653,
-2.54974,1.44958,
-2.56805,1.44958,
-2.58331,1.44958,
-2.59857,1.45111,
-2.61688,1.44501,
-2.63062,1.44806,
-2.64435,1.44958,
-2.65808,1.44806,
-2.66724,1.44501,
-2.67487,1.44806,
-2.67792,1.44653,
-2.67639,1.45264,
-2.67029,1.44806,
-2.65808,1.44958,
-2.64282,1.44653,
-2.62299,1.44653,
-2.60315,1.45111,
-2.57263,1.44958,
-2.53754,1.44653,
-2.50092,1.44653,
-2.45667,1.44653,
-2.41547,1.44806,
-2.37122,1.44958,
-2.32391,1.44501,
-2.27966,1.44958,
-2.22931,1.44958,
-2.18811,1.44806,
-2.14691,1.44958,
-2.10876,1.45111,
-2.07214,1.44958,
-2.034,1.44348,
-2.00195,1.44043,
-1.96991,1.45264,
-1.94397,1.44653,
-1.91803,1.44806,
-1.89667,1.44043,
-1.87988,1.44653,
-1.86462,1.45111,
-1.85394,1.45721,
-1.84326,1.44348,
-1.83716,1.44653,
-1.83563,1.44958,
-1.83411,1.44958,
-1.83105,1.44653,
-1.82953,1.44501,
-1.83105,1.44806,
-1.83105,1.44958,
-1.83411,1.44501,
-1.84021,1.44806,
-1.84479,1.44501,
-1.84631,1.44958,
-1.84937,1.44806,
-1.85242,1.44958,
-1.85394,1.44653,
-1.86005,1.44653,
-1.86462,1.44806,
-1.8692,1.44653,
-1.87225,1.44653,
-1.87988,1.44806,
-1.88599,1.44043,
-1.89056,1.44501,
-1.89667,1.44501,
-1.89972,1.44653,
-1.90735,1.44653,
-1.91498,1.44653,
-1.92719,1.44806,
-1.93176,1.44806,
-1.93787,1.44806,
-1.95007,1.44501,
-1.95923,1.44348,
-1.96686,1.44653,
-1.97754,1.44806,
-1.98364,1.44653,
-1.9989,1.44348,
-2.00806,1.44501,
-2.01874,1.44653,
-2.03094,1.44653,
-2.03552,1.44958,
-2.04773,1.44043,
-2.05688,1.44653,
-2.06757,1.44196,
-2.07062,1.44501,
-2.07672,1.44806,
-2.08588,1.44348,
-2.09656,1.44806,
-2.10724,1.44501,
-2.11029,1.44196,
-2.12555,1.44501,
-2.13623,1.44196,
-2.14691,1.44806,
-2.15149,1.44806,
-2.16064,1.44653,
-2.17438,1.44653,
-2.18353,1.44653,
-2.19269,1.44196,
-2.20184,1.44348,
-2.20947,1.44653,
-2.21252,1.44348,
-2.21252,1.44348,
-2.21863,1.44196,
-2.22015,1.44196,
-2.22626,1.44653,
-2.22931,1.44501,
-2.23083,1.44501,
-2.23389,1.44196,
-2.23389,1.44348,
-2.24304,1.44501,
-2.24152,1.44501,
-2.24457,1.44196,
-2.24609,1.44348,
-2.25372,1.44501,
-2.26135,1.44348,
-2.26746,1.44501,
-2.27203,1.43433,
-2.27966,1.45569,
-2.28729,1.4389,
-2.29645,1.44501,
-2.2995,1.44653,
-2.30865,1.44348,
-2.31781,1.44348,
-2.32544,1.44196,
-2.33002,1.44348,
-2.34375,1.44501,
-2.35138,1.4389,
-2.36053,1.44196,
-2.36969,1.44043,
-2.38495,1.44501,
-2.39563,1.44501,
-2.40936,1.44196,
-2.41852,1.44653,
-2.43378,1.4389,
-2.45056,1.44501,
-2.46124,1.44653,
-2.47345,1.43738,
-2.48566,1.44348,
-2.49634,1.44043,
-2.50549,1.44501,
-2.51923,1.44501,
-2.53296,1.44043,
-2.54822,1.44348,
-2.565,1.44196,
-2.57263,1.44806,
-2.58942,1.44501,
-2.60162,1.44043,
-2.61688,1.44653,
-2.63062,1.44043,
-2.63977,1.44196,
-2.6535,1.44348,
-2.66571,1.44348,
-2.67792,1.44501,
-2.6886,1.44196,
-2.69928,1.44043,
-2.70386,1.44196,
-2.70538,1.43585,
-2.70844,1.44348,
-2.70844,1.4389,
-2.70081,1.4389,
-2.69623,1.44196,
-2.68097,1.4389,
-2.66266,1.44043,
-2.6413,1.44196,
-2.61536,1.44348,
-2.58179,1.44501,
-2.54822,1.4389,
-2.50854,1.44043,
-2.47192,1.43738,
-2.43225,1.44196,
-2.39716,1.44196,
-2.35291,1.44196,
-2.31323,1.4389,
-2.27661,1.44043,
-2.24152,1.44348,
-2.20947,1.44348,
-2.1759,1.44043,
-2.14996,1.44043,
-2.1225,1.44043,
-2.10114,1.44043,
-2.08282,1.44043,
-2.06909,1.44043,
-2.05688,1.44348,
-2.05078,1.4389,
-2.04315,1.44043,
-2.03552,1.44958,
-2.034,1.44043,
-2.02789,1.4389,
-2.02637,1.43585,
-2.02789,1.44043,
-2.034,1.43738,
-2.03552,1.44348,
-2.03857,1.43433,
-2.0462,1.43433,
-2.05078,1.44196,
-2.05231,1.44196,
-2.05536,1.4389,
-2.06146,1.44043,
-2.06451,1.43738,
-2.07214,1.44196,
-2.07977,1.44196,
-2.08588,1.4389,
-2.09503,1.44196,
-2.10419,1.44196,
-2.11182,1.44501,
-2.11792,1.44196,
-2.12402,1.44043,
-2.13318,1.4328,
-2.14081,1.43585,
-2.15149,1.44196,
-2.15607,1.4389,
-2.17285,1.4389,
-2.18048,1.44043,
-2.19116,1.43738,
-2.20184,1.44196,
-2.21252,1.44043,
-2.21863,1.4389,
-2.23236,1.4389,
-2.23999,1.4389,
-2.2522,1.4389,
-2.2644,1.44043,
-2.27661,1.4389,
-2.28882,1.44196,
-2.30103,1.43738,
-2.30865,1.43738,
-2.31628,1.44043,
-2.32849,1.43585,
-2.33002,1.44196,
-2.33459,1.43738,
-2.3407,1.4389,
-2.34833,1.44196,
-2.35138,1.4328,
-2.34985,1.43585,
-2.35443,1.43585,
-2.35291,1.44043,
-2.35748,1.44043,
-2.36206,1.4389,
-2.36206,1.43585,
-2.36511,1.43738,
-2.36511,1.44043,
-2.36664,1.4389,
-2.36816,1.43738,
-2.37427,1.43738,
-2.37427,1.43738,
-2.37122,1.43738,
-2.37732,1.43433,
-2.37885,1.43738,
-2.3819,1.4389,
-2.388,1.43738,
-2.39563,1.4389,
-2.40021,1.43738,
-2.40936,1.4389,
-2.41394,1.4389,
-2.42004,1.43738,
-2.42615,1.4389,
-2.42767,1.43738,
-2.43683,1.43738,
-2.43988,1.43738,
-2.45209,1.43433,
-2.46277,1.43738,
-2.4704,1.4389,
-2.47955,1.43738,
-2.49481,1.43738,
-2.50397,1.43433,
-2.5177,1.4389,
-2.53143,1.4389,
-2.54974,1.43738,
-2.55737,1.43738,
-2.57416,1.4328,
-2.59094,1.44043,
-2.60162,1.43738,
-2.61078,1.43738,
-2.62451,1.43738,
-2.63824,1.43738,
-2.65198,1.44196,
-2.66266,1.43585,
-2.67639,1.43738,
-2.69623,1.43585,
-2.70844,1.4328,
-2.72522,1.43433,
-2.73895,1.43585,
-2.75269,1.43433,
-2.76794,1.43738,
-2.78625,1.43585,
-2.80304,1.43738,
-2.82288,1.43127,
-2.83508,1.4328,
-2.85034,1.43127,
-2.86407,1.4328,
-2.87933,1.4328,
-2.89459,1.43585,
-2.90985,1.4328,
-2.92358,1.43585,
-2.93274,1.4328,
-2.94647,1.4389,
-2.9541,1.43738,
-2.96478,1.43433,
-2.97546,1.43433,
-2.98157,1.43585,
-2.98767,1.43585,
-2.99377,1.4389,
-2.99683,1.4389,
-2.98462,1.43585,
-2.97546,1.43127,
-2.95563,1.43585,
-2.93732,1.43585,
-2.9129,1.4389,
-2.88086,1.43585,
-2.84119,1.43585,
-2.79999,1.43585,
-2.76337,1.43585,
-2.71454,1.43738,
-2.67029,1.43585,
-2.62451,1.43585,
-2.58331,1.43433,
-2.54211,1.43585,
-2.50244,1.4389,
-2.46429,1.43585,
-2.42615,1.43585,
-2.40021,1.43738,
-2.37122,1.43585,
-2.34375,1.43585,
-2.32544,1.43585,
-2.3056,1.43127,
-2.28882,1.43738,
-2.27509,1.43585,
-2.26593,1.4328,
-2.25372,1.43738,
-2.24915,1.43433,
-2.24152,1.43433,
-2.24152,1.43433,
-2.23999,1.43738,
-2.23236,1.4328,
-2.23694,1.43127,
-2.23694,1.4389,
-2.24457,1.43585,
-2.24762,1.43127,
-2.25067,1.4328,
-2.2583,1.43127,
-2.26593,1.4389,
-2.27966,1.43433,
-2.29492,1.43433,
-2.3056,1.43585,
-2.31476,1.42975,
-2.33002,1.4328,
-2.34375,1.43127,
-2.35596,1.43433,
-2.37579,1.43738,
-2.39563,1.43127,
-2.41089,1.43127,
-2.42004,1.4328,
-2.43988,1.43585,
-2.45514,1.43433,
-2.47345,1.42975,
-2.49329,1.43127,
-2.51312,1.43738,
-2.52991,1.4328,
-2.54822,1.43585,
-2.56653,1.43127,
-2.59247,1.43585,
-2.61078,1.4389,
-2.63519,1.43127,
-2.65656,1.43127,
-2.67487,1.42975,
-2.70081,1.43433,
-2.72217,1.43738,
-2.7359,1.43433,
-2.75269,1.43127,
-2.771,1.4328,
-2.78625,1.4328,
-2.80304,1.43433,
-2.81525,1.43585,
-2.82593,1.42975,
-2.83813,1.43127,
-2.84576,1.4328,
-2.85797,1.4328,
-2.86713,1.4328,
-2.87476,1.43433,
-2.87933,1.43127,
-2.88086,1.4328,
-2.87933,1.4328,
-2.88391,1.43127,
-2.88391,1.42975,
-2.88544,1.42822,
-2.89001,1.43585,
-2.88696,1.43433,
-2.89307,1.43433,
-2.89612,1.4328,
-2.89764,1.42822,
-2.90375,1.43585,
-2.9068,1.43433,
-2.90985,1.43738,
-2.91595,1.43433,
-2.92816,1.42517,
-2.93427,1.43433,
-2.94189,1.43127,
-2.95868,1.4328,
-2.96783,1.42822,
-2.97699,1.42822,
-2.9892,1.43433,
-2.99988,1.43433,
-3.00903,1.4328,
-3.01971,1.4328,
-3.02734,1.42822,
-3.03345,1.43433,
-3.04413,1.43127,
-3.05176,1.42822,
-3.06549,1.43585,
-3.07617,1.42822,
-3.08533,1.43127,
-3.09601,1.4389,
-3.10364,1.43433,
-3.11432,1.43127,
-3.125,1.42517,
-3.13416,1.43127,
-3.14636,1.43585,
-3.1601,1.43127,
-3.16772,1.4328,
-3.17688,1.43127,
-3.18298,1.42822,
-3.19061,1.4328,
-3.19977,1.43127,
-3.20892,1.43433,
-3.21808,1.42365,
-3.22723,1.44196,
-3.23944,1.43433,
-3.25165,1.43127,
-3.25928,1.42975,
-3.26843,1.42365,
-3.27454,1.4328,
-3.28827,1.4328,
-3.2959,1.4328,
-3.30658,1.42822,
-3.31421,1.42517,
-3.32031,1.43127,
-3.32947,1.43433,
-3.33862,1.43127,
-3.34473,1.43127,
-3.35236,1.42822,
-3.35999,1.42975,
-3.36304,1.43127,
-3.36761,1.43127,
-3.37067,1.42975,
-3.3783,1.42822,
-3.38593,1.42822,
-3.38745,1.42975,
-3.38898,1.42822,
-3.39508,1.42975,
-3.39355,1.42822,
-3.39661,1.43127,
-3.39813,1.42517,
-3.39661,1.42822,
-3.39355,1.43127,
-3.38898,1.42212,
-3.37982,1.4328,
-3.36761,1.43127,
-3.34625,1.43585,
-3.32642,1.42517,
-3.2959,1.42212,
-3.26538,1.42822,
-3.23334,1.42975,
-3.19672,1.42822,
-3.15857,1.4328,
-3.11432,1.42059,
-3.07312,1.42975,
-3.0304,1.42822,
-2.98462,1.42822,
-2.94647,1.42822,
-2.90375,1.42822,
-2.86407,1.4328,
-2.8244,1.4328,
-2.79388,1.42822,
-2.76184,1.42822,
-2.73285,1.42365,
-2.70691,1.42975,
-2.68555,1.42517,
-2.67181,1.42822,
-2.65808,1.42822,
-2.64435,1.42212,
-2.63824,1.42517,
-2.62909,1.42517,
-2.62604,1.42975,
-2.62756,1.42822,
-2.62756,1.42822,
-2.63062,1.42059,
-2.63519,1.42975,
-2.6413,1.42212,
-2.64435,1.43127,
-2.64587,1.41907,
-2.6535,1.42822,
-2.65656,1.43127,
-2.66113,1.42822,
-2.66266,1.42365,
-2.66876,1.42212,
-2.67181,1.42822,
-2.67639,1.42975,
-2.6886,1.42822,
-2.69318,1.42365,
-2.69623,1.42059,
-2.69928,1.42517,
-2.70691,1.42517,
-2.71149,1.42365,
-2.72064,1.42365,
-2.73132,1.42212,
-2.73743,1.42822,
-2.74353,1.42517,
-2.75269,1.42975,
-2.75574,1.42822,
-2.76642,1.42517,
-2.77405,1.42822,
-2.78625,1.42822,
-2.79694,1.42365,
-2.80762,1.42212,
-2.82135,1.42059,
-2.82898,1.42365,
-2.83661,1.42212,
-2.84882,1.42517,
-2.86102,1.42365,
-2.87018,1.41907,
-2.88391,1.42212,
-2.89459,1.42365,
-2.90375,1.42517,
-2.91138,1.42365,
-2.91901,1.41907,
-2.92664,1.42517,
-2.92969,1.42365,
-2.93121,1.42365,
-2.93274,1.42059,
-2.93121,1.41907,
-2.93427,1.42822,
-2.93121,1.42365,
-2.93579,1.42212,
-2.93427,1.42212,
-2.93274,1.42059,
-2.93274,1.42517,
-2.93427,1.42365,
-2.92969,1.42365,
-2.93121,1.42365,
-2.92664,1.42212,
-2.92664,1.42212,
-2.92816,1.42365,
-2.93274,1.42822,
-2.93427,1.42212,
-2.93274,1.41296,
-2.93427,1.41907,
-2.93274,1.41907,
-2.93427,1.42365,
-2.93579,1.42517,
-2.93274,1.41907,
-2.93121,1.42365,
-2.93427,1.42212,
-2.93274,1.42365,
-2.93579,1.42059,
-2.93579,1.41754,
-2.94189,1.41907,
-2.94647,1.42212,
-2.94952,1.42365,
-2.9541,1.41907,
-2.96173,1.41754,
-2.96478,1.42365,
-2.96936,1.42517,
-2.97699,1.42365,
-2.98157,1.41907,
-2.9892,1.41907,
-2.99683,1.41907,
-3.01056,1.41449,
-3.01666,1.41754,
-3.02429,1.41907,
-3.03345,1.42059,
-3.03955,1.41754,
-3.04413,1.41449,
-3.05328,1.42212,
-3.06396,1.42212,
-3.07007,1.41907,
-3.08228,1.41907,
-3.0899,1.41907,
-3.10211,1.42212,
-3.11432,1.41907,
-3.12653,1.41754,
-3.13263,1.41907,
-3.14484,1.42059,
-3.15094,1.42212,
-3.16162,1.41907,
-3.17078,1.41602,
-3.18451,1.41907,
-3.19214,1.42059,
-3.20282,1.42365,
-3.21045,1.41907,
-3.22266,1.41602,
-3.23029,1.42059,
-3.23792,1.42212,
-3.24554,1.42365,
-3.25165,1.41907,
-3.25623,1.41449,
-3.25775,1.41907,
-3.2608,1.41907,
-3.26233,1.42212,
-3.26233,1.41449,
-3.2608,1.40991,
-3.26233,1.42212,
-3.26233,1.42059,
-3.26233,1.41907,
-3.26996,1.41449,
-3.27148,1.41602,
-3.27301,1.42059,
-3.26996,1.41449,
-3.25775,1.41602,
-3.25012,1.42212,
-3.23944,1.41449,
-3.22113,1.41754,
-3.20129,1.41754,
-3.17841,1.41907,
-3.14941,1.41754,
-3.12042,1.41602,
-3.08838,1.41449,
-3.05481,1.42059,
-3.01971,1.41449,
-2.98309,1.42059,
-2.948,1.41602,
-2.91443,1.41449,
-2.87781,1.41754,
-2.84576,1.41907,
-2.81372,1.41754,
-2.78931,1.41296,
-2.75726,1.41754,
-2.73132,1.42212,
-2.70844,1.42059,
-2.6947,1.41296,
-2.67487,1.41144,
-2.66418,1.41602,
-2.65045,1.41754,
-2.64282,1.42059,
-2.63977,1.41449,
-2.63367,1.41449,
-2.63367,1.41449,
-2.63062,1.41449,
-2.62909,1.41754,
-2.63214,1.41754,
-2.63519,1.41449,
-2.63367,1.41449,
-2.63824,1.41602,
-2.64893,1.41602,
-2.65045,1.41296,
-2.65656,1.41449,
-2.65808,1.41602,
-2.66571,1.41754,
-2.66724,1.42059,
-2.67181,1.41296,
-2.67792,1.41296,
-2.68707,1.41449,
-2.69012,1.41602,
-2.69623,1.41907,
-2.70538,1.41602,
-2.71454,1.40839,
-2.72675,1.41144,
-2.73285,1.41602,
-2.74353,1.41602,
-2.74811,1.41602,
-2.75879,1.40839,
-2.76489,1.41449,
-2.77405,1.41602,
-2.7832,1.41602,
-2.79236,1.41449,
-2.79846,1.41144,
-2.80609,1.41754,
-2.81525,1.41754,
-2.82593,1.41449,
-2.83356,1.41449,
-2.84424,1.40991,
-2.85034,1.41449,
-2.86102,1.41754,
-2.86865,1.41449,
-2.86865,1.41754,
-2.8717,1.41144,
-2.87781,1.41296,
-2.88239,1.41602,
-2.88544,1.41754,
-2.89154,1.41602,
-2.89459,1.40991,
-2.89917,1.40991,
-2.89917,1.41449,
-2.89917,1.41296,
-2.89612,1.41449,
-2.89612,1.40991,
-2.89764,1.41449,
-2.89459,1.41754,
-2.89307,1.41296,
-2.89154,1.40991,
-2.88391,1.40991,
-2.88391,1.41449,
-2.88239,1.41754,
-2.88391,1.40991,
-2.88544,1.41144,
-2.88239,1.40991,
-2.88086,1.41449,
-2.87781,1.41296,
-2.87628,1.41296,
-2.87781,1.41144,
-2.87781,1.41449,
-2.88391,1.40991,
-2.88696,1.41449,
-2.89154,1.41602,
-2.89612,1.41144,
-2.9007,1.40839,
-2.90527,1.40991,
-2.91138,1.41144,
-2.91901,1.41144,
-2.92969,1.40991,
-2.93427,1.41144,
-2.948,1.40839,
-2.96326,1.41602,
-2.97699,1.41754,
-2.99072,1.40991,
-3.00446,1.40533,
-3.01819,1.40991,
-3.03192,1.41449,
-3.0426,1.41144,
-3.05328,1.41296,
-3.07007,1.40533,
-3.08075,1.41144,
-3.0899,1.40839,
-3.10211,1.41602,
-3.11432,1.40991,
-3.12042,1.40991,
-3.12653,1.40686,
-3.13721,1.41449,
-3.14026,1.41144,
-3.14789,1.40839,
-3.15552,1.40839,
-3.1662,1.41296,
-3.1723,1.41144,
-3.18146,1.40991,
-3.18451,1.41144,
-3.19061,1.40533,
-3.18909,1.40991,
-3.19519,1.41602,
-3.19977,1.40991,
-3.20435,1.40839,
-3.20892,1.40686,
-3.21198,1.40839,
-3.21655,1.41144,
-3.21655,1.41144,
-3.22418,1.41296,
-3.22723,1.40991,
-3.23486,1.40686,
-3.24402,1.41144,
-3.25165,1.40991,
-3.25775,1.40686,
-3.26843,1.40839,
-3.27301,1.40991,
-3.28064,1.40991,
-3.28522,1.40991,
-3.29132,1.40839,
-3.302,1.40686,
-3.30658,1.40991,
-3.31573,1.40991,
-3.32031,1.41144,
-3.32947,1.40533,
-3.3371,1.40991,
-3.3432,1.40686,
-3.34625,1.40991,
-3.34625,1.40839,
-3.34167,1.40686,
-3.33252,1.40991,
-3.32031,1.40686,
-3.30505,1.40533,
-3.28064,1.40686,
-3.2608,1.40839,
-3.22876,1.41144,
-3.19214,1.40533,
-3.15857,1.40991,
-3.11432,1.40839,
-3.07159,1.40991,
-3.03192,1.40839,
-2.9892,1.40839,
-2.95105,1.40991,
-2.91138,1.40991,
-2.87476,1.40839,
-2.84119,1.40228,
-2.80762,1.40839,
-2.7771,1.41144,
-2.74963,1.40991,
-2.72675,1.40839,
-2.70081,1.40533,
-2.67944,1.40839,
-2.66724,1.40686,
-2.65808,1.40533,
-2.64587,1.40686,
-2.63519,1.40686,
-2.63214,1.40991,
-2.62909,1.40839,
-2.62604,1.40533,
-2.63062,1.40686,
-2.62909,1.40228,
-2.63367,1.40991,
-2.63214,1.40839,
-2.63519,1.40533,
-2.63977,1.40533,
-2.64893,1.40686,
-2.65503,1.40991,
-2.65808,1.40381,
-2.66571,1.40686,
-2.67334,1.40533,
-2.67639,1.40686,
-2.67792,1.40076,
-2.67944,1.40839,
-2.68707,1.40686,
-2.68555,1.40686,
-2.69165,1.40533,
-2.69165,1.40381,
-2.6947,1.40686,
-2.70233,1.40686,
-2.70386,1.40533,
-2.70691,1.40381,
-2.70996,1.40381,
-2.71759,1.40686,
-2.72369,1.40686,
-2.72675,1.40228,
-2.73438,1.40228,
-2.74353,1.40381,
-2.75421,1.40686,
-2.76489,1.40381,
-2.77863,1.40076,
-2.78778,1.39923,
-2.80304,1.40076,
-2.81219,1.40533,
-2.83203,1.40228,
-2.84424,1.40533,
-2.86102,1.40228,
-2.87476,1.40533,
-2.89001,1.40533,
-2.89917,1.40381,
-2.90527,1.40076,
-2.9129,1.40381,
-2.92511,1.40381,
-2.92969,1.40228,
-2.93579,1.40533,
-2.94342,1.40381,
-2.948,1.40381,
-2.9541,1.40533,
-2.95868,1.40533,
-2.96173,1.40686,
-2.96478,1.40228,
-2.96936,1.39771,
-2.97241,1.40228,
-2.97394,1.40839,
-2.97241,1.40686,
-2.97394,1.40533,
-2.96936,1.40533,
-2.96783,1.40381,
-2.96783,1.40533,
-2.96478,1.40076,
-2.96783,1.40228,
-2.96936,1.39923,
-2.97089,1.40381,
-2.96936,1.40381,
-2.97394,1.39923,
-2.97699,1.40381,
-2.97699,1.40076,
-2.98157,1.40228,
-2.98462,1.40991,
-2.99072,1.39923,
-2.99072,1.40228,
-2.99683,1.40076,
-2.99835,1.39923,
-3.00598,1.40228,
-3.01056,1.40228,
-3.01056,1.40381,
-3.01361,1.39771,
-3.02124,1.39771,
-3.0304,1.40228,
-3.0365,1.40533,
-3.0426,1.40076,
-3.04718,1.39771,
-3.05481,1.39923,
-3.06244,1.40533,
-3.07159,1.40228,
-3.0777,1.39923,
-3.08228,1.39618,
-3.08533,1.40076,
-3.09753,1.40228,
-3.10211,1.40076,
-3.10516,1.39771,
-3.11127,1.39313,
-3.11584,1.40076,
-3.12347,1.40076,
-3.12805,1.39923,
-3.13568,1.40076,
-3.14331,1.39771,
-3.14941,1.39771,
-3.15552,1.39618,
-3.1662,1.39618,
-3.17383,1.39923,
-3.18298,1.39618,
-3.18604,1.40076,
-3.19519,1.39923,
-3.20587,1.40076,
-3.2135,1.40076,
-3.21808,1.39313,
-3.22571,1.40076,
-3.22723,1.39313,
-3.23334,1.39771,
-3.23792,1.39923,
-3.24249,1.39313,
-3.24554,1.39923,
-3.25012,1.39923,
-3.25775,1.40076,
-3.26996,1.40076,
-3.27606,1.39008,
-3.28369,1.39618,
-3.28674,1.39923,
-3.29285,1.39313,
-3.302,1.39618,
-3.31268,1.39313,
-3.32336,1.39923,
-3.32947,1.40228,
-3.34167,1.39771,
-3.34778,1.39313,
-3.35083,1.3916,
-3.35541,1.39923,
-3.35236,1.40076,
-3.34625,1.39313,
-3.34015,1.39771,
-3.33099,1.39008,
-3.31573,1.38702,
-3.302,1.39313,
-3.27911,1.39618,
-3.25775,1.40228,
-3.22876,1.38855,
-3.19977,1.38855,
-3.16162,1.39923,
-3.12653,1.39771,
-3.0838,1.40076,
-3.04565,1.39008,
-3.00446,1.3916,
-2.96631,1.39923,
-2.92664,1.39771,
-2.89154,1.39923,
-2.85645,1.38855,
-2.83051,1.3916,
-2.80151,1.39923,
-2.77863,1.39923,
-2.75421,1.39618,
-2.72827,1.38855,
-2.71301,1.39771,
-2.6947,1.39771,
-2.67334,1.39313,
-2.65961,1.39618,
-2.65198,1.39008,
-2.63977,1.38855,
-2.63519,1.39618,
-2.63824,1.39771,
-2.63367,1.39771,
-2.63367,1.38702,
-2.63519,1.3916,
-2.63977,1.39618,
-2.6413,1.39313,
-2.64587,1.39313,
-2.65045,1.39008,
-2.6535,1.39313,
-2.66266,1.39313,
-2.67029,1.39618,
-2.67487,1.39771,
-2.67944,1.38855,
-2.68097,1.39008,
-2.68555,1.39771,
-2.68707,1.40076,
-2.69012,1.39618,
-2.69623,1.3855,
-2.69775,1.39313,
-2.70386,1.39618,
-2.70996,1.39618,
-2.71149,1.39618,
-2.71759,1.3855,
-2.72675,1.38855,
-2.7359,1.39313,
-2.74048,1.39008,
-2.75574,1.39313,
-2.76337,1.38702,
-2.77252,1.39771,
-2.7832,1.39923,
-2.79236,1.38855,
-2.80304,1.3916,
-2.80914,1.3855,
-2.81525,1.39313,
-2.82288,1.39313,
-2.82745,1.39313,
-2.83508,1.39618,
-2.84271,1.3855,
-2.85034,1.39313,
-2.86102,1.39313,
-2.8656,1.39618,
-2.8717,1.39771,
-2.87323,1.38855,
-2.87933,1.3916,
-2.87781,1.40991,
-2.88086,1.38855,
-2.87933,1.39313,
-2.87781,1.3855,
-2.88086,1.39008,
-2.88239,1.3916,
-2.88086,1.3916,
-2.88086,1.38855,
-2.87933,1.38245,
-2.87781,1.39313,
-2.87323,1.39923,
-2.87018,1.3916,
-2.87018,1.3916,
-2.87323,1.38855,
-2.8717,1.39008,
-2.8717,1.39313,
-2.87476,1.3916,
-2.87476,1.39008,
-2.88086,1.38855,
-2.87933,1.38855,
-2.87781,1.3916,
-2.87781,1.3916,
-2.87476,1.39008,
-2.87476,1.39008,
-2.87476,1.38855,
-2.87476,1.39313,
-2.87933,1.3916,
-2.88086,1.39313,
-2.88544,1.38702,
-2.88391,1.3916,
-2.88544,1.39313,
-2.88696,1.39313,
-2.88696,1.39313,
-2.89459,1.38397,
-2.89917,1.3916,
-2.89764,1.39618,
-2.9068,1.39771,
-2.90985,1.39008,
-2.91443,1.3855,
-2.91748,1.39313,
-2.91901,1.39313,
-2.92816,1.39618,
-2.93579,1.39618,
-2.94189,1.38855,
-2.94647,1.3916,
-2.948,1.39771,
-2.95868,1.39313,
-2.96173,1.39618,
-2.96783,1.38702,
-2.97546,1.39313,
-2.98157,1.3916,
-2.98767,1.3916,
-2.9953,1.39618,
-2.99683,1.38702,
-3.00293,1.39313,
-3.00903,1.39618,
-3.01514,1.39618,
-3.01819,1.39313,
-3.01666,1.38702,
-3.02124,1.3916,
-3.02277,1.39313,
-3.02887,1.3916,
-3.03192,1.39313,
-3.03497,1.38855,
-3.04108,1.38397,
-3.03955,1.39618,
-3.0426,1.3916,
-3.04565,1.39313,
-3.05176,1.38702,
-3.06244,1.38855,
-3.06244,1.39618,
-3.06854,1.39313,
-3.07465,1.39008,
-3.07922,1.39008,
-3.0838,1.3916,
-3.0899,1.40076,
-3.09296,1.39313,
-3.09753,1.39008,
-3.10364,1.38702,
-3.10516,1.3916,
-3.10822,1.39771,
-3.11432,1.39313,
-3.11737,1.3916,
-3.12347,1.3916,
-3.12653,1.3916,
-3.13568,1.39313,
-3.13721,1.3916,
-3.14331,1.38855,
-3.15247,1.40533,
-3.15857,1.39008,
-3.16162,1.3916,
-3.1723,1.39618,
-3.17535,1.39618,
-3.18298,1.39313,
-3.19366,1.39008,
-3.20282,1.39618,
-3.20435,1.39618,
-3.20892,1.39313,
-3.21198,1.38855,
-3.2135,1.39313,
-3.21198,1.39771,
-3.20587,1.39618,
-3.20129,1.38855,
-3.18756,1.38245,
-3.1723,1.3916,
-3.15399,1.3916,
-3.1311,1.39771,
-3.10669,1.38855,
-3.07617,1.39008,
-3.04871,1.39618,
-3.01361,1.39313,
-2.98004,1.39923,
-2.94189,1.39313,
-2.90375,1.39618,
-2.87018,1.39771,
-2.83661,1.39771,
-2.79999,1.39618,
-2.77252,1.3916,
-2.74353,1.39771,
-2.71759,1.39618,
-2.69318,1.39771,
-2.67334,1.39618,
-2.6535,1.39313,
-2.63519,1.39008,
-2.61993,1.3916,
-2.60925,1.39618,
-2.59552,1.39618,
-2.58942,1.39771,
-2.58789,1.3855,
-2.58179,1.38855,
-2.58179,1.39771,
-2.58484,1.39771,
-2.58942,1.39771,
-2.59247,1.38855,
-2.59552,1.39008,
-2.60162,1.3916,
-2.60925,1.39771,
-2.61688,1.39313,
-2.62451,1.38702,
-2.63214,1.39008,
-2.64282,1.39923,
-2.65503,1.39313,
-2.66571,1.39313,
-2.67944,1.39008,
-2.69318,1.3916,
-2.70386,1.39923,
-2.71759,1.39923,
-2.7298,1.39008,
-2.74353,1.39313,
-2.75574,1.3916,
-2.76794,1.39771,
-2.7771,1.39771,
-2.79083,1.39923,
-2.80151,1.39313,
-2.81525,1.39313,
-2.83051,1.39618,
-2.84424,1.39771,
-2.86255,1.39313,
-2.87476,1.39618,
-2.89764,1.39008,
-2.9129,1.39313,
-2.92664,1.40076,
-2.94189,1.39923,
-2.95563,1.39618,
-2.97394,1.39313,
-2.98615,1.39923,
-3.0014,1.40228,
-3.01819,1.39771,
-3.0304,1.39313,
-3.04108,1.39771,
-3.04718,1.39923,
-3.05634,1.39923,
-3.06244,1.39923,
-3.07159,1.3916,
-3.07617,1.39618,
-3.07617,1.40076,
-3.08228,1.40228,
-3.08228,1.39771,
-3.08685,1.39313,
-3.08685,1.39008,
-3.0838,1.39923,
-3.08533,1.39771,
-3.08228,1.40076,
-3.08228,1.39618,
-3.0838,1.39771,
-3.08533,1.39923,
-3.08228,1.39313,
-3.08228,1.39923,
-3.08228,1.3916,
-3.08075,1.39618,
-3.07922,1.40076,
-3.08228,1.39618,
-3.0838,1.39771,
-3.08533,1.39008,
-3.08685,1.39771,
-3.08228,1.39923,
-3.09143,1.39923,
-3.08838,1.40228,
-3.09601,1.39618,
-3.09753,1.39313,
-3.10059,1.40076,
-3.10669,1.39923,
-3.11127,1.39923,
-3.11584,1.39618,
-3.11737,1.39313,
-3.11737,1.40076,
-3.12042,1.39923,
-3.12653,1.39923,
-3.13416,1.39771,
-3.14331,1.39313,
-3.14789,1.39313,
-3.15857,1.39923,
-3.16772,1.39771,
-3.17688,1.39771,
-3.18756,1.3916,
-3.19977,1.40076,
-3.21045,1.39771,
-3.21655,1.40839,
-3.22113,1.3916,
-3.23334,1.3916,
-3.24097,1.39771,
-3.25012,1.39771,
-3.25928,1.40076,
-3.27148,1.40076,
-3.28369,1.39618,
-3.29437,1.40228,
-3.30353,1.40076,
-3.31421,1.39923,
-3.32489,1.39618,
-3.33099,1.39618,
-3.33405,1.39771,
-3.34167,1.40381,
-3.34778,1.39923,
-3.35388,1.39618,
-3.36151,1.39313,
-3.36304,1.39923,
-3.37067,1.40076,
-3.37982,1.40076,
-3.37982,1.39618,
-3.38135,1.39771,
-3.3844,1.40228,
-3.38287,1.40228,
-3.38745,1.39923,
-3.38745,1.39008,
-3.38898,1.39923,
-3.39203,1.39923,
-3.39355,1.39771,
-3.39813,1.39618,
-3.40271,1.39313,
-3.40118,1.39923,
-3.40271,1.39923,
-3.40729,1.40381,
-3.40729,1.39923,
-3.40881,1.39923,
-3.41187,1.39771,
-3.41339,1.40076,
-3.41949,1.39771,
-3.42102,1.39923,
-3.42865,1.39771,
-3.4317,1.39771,
-3.43628,1.40076,
-3.44086,1.39771,
-3.44391,1.40381,
-3.44238,1.39618,
-3.44543,1.39771,
-3.44543,1.39923,
-3.44696,1.40076,
-3.45459,1.40381,
-3.45764,1.39313,
-3.45764,1.39771,
-3.46527,1.40076,
-3.46985,1.39923,
-3.47443,1.40076,
-3.48358,1.39771,
-3.48663,1.39923,
-3.48969,1.40381,
-3.49884,1.40076,
-3.50189,1.39771,
-3.51257,1.39771,
-3.5141,1.39771,
-3.51563,1.40228,
-3.51563,1.40228,
-3.51563,1.39771,
-3.50952,1.39923,
-3.49731,1.39771,
-3.48663,1.40076,
-3.47137,1.39771,
-3.45306,1.39923,
-3.43018,1.39923,
-3.40576,1.39618,
-3.37524,1.39618,
-3.34473,1.40076,
-3.30963,1.40076,
-3.27454,1.40076,
-3.23334,1.39923,
-3.19519,1.40228,
-3.15704,1.40381,
-3.11737,1.40076,
-3.0777,1.39771,
-3.03802,1.39923,
-3.0014,1.40228,
-2.96783,1.40381,
-2.93732,1.40076,
-2.90833,1.39313,
-2.88391,1.39923,
-2.86407,1.40228,
-2.85187,1.40228,
-2.83051,1.39771,
-2.8183,1.3916,
-2.81219,1.39771,
-2.80151,1.40228,
-2.79999,1.40228,
-2.79388,1.39923,
-2.79694,1.39618,
-2.80151,1.39923,
-2.80609,1.40381,
-2.80914,1.40076,
-2.8183,1.40228,
-2.82135,1.39771,
-2.83508,1.39618,
-2.84119,1.40228,
-2.84882,1.40076,
-2.86102,1.40533,
-2.8717,1.39313,
-2.87933,1.39618,
-2.88696,1.40076,
-2.89612,1.40381,
-2.90527,1.40228,
-2.9129,1.39771,
-2.91748,1.39313,
-2.92664,1.40228,
-2.93121,1.40228,
-2.93884,1.39923,
-2.94342,1.39618,
-2.94952,1.39771,
-2.9541,1.40533,
-2.96173,1.40533,
-2.96783,1.39923,
-2.97394,1.39618,
-2.97699,1.39771,
-2.99072,1.40381,
-3.0014,1.40076,
-3.00751,1.40076,
-3.02124,1.39313,
-3.03192,1.38855,
-3.0426,1.40228,
-3.04871,1.40228,
-3.06244,1.40076,
-3.07007,1.39771,
-3.07922,1.39618,
-3.08533,1.39923,
-3.09296,1.40686,
-3.10211,1.39313,
-3.10822,1.39771,
-3.11279,1.39771,
-3.11737,1.39771,
-3.1189,1.40228,
-3.12042,1.39618,
-3.12347,1.40076,
-3.12195,1.39771,
-3.12042,1.39923,
-3.1189,1.40381,
-3.1189,1.39771,
-3.12042,1.39618,
-3.125,1.39923,
-3.12653,1.40076,
-3.1311,1.40076,
-3.13416,1.39923,
-3.13263,1.3916,
-3.13568,1.39618,
-3.1311,1.40076,
-3.13416,1.40228,
-3.13263,1.39923,
-3.13263,1.39618,
-3.13416,1.39771,
-3.13416,1.39923,
-3.13416,1.39923,
-3.13263,1.39618,
-3.13263,1.39618,
-3.12805,1.40228,
-3.13263,1.40076,
-3.13263,1.39771,
-3.1311,1.40228,
-3.1311,1.39771,
-3.13263,1.40533,
-3.12805,1.39923,
-3.13416,1.39923,
-3.12805,1.40228,
-3.125,1.39923,
-3.1311,1.39618,
-3.13416,1.39923,
-3.13416,1.40381,
-3.13416,1.39923,
-3.13568,1.39771,
-3.13568,1.39313,
-3.13873,1.39771,
-3.14026,1.39923,
-3.14331,1.39923,
-3.14789,1.39771,
-3.14636,1.39618,
-3.15094,1.39923,
-3.15399,1.39771,
-3.15552,1.39771,
-3.16162,1.39771,
-3.16925,1.39771,
-3.1723,1.40228,
-3.17993,1.39771,
-3.18146,1.39618,
-3.18756,1.3916,
-3.19061,1.39618,
-3.19519,1.39923,
-3.19519,1.39923,
-3.20282,1.39618,
-3.2074,1.39771,
-3.20892,1.39618,
-3.2135,1.39618,
-3.21808,1.39923,
-3.22723,1.39618,
-3.23029,1.39923,
-3.23334,1.39618,
-3.23792,1.39923,
-3.24402,1.40076,
-3.24707,1.39923,
-3.25317,1.39618,
-3.2608,1.39771,
-3.25775,1.39923,
-3.26538,1.40228,
-3.26996,1.40076,
-3.27454,1.39313,
-3.28522,1.39771,
-3.28674,1.39923,
-3.29285,1.40076,
-3.29437,1.39923,
-3.29895,1.3916,
-3.30505,1.39618,
-3.30658,1.39923,
-3.30963,1.39771,
-3.30963,1.39771,
-3.31116,1.39313,
-3.31116,1.39771,
-3.31726,1.39618,
-3.31879,1.39923,
-3.31726,1.39923,
-3.31726,1.39618,
-3.31573,1.39618,
-3.31879,1.39923,
-3.31879,1.40076,
-3.31726,1.40076,
-3.31421,1.3916,
-3.31116,1.39923,
-3.30811,1.39771,
-3.30353,1.39771,
-3.2959,1.39771,
-3.28064,1.39771,
-3.26996,1.39313,
-3.24707,1.39618,
-3.22723,1.39923,
-3.2074,1.40228,
-3.18451,1.39771,
-3.15704,1.3916,
-3.125,1.39923,
-3.09296,1.40228,
-3.05939,1.38855,
-3.02277,1.39618,
-2.99377,1.39313,
-2.96173,1.39923,
-2.92816,1.40381,
-2.89764,1.39771,
-2.87018,1.39313,
-2.84576,1.39618,
-2.82135,1.40076,
-2.79999,1.40076,
-2.78168,1.39771,
-2.76794,1.39771,
-2.75574,1.39923,
-2.74048,1.39618,
-2.73132,1.39771,
-2.72217,1.39618,
-2.71454,1.39618,
-2.70844,1.3916,
-2.70844,1.39771,
-2.70081,1.39923,
-2.70233,1.39618,
-2.70081,1.39618,
-2.70081,1.39771,
-2.70386,1.39771,
-2.70386,1.39923,
-2.71149,1.39618,
-2.71759,1.39618,
-2.71912,1.39313,
-2.72217,1.3916,
-2.72827,1.39771,
-2.73895,1.39618,
-2.73743,1.39313,
-2.74963,1.3916,
-2.76031,1.39313,
-2.76794,1.39923,
-2.7771,1.39771,
-2.78931,1.38855,
-2.80151,1.39008,
-2.80762,1.39618,
-2.81677,1.39771,
-2.83051,1.39923,
-2.84119,1.39008,
-2.85492,1.39313,
-2.8656,1.39313,
-2.87933,1.39923,
-2.89459,1.39313,
-2.9068,1.3916,
-2.91748,1.39618,
-2.93121,1.39313,
-2.94189,1.39313,
-2.95258,1.39771,
-2.97089,1.39008,
-2.98004,1.39771,
-2.99072,1.39618,
-3.0014,1.39313,
-3.01056,1.39771,
-3.01514,1.39008,
-3.02124,1.3916,
-3.02429,1.39771,
-3.02429,1.39313,
-3.02124,1.39771,
-3.02124,1.3916,
-3.01971,1.3916,
-3.01361,1.39618,
-3.00903,1.39618,
-3.00903,1.39923,
-3.00293,1.39313,
-2.99835,1.39008,
-2.9953,1.39618,
-2.98615,1.39618,
-2.98004,1.39313,
-2.98004,1.39008,
-2.97394,1.39313,
-2.97089,1.39923,
-2.96478,1.39618,
-2.96478,1.39313,
-2.96936,1.3916,
-2.96478,1.39313,
-2.96783,1.39771,
-2.96783,1.39618,
-2.97089,1.39008,
-2.97089,1.3855,
-2.97394,1.39008,
-2.97546,1.39313,
-2.97699,1.39618,
-2.97852,1.39618,
-2.98309,1.3916,
-2.98157,1.3916,
-2.98462,1.3916,
-2.98615,1.39618,
-2.9892,1.3916,
-2.99072,1.39618,
-2.99072,1.39313,
-2.99072,1.3916,
-2.9953,1.39923,
-2.99835,1.39008,
-2.99988,1.39008,
-3.00751,1.3916,
-3.01208,1.39008,
-3.01514,1.39923,
-3.01666,1.3916,
-3.02277,1.39008,
-3.02887,1.3916,
-3.0304,1.39618,
-3.0365,1.39618,
-3.04108,1.39618,
-3.05023,1.38702,
-3.05634,1.39008,
-3.06549,1.39313,
-3.07617,1.39313,
-3.08685,1.39923,
-3.09296,1.3916,
-3.10059,1.39618,
-3.10516,1.3916,
-3.11279,1.39313,
-3.12042,1.39313,
-3.12347,1.38855,
-3.12805,1.39313,
-3.13416,1.39313,
-3.14178,1.39008,
-3.14331,1.3916,
-3.14484,1.39008,
-3.15552,1.38702,
-3.16162,1.39008,
-3.16772,1.39313,
-3.17688,1.39313,
-3.17688,1.38702,
-3.18298,1.38702,
-3.18909,1.39008,
-3.19672,1.39313,
-3.2074,1.39771,
-3.21198,1.38855,
-3.21503,1.38855,
-3.22113,1.39313,
-3.22113,1.38855,
-3.22418,1.3916,
-3.23029,1.39008,
-3.23334,1.39008,
-3.23792,1.3916,
-3.24097,1.39771,
-3.24707,1.38855,
-3.25012,1.38702,
-3.2547,1.38702,
-3.26233,1.3916,
-3.27301,1.39618,
-3.27606,1.39008,
-3.28217,1.38855,
-3.28674,1.39008,
-3.28979,1.39313,
-3.2959,1.39313,
-3.30353,1.3916,
-3.30658,1.3916,
-3.30505,1.38702,
-3.30811,1.39008,
-3.30963,1.3916,
-3.30811,1.3916,
-3.30505,1.3916,
-3.29285,1.38702,
-3.28217,1.38855,
-3.2608,1.3916,
-3.24249,1.39313,
-3.21045,1.38855,
-3.17688,1.38702,
-3.14178,1.38702,
-3.10211,1.3916,
-3.06244,1.38702,
-3.01971,1.38397,
-2.97089,1.39008,
-2.93274,1.39008,
-2.88391,1.39618,
-2.83966,1.38702,
-2.79083,1.38855,
-2.74658,1.39008,
-2.70538,1.39008,
-2.67029,1.39008,
-2.63672,1.39008,
-2.59857,1.38702,
-2.57416,1.39008,
-2.55127,1.38702,
-2.52838,1.38855,
-2.50702,1.39008,
-2.49329,1.38397,
-2.47498,1.38397,
-2.46429,1.39008,
-2.45361,1.39008,
-2.44293,1.39313,
-2.4353,1.38397,
-2.42767,1.38702,
-2.4231,1.39618,
-2.42004,1.39923,
-2.41547,1.38855,
-2.41699,1.3855,
-2.41241,1.3855,
-2.41241,1.38855,
-2.41547,1.39008,
-2.42157,1.3916,
-2.42615,1.38702,
-2.43225,1.3855,
-2.43683,1.38855,
-2.44293,1.38855,
-2.45361,1.38855,
-2.45361,1.38702,
-2.46429,1.38245,
-2.46735,1.38855,
-2.46887,1.38702,
-2.47192,1.38702,
-2.48108,1.38397,
-2.48871,1.38702,
-2.49329,1.38855,
-2.49481,1.39008,
-2.50397,1.38702,
-2.50854,1.38702,
-2.51617,1.3855,
-2.52228,1.38855,
-2.52686,1.38855,
-2.53601,1.3855,
-2.53448,1.38702,
-2.54669,1.38702,
-2.54974,1.38855,
-2.55127,1.38702,
-2.55737,1.38855,
-2.56653,1.3855,
-2.57416,1.38245,
-2.58026,1.38702,
-2.58789,1.38855,
-2.59399,1.3855,
-2.59857,1.38397,
-2.60162,1.3855,
-2.61078,1.38397,
-2.61688,1.39008,
-2.62299,1.38855,
-2.62451,1.38092,
-2.62756,1.38245,
-2.63062,1.38855,
-2.62756,1.38702,
-2.63062,1.38397,
-2.62604,1.38245,
-2.62299,1.38702,
-2.62299,1.39008,
-2.61993,1.3916,
-2.62146,1.38397,
-2.61993,1.38245,
-2.61841,1.38855,
-2.61688,1.3855,
-2.61688,1.38397,
-2.61536,1.38702,
-2.6123,1.38397,
-2.60773,1.38245,
-2.60468,1.3855,
-2.60468,1.38702,
-2.59857,1.3855,
-2.59399,1.38092,
-2.59247,1.3855,
-2.59247,1.3855,
-2.58942,1.3855,
-2.58942,1.38702,
-2.59094,1.38245,
-2.59094,1.37939,
-2.58789,1.3855,
-2.58636,1.3855,
-2.58331,1.3855,
-2.58484,1.38092,
-2.58942,1.38092,
-2.59247,1.38855,
-2.59399,1.37787,
-2.59552,1.3855,
-2.60162,1.38245,
-2.6062,1.38092,
-2.61688,1.3855,
-2.61993,1.38245,
-2.62451,1.38092,
-2.63062,1.37787,
-2.63824,1.38397,
-2.63977,1.38397,
-2.64893,1.38397,
-2.65503,1.38397,
-2.66113,1.3855,
-2.66876,1.37939,
-2.67181,1.38245,
-2.67944,1.3855,
-2.68097,1.38702,
-2.68707,1.3855,
-2.6947,1.37939,
-2.70233,1.37939,
-2.70691,1.3855,
-2.71301,1.38397,
-2.71912,1.38092,
-2.72369,1.37787,
-2.7298,1.38092,
-2.73132,1.38397,
-2.73438,1.38397,
-2.7359,1.37939,
-2.74353,1.37634,
-2.75269,1.3855,
-2.75879,1.38397,
-2.75879,1.3855,
-2.76489,1.37634,
-2.77252,1.38092,
-2.7832,1.38245,
-2.79083,1.3855,
-2.80151,1.38245,
-2.80914,1.37787,
-2.81677,1.38245,
-2.82898,1.38397,
-2.83813,1.38245,
-2.85645,1.37939,
-2.86865,1.37939,
-2.88086,1.38245,
-2.89612,1.37939,
-2.9068,1.38092,
-2.92053,1.38092,
-2.94037,1.37939,
-2.94952,1.38245,
-2.96021,1.38245,
-2.97089,1.38092,
-2.97852,1.3855,
-2.9892,1.37939,
-2.99835,1.38245,
-3.00293,1.38245,
-3.00903,1.38245,
-3.01819,1.3855,
-3.02429,1.37787,
-3.03192,1.37634,
-3.03497,1.38397,
-3.03802,1.38245,
-3.0365,1.39771,
-3.03345,1.38092,
-3.02277,1.37939,
-3.00446,1.37939,
-2.98767,1.38092,
-2.96783,1.37939,
-2.93884,1.37939,
-2.90985,1.38245,
-2.87933,1.38245,
-2.84271,1.38245,
-2.80304,1.37939,
-2.76337,1.37787,
-2.72522,1.37939,
-2.68707,1.38397,
-2.6413,1.38092,
-2.6001,1.37939,
-2.55432,1.37939,
-2.51312,1.37634,
-2.46582,1.37939,
-2.42004,1.38397,
-2.3819,1.38092,
-2.34528,1.37787,
-2.31323,1.37939,
-2.28729,1.37939,
-2.25525,1.38092,
-2.23389,1.37939,
-2.22015,1.37634,
-2.20337,1.37939,
-2.19574,1.37939,
-2.18201,1.38092,
-2.17438,1.38092,
-2.1698,1.37634,
-2.16217,1.37939,
-2.16217,1.37634,
-2.16064,1.38397,
-2.16217,1.37939,
-2.16217,1.37177,
-2.16827,1.37787,
-2.17133,1.38092,
-2.17743,1.37787,
-2.18353,1.37787,
-2.18811,1.37329,
-2.19116,1.37482,
-2.19421,1.37634,
-2.20184,1.3855,
-2.2049,1.37939,
-2.20642,1.37482,
-2.211,1.37787,
-2.21405,1.37939,
-2.21558,1.37787,
-2.2171,1.37634,
-2.2171,1.37634,
-2.22015,1.38092,
-2.21863,1.37634,
-2.22473,1.37634,
-2.22626,1.37787,
-2.23694,1.37329,
-2.24304,1.37634,
-2.25067,1.37939,
-2.25372,1.38092,
-2.26135,1.38092,
-2.27356,1.37482,
-2.28424,1.37329,
-2.29797,1.37787,
-2.31171,1.38092,
-2.32849,1.37939,
-2.3407,1.38245,
-2.35443,1.37634,
-2.36511,1.37939,
-2.3819,1.37634,
-2.39258,1.37787,
-2.40326,1.37482,
-2.41394,1.37482,
-2.42157,1.37787,
-2.43225,1.37177,
-2.43835,1.37634,
-2.44598,1.37329,
-2.44904,1.37482,
-2.45209,1.37939,
-2.45667,1.37939,
-2.45972,1.37482,
-2.46582,1.37634,
-2.46735,1.37329,
-2.46735,1.37482,
-2.4704,1.37787,
-2.4704,1.37482,
-2.47345,1.37482,
-2.47803,1.37482,
-2.47498,1.37329,
-2.47955,1.37177,
-2.47955,1.37482,
-2.47955,1.37787,
-2.48108,1.37482,
-2.48718,1.37024,
-2.48871,1.37634,
-2.49329,1.37634,
-2.49481,1.37329,
-2.49786,1.36871,
-2.50092,1.37634,
-2.50549,1.37787,
-2.50092,1.37329,
-2.50549,1.37024,
-2.50244,1.37482,
-2.50702,1.37482,
-2.5177,1.37634,
-2.5177,1.37482,
-2.52686,1.37329,
-2.53601,1.37024,
-2.53906,1.37482,
-2.54211,1.37482,
-2.55127,1.37787,
-2.55737,1.37329,
-2.56195,1.37329,
-2.56958,1.37634,
-2.57416,1.37634,
-2.58484,1.38397,
-2.59552,1.37482,
-2.60468,1.37177,
-2.61078,1.37482,
-2.61688,1.37787,
-2.62299,1.37634,
-2.63367,1.37329,
-2.63824,1.37177,
-2.64435,1.37329,
-2.65045,1.37482,
-2.65656,1.37939,
-2.66571,1.37329,
-2.67029,1.37024,
-2.67487,1.37787,
-2.68097,1.37787,
-2.68555,1.37482,
-2.6886,1.37024,
-2.69165,1.37024,
-2.69623,1.37634,
-2.70691,1.37329,
-2.70844,1.37329,
-2.71301,1.37024,
-2.72064,1.37177,
-2.72369,1.37634,
-2.7298,1.37329,
-2.73132,1.37329,
-2.73438,1.37177,
-2.7359,1.36871,
-2.742,1.37482,
-2.74963,1.37329,
-2.75726,1.37329,
-2.76184,1.37024,
-2.76031,1.37024,
-2.76947,1.37329,
-2.77405,1.37177,
-2.77557,1.37024,
-2.78625,1.37329,
-2.78931,1.36871,
-2.79846,1.37329,
-2.80304,1.37329,
-2.80762,1.37329,
-2.81372,1.37482,
-2.8183,1.36719,
-2.82288,1.37177,
-2.82135,1.37177,
-2.82135,1.37024,
-2.82135,1.36871,
-2.82135,1.37177,
-2.81372,1.37329,
-2.80914,1.37329,
-2.79999,1.37024,
-2.78931,1.36719,
-2.77405,1.37024,
-2.75574,1.37177,
-2.7359,1.37177,
-2.70844,1.36871,
-2.67944,1.36414,
-2.64893,1.37177,
-2.61078,1.37329,
-2.57111,1.37329,
-2.53143,1.37177,
-2.49176,1.36566,
-2.45056,1.37177,
-2.40479,1.37177,
-2.36359,1.37329,
-2.32239,1.36871,
-2.28882,1.36719,
-2.24915,1.37177,
-2.21863,1.37329,
-2.18353,1.37329,
-2.14996,1.37329,
-2.12097,1.37024,
-2.09198,1.37024,
-2.07062,1.37024,
-2.04468,1.37482,
-2.02484,1.37177,
-2.01416,1.36871,
-1.99738,1.36566,
-1.98669,1.37177,
-1.97754,1.37024,
-1.96991,1.37177,
-1.96838,1.36719,
-1.96381,1.36414,
-1.95923,1.37177,
-1.96533,1.37329,
-1.96228,1.36871,
-1.96533,1.36719,
-1.96381,1.36871,
-1.97144,1.37482,
-1.97449,1.37177,
-1.97601,1.36871,
-1.98059,1.36719,
-1.98212,1.36719,
-1.98364,1.37177,
-1.98212,1.37024,
-1.98517,1.36871,
-1.98517,1.36566,
-1.98364,1.36719,
-1.97906,1.37329,
-1.98517,1.36871,
-1.98517,1.36719,
-1.98822,1.36719,
-1.98822,1.36566,
-1.98669,1.36871,
-1.98822,1.37177,
-1.99127,1.36871,
-1.9989,1.36719,
-2.00195,1.36566,
-2.00958,1.37024,
-2.00806,1.37177,
-2.00806,1.36719,
-2.01569,1.36719,
-2.01721,1.36719,
-2.02026,1.36871,
-2.02332,1.37482,
-2.02332,1.36719,
-2.02637,1.36719,
-2.02789,1.36719,
-2.02789,1.36871,
-2.03094,1.37177,
-2.03247,1.36566,
-2.03094,1.36261,
-2.02637,1.36566,
-2.02026,1.36871,
-2.01416,1.37024,
-2.00958,1.37177,
-2.00043,1.36719,
-1.99585,1.36719,
-1.98517,1.36871,
-1.97601,1.37024,
-1.96838,1.36871,
-1.96228,1.36414,
-1.95465,1.36871,
-1.95007,1.37024,
-1.94092,1.36871,
-1.93939,1.36871,
-1.93481,1.36719,
-1.92719,1.36719,
-1.92261,1.36719,
-1.91498,1.36414,
-1.9104,1.36871,
-1.90277,1.36871,
-1.90125,1.36719,
-1.89667,1.36871,
-1.89056,1.37024,
-1.88293,1.36871,
-1.88293,1.36414,
-1.88141,1.36414,
-1.88141,1.36719,
-1.87988,1.37024,
-1.88141,1.36719,
-1.88141,1.36566,
-1.88141,1.35956,
-1.88141,1.36566,
-1.88446,1.37024,
-1.88751,1.36414,
-1.89056,1.36261,
-1.89667,1.36566,
-1.9043,1.36719,
-1.9043,1.36871,
-1.91193,1.36719,
-1.9104,1.36414,
-1.91193,1.36414,
-1.91803,1.36566,
-1.92108,1.36871,
-1.92719,1.36566,
-1.93634,1.36566,
-1.94244,1.36414,
-1.9455,1.36566,
-1.95313,1.37024,
-1.95313,1.36566,
-1.96228,1.36719,
-1.96381,1.35956,
-1.96838,1.36261,
-1.97144,1.37177,
-1.97754,1.36871,
-1.97296,1.36414,
-1.97754,1.36261,
-1.97906,1.35956,
-1.97906,1.37024,
-1.98517,1.36719,
-1.98669,1.35956,
-1.99127,1.36261,
-1.99738,1.36414,
-2.00653,1.37024,
-2.01111,1.36566,
-2.02026,1.35956,
-2.02332,1.35803,
-2.02789,1.36414,
-2.03705,1.37177,
-2.03857,1.36414,
-2.04163,1.35956,
-2.04773,1.36261,
-2.04926,1.36414,
-2.05231,1.36871,
-2.06146,1.36566,
-2.06146,1.35956,
-2.06604,1.35956,
-2.0752,1.36566,
-2.0752,1.36719,
-2.08435,1.36719,
-2.09503,1.36261,
-2.10114,1.36414,
-2.10571,1.36261,
-2.10876,1.36414,
-2.11182,1.37024,
-2.11487,1.36414,
-2.11945,1.36261,
-2.12555,1.36414,
-2.12708,1.37177,
-2.1347,1.35651,
-2.13928,1.36261,
-2.14539,1.36414,
-2.14539,1.36566,
-2.14691,1.36719,
-2.14691,1.36414,
-2.14844,1.35803,
-2.14081,1.35956,
-2.13623,1.36261,
-2.12402,1.36566,
-2.10571,1.36261,
-2.08893,1.35956,
-2.06909,1.36261,
-2.0401,1.36566,
-2.01111,1.36261,
-1.97296,1.35956,
-1.93481,1.36261,
-1.89667,1.35956,
-1.85547,1.36261,
-1.81122,1.36719,
-1.76849,1.35956,
-1.72882,1.35956,
-1.6861,1.35803,
-1.64337,1.35956,
-1.60065,1.36414,
-1.56403,1.36261,
-1.53198,1.36261,
-1.49841,1.36261,
-1.47247,1.36414,
-1.44043,1.36414,
-1.41907,1.36261,
-1.39465,1.36261,
-1.37482,1.35651,
-1.35193,1.35803,
-1.33514,1.36566,
-1.32751,1.35803,
-1.31378,1.35956,
-1.3092,1.35803,
-1.29852,1.35956,
-1.28937,1.36719,
-1.28326,1.36261,
-1.27563,1.35956,
-1.26801,1.35956,
-1.26801,1.35956,
-1.26648,1.36566,
-1.26801,1.35956,
-1.26648,1.35345,
-1.26953,1.35651,
-1.26801,1.35956,
-1.27106,1.36566,
-1.27411,1.35803,
-1.27411,1.35651,
-1.27563,1.35803,
-1.28021,1.35803,
-1.28021,1.36719,
-1.28479,1.35803,
-1.28784,1.35803,
-1.29242,1.36261,
-1.29395,1.36261,
-1.29547,1.36414,
-1.29852,1.36261,
-1.297,1.35803,
-1.29547,1.36261,
-1.297,1.36414,
-1.297,1.36261,
-1.30005,1.35956,
-1.3031,1.35345,
-1.3031,1.35651,
-1.31226,1.36414,
-1.31226,1.36414,
-1.31378,1.36261,
-1.31378,1.36261,
-1.31989,1.35651,
-1.31531,1.36261,
-1.31531,1.36414,
-1.31989,1.35651,
-1.31989,1.35193,
-1.32294,1.35651,
-1.32294,1.35956,
-1.32141,1.36261,
-1.32294,1.35803,
-1.32141,1.35193,
-1.31989,1.36414,
-1.32294,1.35956,
-1.32446,1.35956,
-1.32599,1.35803,
-1.32446,1.35651,
-1.31989,1.35651,
-1.31836,1.36261,
-1.31378,1.35803,
-1.3092,1.35498,
-1.3031,1.35651,
-1.29852,1.35498,
-1.297,1.36566,
-1.29242,1.36414,
-1.29242,1.35651,
-1.28784,1.35498,
-1.28784,1.35498,
-1.28174,1.35956,
-1.28021,1.36414,
-1.27869,1.35956,
-1.27869,1.35803,
-1.27411,1.35651,
-1.27411,1.35651,
-1.27106,1.36414,
-1.27869,1.35956,
-1.27869,1.35498,
-1.28326,1.35498,
-1.28784,1.35498,
-1.29242,1.36261,
-1.29547,1.35956,
-1.29852,1.35956,
-1.3031,1.35651,
-1.3092,1.35651,
-1.31073,1.36261,
-1.31683,1.35803,
-1.32599,1.35803,
-1.33209,1.35651,
-1.34277,1.35803,
-1.34583,1.36566,
-1.35803,1.35651,
-1.36414,1.35651,
-1.37024,1.35345,
-1.3855,1.35803,
-1.3916,1.35956,
-1.40381,1.35651,
-1.41602,1.36566,
-1.42517,1.35498,
-1.43433,1.35498,
-1.45111,1.36261,
-1.46027,1.35651,
-1.47095,1.35193,
-1.48621,1.35345,
-1.49994,1.35803,
-1.50909,1.35651,
-1.5213,1.3504,
-1.53351,1.35651,
-1.54114,1.35651,
-1.55792,1.35498,
-1.56555,1.35498,
-1.57776,1.35651,
-1.58691,1.35498,
-1.59912,1.35345,
-1.60675,1.35498,
-1.61896,1.35651,
-1.62659,1.35803,
-1.63116,1.35345,
-1.64185,1.35345,
-1.64795,1.35803,
-1.64948,1.35498,
-1.65405,1.35803,
-1.66321,1.35498,
-1.66626,1.35345,
-1.66931,1.35651,
-1.67389,1.35803,
-1.68304,1.35956,
-1.68762,1.35651,
-1.69525,1.35345,
-1.70441,1.35651,
-1.70898,1.35651,
-1.71509,1.35345,
-1.72272,1.35651,
-1.73187,1.35345,
-1.73645,1.36871,
-1.74255,1.35956,
-1.74713,1.35498,
-1.75629,1.35345,
-1.76392,1.35498,
-1.77612,1.35803,
-1.77917,1.35803,
-1.78986,1.3504,
-1.79291,1.35193,
-1.80206,1.35345,
-1.80817,1.35651,
-1.81885,1.35956,
-1.81885,1.35803,
-1.82037,1.35498,
-1.83105,1.35193,
-1.83411,1.35803,
-1.84174,1.35803,
-1.84021,1.35651,
-1.84174,1.35651,
-1.84784,1.35498,
-1.84631,1.35498,
-1.85089,1.35956,
-1.86005,1.35498,
-1.86157,1.35651,
-1.86615,1.35345,
-1.86462,1.35498,
-1.86157,1.35956,
-1.85394,1.35498,
-1.84326,1.3504,
-1.83411,1.35345,
-1.81427,1.35498,
-1.79138,1.36414,
-1.76086,1.35345,
-1.72577,1.35193,
-1.6922,1.3504,
-1.64795,1.35345,
-1.60828,1.35956,
-1.5625,1.35498,
-1.51672,1.35193,
-1.47095,1.35498,
-1.42975,1.35345,
-1.38702,1.35651,
-1.34888,1.35345,
-1.31073,1.35345,
-1.27716,1.35193,
-1.24359,1.35651,
-1.21613,1.35345,
-1.18561,1.35345,
-1.15967,1.3504,
-1.13678,1.35498,
-1.12,1.35345,
-1.10168,1.35803,
-1.091,1.35498,
-1.0788,1.35193,
-1.07574,1.35498,
-1.06964,1.35498,
-1.06506,1.35803,
-1.06201,1.35803,
-1.06201,1.35193,
-1.06506,1.3504,
-1.06506,1.35498,
-1.06812,1.35956,
-1.07269,1.35498,
-1.06964,1.3504,
-1.07574,1.35193,
-1.0788,1.35193,
-1.08185,1.35498,
-1.08185,1.35193,
-1.07727,1.35193,
-1.08185,1.35498,
-1.08032,1.35345,
-1.0788,1.35651,
-1.07727,1.35193,
-1.06964,1.34888,
-1.06964,1.35498,
-1.06354,1.35956,
-1.06354,1.35498,
-1.06049,1.34735,
-1.05896,1.34888,
-1.05591,1.34888,
-1.05743,1.35498,
-1.05591,1.35803,
-1.05591,1.35193,
-1.06201,1.3504,
-1.06201,1.35498,
-1.06354,1.35498,
-1.06964,1.35345,
-1.07269,1.3504,
-1.07727,1.35193,
-1.08185,1.3504,
-1.08643,1.35498,
-1.09253,1.35651,
-1.10168,1.35193,
-1.10779,1.35193,
-1.11694,1.3504,
-1.11542,1.35193,
-1.12762,1.35803,
-1.12915,1.35498,
-1.13373,1.34888,
-1.13678,1.3504,
-1.13831,1.35345,
-1.14288,1.35498,
-1.14288,1.35345,
-1.14594,1.3504,
-1.14441,1.3504,
-1.14441,1.35193,
-1.15051,1.35651,
-1.15509,1.35345,
-1.15356,1.34735,
-1.15662,1.3504,
-1.15662,1.35193,
-1.15814,1.35498,
-1.15814,1.3504,
-1.16119,1.34888,
-1.16425,1.35193,
-1.1673,1.3504,
-1.17188,1.35498,
-1.17188,1.34888,
-1.17493,1.3504,
-1.17493,1.35193,
-1.1795,1.35193,
-1.18103,1.35498,
-1.18408,1.35803,
-1.18408,1.34888,
-1.18866,1.3504,
-1.18713,1.35345,
-1.19171,1.35651,
-1.19476,1.3504,
-1.20087,1.3504,
-1.20544,1.34735,
-1.2085,1.35193,
-1.21307,1.35498,
-1.21765,1.35193,
-1.21918,1.35193,
-1.22223,1.34888,
-1.22528,1.35345,
-1.22986,1.35498,
-1.23291,1.35193,
-1.24054,1.34735,
-1.24359,1.34735,
-1.24969,1.35498,
-1.25275,1.35345,
-1.26495,1.34735,
-1.27106,1.34888,
-1.27869,1.34888,
-1.28784,1.35651,
-1.297,1.35651,
-1.3031,1.3504,
-1.31073,1.34888,
-1.31683,1.34888,
-1.32294,1.35345,
-1.32599,1.35651,
-1.33514,1.34888,
-1.3443,1.34735,
-1.35498,1.34888,
-1.36414,1.35345,
-1.37787,1.35345,
-1.38245,1.34888,
-1.39313,1.3504,
-1.40839,1.34888,
-1.42059,1.34888,
-1.42975,1.35193,
-1.44043,1.3504,
-1.44806,1.3504,
-1.45721,1.3504,
-1.46637,1.34583,
-1.4801,1.35193,
-1.49384,1.3504,
-1.50146,1.34583,
-1.51672,1.34888,
-1.53351,1.35345,
-1.54877,1.35498,
-1.56097,1.3504,
-1.57928,1.34735,
-1.59607,1.34888,
-1.61438,1.34888,
-1.62811,1.35345,
-1.64032,1.34735,
-1.64795,1.3443,
-1.66321,1.34888,
-1.67542,1.34888,
-1.68762,1.35193,
-1.69983,1.34888,
-1.70898,1.34735,
-1.71814,1.35193,
-1.72882,1.3504,
-1.73798,1.3504,
-1.74866,1.34735,
-1.75171,1.34735,
-1.76392,1.35193,
-1.77155,1.34888,
-1.77917,1.3504,
-1.78986,1.34735,
-1.79749,1.34735,
-1.80054,1.34735,
-1.80664,1.35193,
-1.81122,1.35193,
-1.81427,1.35193,
-1.82037,1.34888,
-1.828,1.34277,
-1.83258,1.3504,
-1.84326,1.35498,
-1.84326,1.3504,
-1.85242,1.34277,
-1.85547,1.34277,
-1.86462,1.34735,
-1.86615,1.3504,
-1.87073,1.35193,
-1.87531,1.34583,
-1.87988,1.34735,
-1.87836,1.3504,
-1.87683,1.35193,
-1.87073,1.34735,
-1.85394,1.3443,
-1.83716,1.34583,
-1.81427,1.36261,
-1.78223,1.3504,
-1.74713,1.34735,
-1.71204,1.3443,
-1.67236,1.34583,
-1.62964,1.34735,
-1.57928,1.3504,
-1.53198,1.34583,
-1.48163,1.34888,
-1.43433,1.34583,
-1.3855,1.34888,
-1.33514,1.3504,
-1.28632,1.3504,
-1.24207,1.3504,
-1.19476,1.34888,
-1.15814,1.3443,
-1.11694,1.34888,
-1.08337,1.34888,
-1.05133,1.34888,
-1.01929,1.34583,
-0.991821,1.34888,
-0.968933,1.35498,
-0.944519,1.34888,
-0.926208,1.34277,
-0.912476,1.3443,
-0.895691,1.34583,
-0.880432,1.35345,
-0.872803,1.3443,
-0.866699,1.3443,
-0.854492,1.34735,
-0.848389,1.34735,
-0.846863,1.34888,
-0.843811,1.34735,
-0.840759,1.34125,
-0.83313,1.34888,
-0.831604,1.3443,
-0.828552,1.34888,
-0.828552,1.34735,
-0.828552,1.3382,
-0.827026,1.3504,
-0.830078,1.34735,
-0.831604,1.34735,
-0.83313,1.34583,
-0.83313,1.3443,
-0.83313,1.34583,
-0.836182,1.34888,
-0.837708,1.34583,
-0.839233,1.34735,
-0.845337,1.3443,
-0.849915,1.3443,
-0.854492,1.34888,
-0.856018,1.34888,
-0.865173,1.34735,
-0.868225,1.34583,
-0.875854,1.34125,
-0.881958,1.34583,
-0.891113,1.34888,
-0.898743,1.34735,
-0.907898,1.34277,
-0.91095,1.34888,
-0.921631,1.34735,
-0.930786,1.3504,
-0.938416,1.34125,
-0.944519,1.3443,
-0.953674,1.34277,
-0.961304,1.34735,
-0.970459,1.34583,
-0.973511,1.3443,
-0.982666,1.34277,
-0.98877,1.3443,
-0.990295,1.3504,
-0.994873,1.3504,
-1.00098,1.34125,
-0.996399,1.34735,
-1.0025,1.3443,
-1.00098,1.3443,
-0.999451,1.34888,
-1.00403,1.3443,
-1.00403,1.34583,
-1.00708,1.3443,
-1.00861,1.34583,
-1.00708,1.3504,
-1.00861,1.34277,
-1.01166,1.33667,
-1.01318,1.34583,
-1.01929,1.3443,
-1.01929,1.34735,
-1.02234,1.34735,
-1.02844,1.34277,
-1.0376,1.34277,
-1.04218,1.34583,
-1.04828,1.34583,
-1.05133,1.34277,
-1.05896,1.34125,
-1.06201,1.34125,
-1.07117,1.34735,
-1.07574,1.3504,
-1.08337,1.34277,
-1.08948,1.3382,
-1.09558,1.34583,
-1.10474,1.34888,
-1.11237,1.3504,
-1.11847,1.3443,
-1.12457,1.3443,
-1.12915,1.34583,
-1.14136,1.34277,
-1.15204,1.34735,
-1.15814,1.34277,
-1.16577,1.34277,
-1.18103,1.34583,
-1.19019,1.3504,
-1.19934,1.34277,
-1.21613,1.3443,
-1.22986,1.34277,
-1.24207,1.34125,
-1.2558,1.34277,
-1.26801,1.34735,
-1.28021,1.34583,
-1.29547,1.34125,
-1.30615,1.34277,
-1.32141,1.3443,
-1.33209,1.34735,
-1.3443,1.34277,
-1.35651,1.3504,
-1.36566,1.3443,
-1.37329,1.3443,
-1.38702,1.34583,
-1.39618,1.3443,
-1.40686,1.34277,
-1.42212,1.33972,
-1.43127,1.34583,
-1.44653,1.34583,
-1.45569,1.34125,
-1.4679,1.33972,
-1.48315,1.3443,
-1.49384,1.34888,
-1.50909,1.34735,
-1.52283,1.34125,
-1.53809,1.34277,
-1.55029,1.34277,
-1.56555,1.3443,
-1.57776,1.34735,
-1.59149,1.34125,
-1.60217,1.34277,
-1.61285,1.34277,
-1.62201,1.34277,
-1.63269,1.34735,
-1.63879,1.3382,
-1.64795,1.34888,
-1.6571,1.3382,
-1.66779,1.34277,
-1.67847,1.34735,
-1.69067,1.34125,
-1.69678,1.3382,
-1.70898,1.3443,
-1.71204,1.34277,
-1.71661,1.34888,
-1.72272,1.34125,
-1.73035,1.3382,
-1.73492,1.34277,
-1.74408,1.34125,
-1.75629,1.34735,
-1.76086,1.34277,
-1.76392,1.33514,
-1.77307,1.34125,
-1.7868,1.34583,
-1.79749,1.34735,
-1.81274,1.3443,
-1.82037,1.3382,
-1.83411,1.34277,
-1.84479,1.34277,
-1.85089,1.34888,
-1.86005,1.3382,
-1.86462,1.34125,
-1.8631,1.34583,
-1.86005,1.34277,
-1.85242,1.34277,
-1.84326,1.34125,
-1.83258,1.33972,
-1.80817,1.34583,
-1.78375,1.34277,
-1.75629,1.34583,
-1.72577,1.34277,
-1.6922,1.33972,
-1.64948,1.34125,
-1.60522,1.34277,
-1.5625,1.34735,
-1.5152,1.3443,
-1.46484,1.33972,
-1.41907,1.34125,
-1.36719,1.34583,
-1.31989,1.34583,
-1.26953,1.34125,
-1.2207,1.33667,
-1.18256,1.34277,
-1.13983,1.34277,
-1.10321,1.34735,
-1.06812,1.33514,
-1.03302,1.33514,
-1.00708,1.34125,
-0.978088,1.3443,
-0.9552,1.34125,
-0.935364,1.33362,
-0.915527,1.33972,
-0.897217,1.34125,
-0.880432,1.33972,
-0.874329,1.34735,
-0.866699,1.33972,
-0.863647,1.3382,
-0.865173,1.33972,
-0.869751,1.3382,
-0.87738,1.34277,
-0.87738,1.3382,
-0.883484,1.34277,
-0.88501,1.3443,
-0.891113,1.34277,
-0.90332,1.34583,
-0.907898,1.34125,
-0.915527,1.33972,
-0.924683,1.34277,
-0.924683,1.3382,
-0.933838,1.34583,
-0.939941,1.33667,
-0.950623,1.33667,
-0.958252,1.3443,
-0.965881,1.34125,
-0.98114,1.3504,
-0.993347,1.33972,
-1.01166,1.33667,
-1.02234,1.3382,
-1.03912,1.33972,
-1.05743,1.34583,
-1.07574,1.3382,
-1.09253,1.33667,
-1.11084,1.3443,
-1.13068,1.33667,
-1.14594,1.34277,
-1.15967,1.33972,
-1.17798,1.33514,
-1.19019,1.34277,
-1.19781,1.3382,
-1.21155,1.34125,
-1.21918,1.3382,
-1.22833,1.33667,
-1.23596,1.33972,
-1.24359,1.34125,
-1.25122,1.34125,
-1.25275,1.3382,
-1.25732,1.3382,
-1.2558,1.33972,
-1.2558,1.34277,
-1.25885,1.34277,
-1.2619,1.33972,
-1.25427,1.33667,
-1.25275,1.33514,
-1.25122,1.34277,
-1.24817,1.34583,
-1.24664,1.3443,
-1.24207,1.33362,
-1.24207,1.3382,
-1.23444,1.34277,
-1.24054,1.34277,
-1.24359,1.3382,
-1.24207,1.33209,
-1.24664,1.33667,
-1.24359,1.3443,
-1.24664,1.3443,
-1.24969,1.33667,
-1.2558,1.33667,
-1.2619,1.33972,
-1.26648,1.3443,
-1.27869,1.3443,
-1.28326,1.33514,
-1.29089,1.33667,
-1.30005,1.33972,
-1.30463,1.33972,
-1.3092,1.34125,
-1.31836,1.33667,
-1.32599,1.33667,
-1.33057,1.33972,
-1.34277,1.33667,
-1.3504,1.34277,
-1.35956,1.33972,
-1.37177,1.33972,
-1.38702,1.34125,
-1.40076,1.34125,
-1.41449,1.3443,
-1.4328,1.34125,
-1.44958,1.33972,
-1.46484,1.3382,
-1.47705,1.3382,
-1.49231,1.34888,
-1.50757,1.33667,
-1.52893,1.33362,
-1.54572,1.34125,
-1.55945,1.34125,
-1.57928,1.34583,
-1.59607,1.33972,
-1.61285,1.33209,
-1.63116,1.33667,
-1.64032,1.34277,
-1.65558,1.34583,
-1.66779,1.33972,
-1.68152,1.33667,
-1.69525,1.3382,
-1.70746,1.3382,
-1.71814,1.3443,
-1.73035,1.33972,
-1.73492,1.33514,
-1.74408,1.34125,
-1.75171,1.34125,
-1.76392,1.34125,
-1.76849,1.33667,
-1.77917,1.33514,
-1.78528,1.34277,
-1.79749,1.33972,
-1.79901,1.34277,
-1.80664,1.33667,
-1.81122,1.33362,
-1.81885,1.33972,
-1.828,1.33972,
-1.83105,1.33667,
-1.83563,1.3382,
-1.84021,1.33667,
-1.84937,1.33667,
-1.86005,1.3382,
-1.86768,1.34125,
-1.87836,1.3443,
-1.88751,1.33514,
-1.89819,1.33362,
-1.90735,1.33972,
-1.92413,1.34277,
-1.93634,1.33972,
-1.95007,1.33514,
-1.96381,1.33667,
-1.97601,1.34125,
-1.99127,1.34277,
-2.00806,1.33667,
-2.02179,1.33057,
-2.034,1.3382,
-2.0462,1.34125,
-2.05841,1.3443,
-2.07367,1.33362,
-2.08588,1.33362,
-2.09503,1.33514,
-2.11029,1.34125,
-2.12402,1.34277,
-2.13623,1.3443,
-2.14233,1.33667,
-2.15454,1.3382,
-2.1637,1.33514,
-2.17285,1.3443,
-2.18048,1.33667,
-2.18658,1.33667,
-2.18964,1.3382,
-2.19116,1.33514,
-2.18811,1.34277,
-2.17896,1.3382,
-2.16064,1.33667,
-2.13928,1.33972,
-2.11487,1.33514,
-2.08282,1.3443,
-2.0401,1.33667,
-1.9989,1.33209,
-1.95313,1.34125,
-1.90582,1.33972,
-1.84937,1.34735,
-1.79596,1.33057,
-1.73645,1.33362,
-1.67694,1.33972,
-1.61743,1.33972,
-1.5564,1.34888,
-1.49689,1.33667,
-1.43738,1.33362,
-1.38092,1.34125,
-1.32904,1.33972,
-1.28021,1.34277,
-1.23444,1.33514,
-1.19171,1.33514,
-1.15509,1.34125,
-1.11694,1.3382,
-1.08337,1.34125,
-1.05133,1.3382,
-1.02386,1.33362,
-0.996399,1.34277,
-0.975037,1.3382,
-0.950623,1.34277,
-0.938416,1.33972,
-0.924683,1.33362,
-0.91095,1.33972,
-0.900269,1.3382,
-0.888062,1.3443,
-0.883484,1.34125,
-0.881958,1.33514,
-0.875854,1.33514,
-0.87738,1.33972,
-0.874329,1.34125,
-0.871277,1.34125,
-0.872803,1.33667,
-0.875854,1.33514,
-0.87738,1.34277,
-0.87738,1.34277,
-0.878906,1.33667,
-0.883484,1.33362,
-0.886536,1.34125,
-0.891113,1.34277,
-0.891113,1.34125,
-0.892639,1.33362,
-0.900269,1.33362,
-0.906372,1.33514,
-0.906372,1.34125,
-0.909424,1.34277,
-0.912476,1.33514,
-0.920105,1.33514,
-0.921631,1.3382,
-0.926208,1.3382,
-0.933838,1.34125,
-0.93689,1.33667,
-0.944519,1.33514,
-0.947571,1.33972,
-0.947571,1.33667,
-0.949097,1.34277,
-0.952148,1.3382,
-0.956726,1.33362,
-0.964355,1.34125,
-0.965881,1.33972,
-0.971985,1.34125,
-0.976563,1.3382,
-0.978088,1.33362,
-0.982666,1.33972,
-0.979614,1.34125,
-0.982666,1.34583,
-0.979614,1.33972,
-0.976563,1.33057,
-0.973511,1.3382,
-0.961304,1.34277,
-0.952148,1.34735,
-0.944519,1.33667,
-0.938416,1.33362,
-0.923157,1.34125,
-0.915527,1.34277,
-0.90332,1.34277,
-0.891113,1.33514,
-0.88501,1.33972,
-0.878906,1.3443,
-0.874329,1.3443,
-0.865173,1.33972,
-0.862122,1.33972,
-0.857544,1.33362,
-0.852966,1.33972,
-0.854492,1.33972,
-0.854492,1.33362,
-0.85144,1.3382,
-0.854492,1.33667,
-0.856018,1.33972,
-0.866699,1.3382,
-0.872803,1.34277,
-0.88501,1.3443,
-0.898743,1.34277,
-0.91095,1.33209,
-0.926208,1.33972,
-0.944519,1.34277,
-0.964355,1.34125,
-0.979614,1.3382,
-0.996399,1.33362,
-1.01318,1.33972,
-1.03302,1.34277,
-1.04675,1.3382,
-1.06964,1.33209,
-1.08337,1.33514,
-1.10321,1.34277,
-1.11542,1.3382,
-1.13068,1.33667,
-1.14594,1.33057,
-1.15662,1.34277,
-1.1734,1.34277,
-1.18561,1.34583,
-1.19629,1.33514,
-1.20239,1.3382,
-1.2146,1.3382,
-1.22223,1.33972,
-1.23138,1.34125,
-1.24054,1.33667,
-1.24817,1.3382,
-1.25885,1.33972,
-1.27106,1.33972,
-1.28021,1.34277,
-1.29242,1.33667,
-1.30157,1.3382,
-1.31683,1.3382,
-1.33209,1.34125,
-1.34735,1.3443,
-1.36261,1.33972,
-1.37329,1.33514,
-1.39008,1.33667,
-1.40533,1.3382,
-1.42059,1.34583,
-1.43585,1.3382,
-1.45264,1.33362,
-1.4679,1.33972,
-1.48468,1.3382,
-1.49689,1.3443,
-1.51062,1.33972,
-1.5213,1.33362,
-1.53656,1.33972,
-1.55182,1.3382,
-1.56403,1.34125,
-1.57776,1.33667,
-1.59149,1.33209,
-1.60828,1.3382,
-1.62201,1.33667,
-1.63879,1.33972,
-1.64948,1.33667,
-1.66168,1.33362,
-1.67694,1.34277,
-1.68762,1.33972,
-1.6983,1.3382,
-1.70898,1.3382,
-1.72424,1.33972,
-1.73187,1.33972,
-1.7395,1.33972,
-1.74866,1.34125,
-1.75629,1.34125,
-1.76392,1.33362,
-1.7746,1.33667,
-1.78375,1.34277,
-1.79749,1.34125,
-1.80664,1.34277,
-1.81885,1.33362,
-1.82953,1.3382,
-1.84174,1.34277,
-1.85242,1.34125,
-1.86462,1.3382,
-1.87683,1.33209,
-1.88751,1.3382,
-1.89972,1.3443,
-1.90582,1.3443,
-1.91345,1.33362,
-1.9165,1.33362,
-1.91193,1.33972,
-1.90277,1.3443,
-1.88751,1.34583,
-1.87225,1.33362,
-1.84784,1.33514,
-1.8219,1.34125,
-1.78986,1.34277,
-1.74713,1.34125,
-1.70593,1.33514,
-1.6571,1.33514,
-1.60522,1.33972,
-1.54572,1.33667,
-1.48773,1.34277,
-1.42975,1.33057,
-1.37177,1.33514,
-1.31073,1.33667,
-1.24817,1.33972,
-1.19171,1.34125,
-1.13373,1.3382,
-1.0788,1.33209,
-1.02539,1.34888,
-0.973511,1.33972,
-0.926208,1.34277,
-0.883484,1.33514,
-0.839233,1.3382,
-0.798035,1.3382,
-0.762939,1.33972,
-0.72937,1.3443,
-0.694275,1.3382,
-0.662231,1.33514,
-0.63324,1.3382,
-0.605774,1.33667,
-0.58136,1.34277,
-0.563049,1.33514,
-0.543213,1.33209,
-0.532532,1.34125,
-0.523376,1.34125,
-0.508118,1.34125,
-0.497437,1.3382,
-0.495911,1.33514,
-0.494385,1.3382,
-0.494385,1.33972,
-0.492859,1.3382,
-0.489807,1.33667,
-0.486755,1.3382,
-0.480652,1.34125,
-0.485229,1.3382,
-0.483704,1.3382,
-0.485229,1.33667,
-0.480652,1.33362,
-0.486755,1.33972,
-0.489807,1.33972,
-0.494385,1.34277,
-0.498962,1.34125,
-0.500488,1.33362,
-0.502014,1.3382,
-0.511169,1.33972,
-0.518799,1.34125,
-0.524902,1.34125,
-0.532532,1.33362,
-0.538635,1.33667,
-0.552368,1.34125,
-0.559998,1.34125,
-0.57373,1.33972,
-0.58136,1.33667,
-0.598145,1.33514,
-0.611877,1.34125,
-0.624084,1.34125,
-0.637817,1.33362,
-0.65155,1.33514,
-0.660706,1.34277,
-0.669861,1.34277,
-0.683594,1.34125,
-0.694275,1.33972,
-0.708008,1.3382,
-0.715637,1.33667,
-0.727844,1.34125,
-0.735474,1.34277,
-0.741577,1.33667,
-0.744629,1.33667,
-0.749207,1.3382,
-0.75531,1.33667,
-0.759888,1.33972,
-0.759888,1.33972,
-0.764465,1.33667,
-0.767517,1.3382,
-0.770569,1.33972,
-0.770569,1.3443,
-0.769043,1.33972,
-0.773621,1.3382,
-0.770569,1.33972,
-0.775146,1.33362,
-0.775146,1.3443,
-0.78125,1.3382,
-0.784302,1.33209,
-0.784302,1.33972,
-0.794983,1.3382,
-0.794983,1.3443,
-0.798035,1.33667,
-0.796509,1.33209,
-0.802612,1.3382,
-0.805664,1.3443,
-0.804138,1.3443,
-0.80719,1.33514,
-0.811768,1.33667,
-0.816345,1.34125,
-0.819397,1.33972,
-0.830078,1.34125,
-0.837708,1.3382,
-0.843811,1.33667,
-0.857544,1.3382,
-0.866699,1.3382,
-0.874329,1.34125,
-0.888062,1.3382,
-0.90332,1.33667,
-0.917053,1.33972,
-0.930786,1.34125,
-0.942993,1.3382,
-0.956726,1.34125,
-0.968933,1.33514,
-0.984192,1.33972,
-0.996399,1.34125,
-1.01166,1.34277,
-1.02386,1.3382,
-1.04065,1.33362,
-1.05591,1.33514,
-1.07269,1.33972,
-1.09558,1.33972,
-1.11542,1.34277,
-1.13373,1.33362,
-1.15356,1.33514,
-1.17798,1.34125,
-1.19629,1.34277,
-1.2207,1.33514,
-1.24512,1.33667,
-1.26801,1.33667,
-1.297,1.34277,
-1.32141,1.3382,
-1.34583,1.33667,
-1.36871,1.33514,
-1.39313,1.34277,
-1.41907,1.34277,
-1.44043,1.34277,
-1.4679,1.33667,
-1.49384,1.33667,
-1.51672,1.33667,
-1.53656,1.33972,
-1.56097,1.3443,
-1.57776,1.34125,
-1.60217,1.33972,
-1.62354,1.3382,
-1.64337,1.34277,
-1.66321,1.33972,
-1.69067,1.33667,
-1.71051,1.34735,
-1.72577,1.33667,
-1.74255,1.3382,
-1.75934,1.3382,
-1.77307,1.3382,
-1.78528,1.33972,
-1.79901,1.33972,
-1.8158,1.33972,
-1.82953,1.3443,
-1.84326,1.34277,
-1.85394,1.3382,
-1.86462,1.3382,
-1.87531,1.3443,
-1.88446,1.34125,
-1.89056,1.3443,
-1.89972,1.33514,
-1.90887,1.34125,
-1.91803,1.34125,
-1.92871,1.34125,
-1.93481,1.3382,
-1.94702,1.33667,
-1.95618,1.34277,
-1.96991,1.3443,
-1.98059,1.3382,
-1.98822,1.34125,
-1.9989,1.3382,
-2.01263,1.34277,
-2.02484,1.34125,
-2.03552,1.33972,
-2.04926,1.34125,
-2.05841,1.3382,
-2.07062,1.3382,
-2.07367,1.34277,
-2.07825,1.3443,
-2.07825,1.34277,
-2.06757,1.33972,
-2.04926,1.3382,
-2.03094,1.33667,
-2.00195,1.34125,
-1.96991,1.33972,
-1.92719,1.33209,
-1.88293,1.3504,
-1.83411,1.34125,
-1.77307,1.3443,
-1.71814,1.34125,
-1.65863,1.34277,
-1.59454,1.34125,
-1.53809,1.34735,
-1.474,1.34277,
-1.41296,1.33209,
-1.35345,1.3382,
-1.29547,1.34277,
-1.23749,1.34583,
-1.18866,1.34583,
-1.13831,1.34125,
-1.091,1.34125,
-1.04523,1.34277,
-1.00708,1.34277,
-0.970459,1.34583,
-0.933838,1.3443,
-0.900269,1.3443,
-0.871277,1.33972,
-0.839233,1.34277,
-0.820923,1.3443,
-0.793457,1.34125,
-0.770569,1.34125,
-0.752258,1.33972,
-0.743103,1.34277,
-0.733948,1.3443,
-0.724792,1.34277,
-0.718689,1.34125,
-0.712585,1.34277,
-0.71106,1.34583,
-0.71106,1.34735,
-0.714111,1.3443,
-0.712585,1.34125,
-0.715637,1.3443,
-0.718689,1.3443,
-0.724792,1.34583,
-0.730896,1.3443,
-0.738525,1.33667,
-0.746155,1.33667,
-0.75531,1.34583,
-0.769043,1.34277,
-0.778198,1.34277,
-0.793457,1.33972,
-0.802612,1.3443,
-0.811768,1.3443,
-0.822449,1.34583,
-0.83313,1.34125,
-0.840759,1.33972,
-0.852966,1.34583,
-0.865173,1.34125,
-0.875854,1.3443,
-0.888062,1.34277,
-0.897217,1.34277,
-0.909424,1.3443,
-0.918579,1.34735,
-0.932312,1.34735,
-0.947571,1.34583,
-0.965881,1.33667,
-0.978088,1.34277,
-0.98877,1.34888,
-1.0025,1.34888,
-1.00861,1.34583,
-1.01929,1.3443,
-1.02844,1.3443,
-1.03302,1.34888,
-1.0376,1.34735,
-1.04065,1.3443,
-1.04065,1.34583,
-1.04218,1.34888,
-1.04675,1.34888,
-1.0437,1.34888,
-1.04828,1.34125,
-1.04828,1.34277,
-1.04675,1.34735,
-1.0498,1.34735,
-1.05133,1.34888,
-1.05591,1.34277,
-1.05896,1.34583,
-1.05896,1.34583,
-1.05896,1.34888,
-1.06354,1.3504,
-1.06354,1.33972,
-1.06812,1.3382,
-1.07269,1.34583,
-1.0788,1.34735,
-1.0849,1.34888,
-1.09253,1.34735,
-1.10168,1.34735,
-1.11237,1.3443,
-1.12305,1.35498,
-1.12915,1.35193,
-1.13983,1.34735,
-1.15356,1.3443,
-1.15814,1.34888,
-1.1673,1.34888,
-1.17493,1.3504,
-1.18408,1.34735,
-1.19324,1.34583,
-1.20087,1.33972,
-1.21155,1.34888,
-1.21918,1.35193,
-1.22833,1.34888,
-1.23596,1.34583,
-1.24817,1.35193,
-1.26038,1.3443,
-1.26801,1.34888,
-1.28326,1.34583,
-1.297,1.3443,
-1.31226,1.3504,
-1.32294,1.35193,
-1.33667,1.3443,
-1.3504,1.34735,
-1.37024,1.34583,
-1.38702,1.34735,
-1.39923,1.35193,
-1.41754,1.34888,
-1.43127,1.34735,
-1.44806,1.34583,
-1.46332,1.34735,
-1.48163,1.3504,
-1.50146,1.3504,
-1.5152,1.35193,
-1.53198,1.33972,
-1.55029,1.35651,
-1.56555,1.3443,
-1.58081,1.34735,
-1.5976,1.35193,
-1.61438,1.34888,
-1.62964,1.34735,
-1.64642,1.35803,
-1.66016,1.3504,
-1.67542,1.34888,
-1.6922,1.34583,
-1.70898,1.34735,
-1.72577,1.35498,
-1.74408,1.34888,
-1.75934,1.34735,
-1.77307,1.34735,
-1.7868,1.35193,
-1.80359,1.35345,
-1.81732,1.3504,
-1.83105,1.3504,
-1.84479,1.3504,
-1.86157,1.34888,
-1.87683,1.34888,
-1.88904,1.3504,
-1.9043,1.3504,
-1.92108,1.35498,
-1.93481,1.34888,
-1.94855,1.3504,
-1.96991,1.3504,
-1.98212,1.3504,
-1.99585,1.34888,
-2.00958,1.34888,
-2.02332,1.3443,
-2.0401,1.35193,
-2.05231,1.34888,
-2.07062,1.34583,
-2.09045,1.3504,
-2.10571,1.35193,
-2.12402,1.3504,
-2.14081,1.35193,
-2.15302,1.34888,
-2.17133,1.35193,
-2.18964,1.35193,
-2.20184,1.3504,
-2.211,1.34735,
-2.22015,1.34888,
-2.22015,1.35345,
-2.21405,1.35345,
-2.20337,1.3504,
-2.18811,1.34888,
-2.1698,1.3504,
-2.14081,1.35345,
-2.10571,1.35498,
-2.06146,1.34888,
-2.01874,1.35193,
-1.96991,1.3504,
-1.9165,1.34735,
-1.8631,1.35193,
-1.80511,1.35193,
-1.74561,1.35193,
-1.6922,1.34888,
-1.62964,1.34583,
-1.5686,1.35345,
-1.50604,1.3504,
-1.45111,1.35651,
-1.39313,1.34888,
-1.33514,1.34888,
-1.28632,1.35345,
-1.23749,1.35498,
-1.19171,1.35345,
-1.14899,1.3504,
-1.10474,1.35193,
-1.06506,1.35651,
-1.03302,1.35193,
-0.996399,1.3504,
-0.970459,1.34735,
-0.946045,1.34888,
-0.920105,1.35803,
-0.901794,1.35345,
-0.88501,1.35193,
-0.874329,1.35193,
-0.865173,1.35345,
-0.862122,1.35345,
-0.85144,1.35193,
-0.849915,1.35193,
-0.845337,1.35193,
-0.85144,1.35498,
-0.845337,1.35498,
-0.845337,1.35498,
-0.846863,1.35193,
-0.85144,1.35193,
-0.85144,1.35345,
-0.854492,1.35498,
-0.865173,1.35651,
-0.868225,1.3504,
-0.875854,1.34888,
-0.88501,1.35651,
-0.897217,1.35803,
-0.906372,1.35345,
-0.917053,1.34735,
-0.933838,1.35498,
-0.942993,1.35651,
-0.956726,1.35803,
-0.976563,1.35803,
-0.991821,1.35651,
-1.01013,1.35345,
-1.02844,1.35345,
-1.04218,1.35956,
-1.05743,1.35498,
-1.07574,1.35193,
-1.08795,1.35345,
-1.10168,1.35193,
-1.11542,1.35651,
-1.12457,1.35498,
-1.13373,1.35498,
-1.14594,1.3504,
-1.15356,1.35193,
-1.15967,1.35956,
-1.1673,1.35651,
-1.17188,1.35345,
-1.17645,1.34888,
-1.17798,1.35651,
-1.18256,1.35651,
-1.17798,1.35498,
-1.1795,1.35498,
-1.17493,1.35193,
-1.17188,1.35345,
-1.16577,1.35803,
-1.15814,1.35498,
-1.15509,1.35498,
-1.14594,1.35345,
-1.14288,1.35193,
-1.13831,1.35956,
-1.12762,1.35498,
-1.12,1.35651,
-1.11237,1.35193,
-1.10474,1.35498,
-1.09558,1.35651,
-1.08795,1.36261,
-1.07727,1.35193,
-1.07117,1.35345,
-1.06506,1.35651,
-1.05743,1.35956,
-1.05438,1.35651,
-1.0498,1.35956,
-1.04828,1.35498,
-1.04675,1.35498,
-1.04675,1.35651,
-1.04675,1.35651,
-1.05133,1.35498,
-1.05591,1.35651,
-1.05896,1.3504,
-1.06812,1.35651,
-1.08337,1.35651,
-1.09406,1.35803,
-1.10474,1.35498,
-1.12152,1.35651,
-1.13831,1.35956,
-1.15662,1.35651,
-1.1795,1.35498,
-1.19934,1.35345,
-1.22986,1.35651,
-1.25732,1.36261,
-1.28326,1.35651,
-1.31226,1.35498,
-1.33667,1.3504,
-1.36108,1.35345,
-1.38702,1.36261,
-1.40381,1.35803,
-1.42975,1.35651,
-1.45111,1.35651,
-1.46942,1.35651,
-1.49078,1.35498,
-1.51215,1.35803,
-1.5274,1.35651,
-1.54266,1.35498,
-1.5625,1.35498,
-1.58081,1.35345,
-1.59607,1.35803,
-1.61285,1.35651,
-1.62964,1.35498,
-1.64337,1.35498,
-1.66626,1.35651,
-1.68304,1.36261,
-1.70135,1.3504,
-1.71661,1.35193,
-1.7334,1.35498,
-1.75476,1.35651,
-1.77307,1.35956,
-1.79443,1.35956,
-1.80969,1.35345,
-1.82953,1.35651,
-1.84174,1.35956,
-1.85547,1.36261,
-1.87378,1.36261,
-1.88599,1.3504,
-1.90277,1.35498,
-1.91498,1.36261,
-1.92413,1.35345,
-1.94092,1.35803,
-1.94855,1.35651,
-1.96533,1.35498,
-1.97754,1.35803,
-1.9928,1.35345,
-2.00195,1.37024,
-2.01569,1.35193,
-2.02179,1.35803,
-2.03247,1.35956,
-2.03857,1.35345,
-2.04315,1.36261,
-2.0462,1.35498,
-2.0462,1.35651,
-2.03705,1.35803,
-2.02484,1.35803,
-2.00806,1.35803,
-1.98364,1.35498,
-1.95465,1.35498,
-1.91803,1.36261,
-1.87836,1.35803,
-1.83411,1.35956,
-1.78375,1.35498,
-1.73187,1.35193,
-1.67847,1.36414,
-1.62354,1.35803,
-1.55792,1.35651,
-1.49689,1.35651,
-1.4328,1.35345,
-1.36566,1.35651,
-1.29852,1.35803,
-1.23596,1.35651,
-1.17493,1.35498,
-1.11847,1.35498,
-1.05591,1.36414,
-1.0025,1.35956,
-0.947571,1.35956,
-0.901794,1.35803,
-0.854492,1.35345,
-0.811768,1.35956,
-0.775146,1.35803,
-0.737,1.35498,
-0.704956,1.35651,
-0.679016,1.35498,
-0.65155,1.35651,
-0.627136,1.35803,
-0.611877,1.35803,
-0.592041,1.35651,
-0.578308,1.35651,
-0.563049,1.35956,
-0.553894,1.35956,
-0.540161,1.3504,
-0.534058,1.35498,
-0.52948,1.35651,
-0.520325,1.36261,
-0.517273,1.36261,
-0.511169,1.35651,
-0.505066,1.34735,
-0.508118,1.35498,
-0.506592,1.36414,
-0.511169,1.35803,
-0.512695,1.35193,
-0.521851,1.35498,
-0.524902,1.35803,
-0.532532,1.36414,
-0.541687,1.35803,
-0.549316,1.35803,
-0.556946,1.35956,
-0.567627,1.35803,
-0.58136,1.36261,
-0.588989,1.35803,
-0.6073,1.35803,
-0.621033,1.35345,
-0.636292,1.35956,
-0.65155,1.36566,
-0.668335,1.35498,
-0.686646,1.36261,
-0.704956,1.35498,
-0.714111,1.35498,
-0.733948,1.36414,
-0.749207,1.35956,
-0.761414,1.36719,
-0.773621,1.35803,
-0.785828,1.35498,
-0.799561,1.35498,
-0.811768,1.35803,
-0.827026,1.35803,
-0.83313,1.35803,
-0.842285,1.35193,
-0.846863,1.36566,
-0.852966,1.35651,
-0.857544,1.35651,
-0.868225,1.35651,
-0.869751,1.35498,
-0.872803,1.36566,
-0.875854,1.35956,
-0.874329,1.35345,
-0.874329,1.35345,
-0.87738,1.35498,
-0.875854,1.36261,
-0.878906,1.35956,
-0.874329,1.35498,
-0.872803,1.35956,
-0.868225,1.35498,
-0.868225,1.36261,
-0.869751,1.35803,
-0.869751,1.36719,
-0.871277,1.35803,
-0.874329,1.35498,
-0.878906,1.35803,
-0.883484,1.36261,
-0.888062,1.35803,
-0.897217,1.35651,
-0.90332,1.35651,
-0.909424,1.35803,
-0.917053,1.35956,
-0.926208,1.35956,
-0.938416,1.35803,
-0.946045,1.35803,
-0.956726,1.35803,
-0.965881,1.36261,
-0.975037,1.35956,
-0.98877,1.3504,
-1.00403,1.35498,
-1.01471,1.35956,
-1.02386,1.35651,
-1.03912,1.35651,
-1.05133,1.35345,
-1.06812,1.35193,
-1.0849,1.36261,
-1.09711,1.35956,
-1.11237,1.35803,
-1.12762,1.35498,
-1.14136,1.35803,
-1.15967,1.35956,
-1.1795,1.35651,
-1.19019,1.35956,
-1.20697,1.35803,
-1.22223,1.35803,
-1.23444,1.35956,
-1.24664,1.35651,
-1.2619,1.36261,
-1.27869,1.35803,
-1.29242,1.35651,
-1.3031,1.36566,
-1.31683,1.35803,
-1.33362,1.36719,
-1.3443,1.35498,
-1.35803,1.35651,
-1.37329,1.36261,
-1.38245,1.35956,
-1.39313,1.36261,
-1.40533,1.35345,
-1.41754,1.35345,
-1.4267,1.36261,
-1.43433,1.35956,
-1.44043,1.36261,
-1.44958,1.35803,
-1.45416,1.35345,
-1.46179,1.36414,
-1.46332,1.35803,
-1.46942,1.36414,
-1.46942,1.35498,
-1.47552,1.35345,
-1.48468,1.36414,
-1.49689,1.35803,
-1.50452,1.36414,
-1.51978,1.35193,
-1.52588,1.35651,
-1.53961,1.36414,
-1.55945,1.35651,
-1.57318,1.35803,
-1.58844,1.35498,
-1.5976,1.35651,
-1.6098,1.35956,
-1.62811,1.35803,
-1.6449,1.36261,
-1.66321,1.36261,
-1.68304,1.35345,
-1.6983,1.35651,
-1.71661,1.35956,
-1.73187,1.35956,
-1.74561,1.35803,
-1.75018,1.35803,
-1.75171,1.36566,
-1.74408,1.36261,
-1.73187,1.35956,
-1.71509,1.35498,
-1.69373,1.35803,
-1.66321,1.36414,
-1.63116,1.35956,
-1.58844,1.35651,
-1.54114,1.35498,
-1.48926,1.35193,
-1.43127,1.36261,
-1.36719,1.35803,
-1.30463,1.35803,
-1.23749,1.35345,
-1.1673,1.35498,
-1.10779,1.35956,
-1.0437,1.35651,
-0.973511,1.35956,
-0.914001,1.35498,
-0.85144,1.35803,
-0.793457,1.36566,
-0.732422,1.35651,
-0.68512,1.35803,
-0.636292,1.35651,
-0.587463,1.35956,
-0.543213,1.36414,
-0.502014,1.35498,
-0.460815,1.35803,
-0.419617,1.35803,
-0.390625,1.35498,
-0.354004,1.36414,
-0.331116,1.35651,
-0.299072,1.36261,
-0.274658,1.35956,
-0.248718,1.35345,
-0.231934,1.36261,
-0.210571,1.35803,
-0.193787,1.36261,
-0.177002,1.35803,
-0.163269,1.35345,
-0.14801,1.36566,
-0.135803,1.35651,
-0.12207,1.35803,
-0.111389,1.35651,
-0.0946045,1.35193,
-0.0823975,1.36566,
-0.0732422,1.36261,
-0.062561,1.35651,
-0.0534058,1.35651,
-0.0427246,1.35956,
-0.0320435,1.36566,
-0.0259399,1.36414,
-0.0167847,1.36261,
-0.0137329,1.35956,
0.00305176,1.35651,
0.00915527,1.36261,
0.0137329,1.36414,
0.0137329,1.35803,
0.0213623,1.35956,
0.0198364,1.35498,
0.0183105,1.36261,
0.0137329,1.35956,
0.0137329,1.36261,
0.00305176,1.35956,
-0.00610352,1.35803,
-0.012207,1.36261,
-0.0213623,1.35803,
-0.0259399,1.36414,
-0.0396729,1.35651,
-0.0488281,1.35803,
-0.0595093,1.35956,
-0.0671387,1.36261,
-0.0793457,1.36261,
-0.0869751,1.35345,
-0.0961304,1.35956,
-0.106812,1.35803,
-0.114441,1.36261,
-0.126648,1.36261,
-0.137329,1.35498,
-0.144958,1.35498,
-0.149536,1.36566,
-0.154114,1.35803,
-0.158691,1.35956,
-0.166321,1.35956,
-0.170898,1.35803,
-0.169373,1.35956,
-0.175476,1.35498,
-0.177002,1.35803,
-0.186157,1.35803,
-0.187683,1.35956,
-0.195313,1.36261,
-0.201416,1.35498,
-0.210571,1.35956,
-0.215149,1.35345,
-0.219727,1.35345,
-0.231934,1.35956,
-0.234985,1.35651,
-0.247192,1.36261,
-0.253296,1.35498,
-0.263977,1.35498,
-0.280762,1.36566,
-0.289917,1.36261,
-0.306702,1.36261,
-0.320435,1.35651,
-0.332642,1.35345,
-0.349426,1.36414,
-0.363159,1.35956,
-0.382996,1.35803,
-0.395203,1.35651,
-0.415039,1.35803,
-0.431824,1.36261,
-0.453186,1.35803,
-0.471497,1.35803,
-0.492859,1.35803,
-0.514221,1.35651,
-0.538635,1.36414,
-0.559998,1.35803,
-0.579834,1.35803,
-0.602722,1.35956,
-0.621033,1.35803,
-0.642395,1.35956,
-0.660706,1.35956,
-0.675964,1.36414,
-0.697327,1.36261,
-0.715637,1.35498,
-0.740051,1.35803,
-0.758362,1.36261,
-0.78125,1.35803,
-0.804138,1.36261,
-0.828552,1.35956,
-0.85144,1.36261,
-0.866699,1.35345,
-0.891113,1.35345,
-0.912476,1.35498,
-0.935364,1.36261,
-0.9552,1.36261,
-0.973511,1.36719,
-0.996399,1.36261,
-1.01471,1.35651,
-1.03607,1.35651,
-1.05591,1.35956,
-1.0788,1.36566,
-1.09406,1.35803,
-1.11389,1.35345,
-1.13068,1.35803,
-1.15051,1.36261,
-1.17035,1.35803,
-1.18713,1.36261,
-1.20697,1.35651,
-1.22681,1.36261,
-1.24817,1.36414,
-1.27106,1.35956,
-1.29089,1.36261,
-1.31226,1.35498,
-1.33057,1.36566,
-1.35193,1.36261,
-1.36871,1.35803,
-1.3916,1.36261,
-1.40686,1.35956,
-1.42975,1.35803,
-1.45264,1.36261,
-1.46942,1.35956,
-1.49078,1.36414,
-1.50757,1.36414,
-1.52588,1.35803,
-1.55029,1.35803,
-1.5686,1.36261,
-1.58997,1.36414,
-1.6098,1.36261,
-1.63269,1.35651,
-1.65558,1.36414,
-1.67389,1.36566,
-1.69525,1.36566,
-1.71204,1.36261,
-1.72882,1.35956,
-1.7395,1.36719,
-1.75018,1.36414,
-1.76392,1.35803,
-1.76697,1.36261,
-1.77155,1.36414,
-1.76697,1.36719,
-1.76086,1.37024,
-1.7395,1.36261,
-1.71509,1.35956,
-1.68762,1.36414,
-1.64642,1.36871,
-1.60675,1.35956,
-1.5564,1.36566,
-1.50146,1.36566,
-1.44806,1.36414,
-1.38855,1.36414,
-1.32446,1.36566,
-1.25427,1.36719,
-1.18866,1.36414,
-1.12305,1.36261,
-1.05591,1.36414,
-0.985718,1.36719,
-0.923157,1.35803,
-0.862122,1.36566,
-0.798035,1.36414,
-0.741577,1.36414,
-0.692749,1.36719,
-0.634766,1.36719,
-0.58136,1.36261,
-0.532532,1.36719,
-0.488281,1.36414,
-0.445557,1.36719,
-0.40741,1.36719,
-0.37384,1.35803,
-0.346375,1.36566,
-0.314331,1.36871,
-0.286865,1.36719,
-0.267029,1.36719,
-0.250244,1.36414,
-0.233459,1.37024,
-0.218201,1.36871,
-0.204468,1.36871,
-0.193787,1.36871,
-0.178528,1.36261,
-0.175476,1.37329,
-0.163269,1.37329,
-0.154114,1.37024,
-0.146484,1.37024,
-0.137329,1.36719,
-0.135803,1.36871,
-0.131226,1.37329,
-0.131226,1.36719,
-0.1297,1.36871,
-0.131226,1.36719,
-0.131226,1.36414,
-0.1297,1.37177,
-0.135803,1.36719,
-0.135803,1.37329,
-0.135803,1.36719,
-0.141907,1.36719,
-0.144958,1.37482,
-0.152588,1.37024,
-0.157166,1.37024,
-0.164795,1.36719,
