-3.23334,1.05133,
-3.24402,1.05286,
-3.25623,1.0498,
-3.26538,1.04675,
-3.27606,1.0498,
-3.28979,1.0437,
-3.29437,1.05438,
-3.31116,1.0498,
-3.32184,1.04523,
-3.33252,1.0498,
-3.34778,1.04828,
-3.35999,1.05286,
-3.37372,1.05133,
-3.38135,1.04523,
-3.39355,1.0437,
-3.40729,1.04828,
-3.42102,1.05286,
-3.43018,1.0498,
-3.44849,1.04675,
-3.46069,1.04523,
-3.479,1.04523,
-3.49426,1.05286,
-3.50952,1.04675,
-3.52325,1.04828,
-3.54004,1.04523,
-3.5553,1.0498,
-3.5675,1.05286,
-3.58582,1.0498,
-3.6026,1.04828,
-3.61633,1.04675,
-3.63159,1.05286,
-3.6438,1.05286,
-3.65601,1.04828,
-3.67126,1.04675,
-3.68652,1.04675,
-3.70483,1.04828,
-3.71857,1.05133,
-3.73383,1.04218,
-3.74603,1.04828,
-3.76434,1.04828,
-3.78571,1.0498,
-3.80554,1.05438,
-3.82385,1.04828,
-3.84827,1.05133,
-3.8681,1.04828,
-3.88641,1.0498,
-3.90472,1.05438,
-3.92303,1.0498,
-3.9444,1.04675,
-3.96118,1.04828,
-3.98254,1.0498,
-3.99933,1.04828,
-4.01459,1.05133,
-4.02985,1.0498,
-4.04358,1.04523,
-4.05121,1.0498,
-4.06189,1.05438,
-4.06799,1.04523,
-4.06952,1.04828,
-4.06494,1.04675,
-4.06036,1.0498,
-4.04816,1.05286,
-4.03748,1.05133,
-4.02374,1.04675,
-4.00696,1.04523,
-3.98254,1.05286,
-3.95966,1.05438,
-3.92914,1.05743,
-3.90015,1.0437,
-3.86353,1.0437,
-3.82843,1.0498,
-3.79486,1.05438,
-3.76129,1.0498,
-3.72772,1.04828,
-3.68805,1.04828,
-3.64838,1.04828,
-3.60718,1.05286,
-3.57361,1.05133,
-3.53699,1.0498,
-3.50037,1.0498,
-3.46985,1.04828,
-3.4317,1.05286,
-3.39813,1.0498,
-3.36761,1.04523,
-3.3371,1.04523,
-3.30658,1.0498,
-3.28217,1.05286,
-3.25317,1.05133,
-3.23029,1.04675,
-3.20587,1.04675,
-3.18298,1.05286,
-3.1662,1.05286,
-3.14331,1.04828,
-3.12805,1.04828,
-3.10974,1.04828,
-3.09296,1.0498,
-3.0838,1.05286,
-3.07159,1.05133,
-3.05939,1.04675,
-3.05328,1.04675,
-3.03955,1.04828,
-3.03802,1.05133,
-3.03345,1.0498,
-3.02887,1.04828,
-3.02429,1.04675,
-3.02887,1.04828,
-3.02429,1.05591,
-3.02734,1.04675,
-3.0304,1.04828,
-3.0304,1.0498,
-3.03192,1.05133,
-3.03345,1.05133,
-3.03802,1.05286,
-3.04565,1.04523,
-3.05023,1.04828,
-3.05328,1.05133,
-3.06244,1.05133,
-3.07007,1.05438,
-3.08228,1.04675,
-3.09753,1.04218,
-3.10516,1.04675,
-3.11127,1.05438,
-3.125,1.04065,
-3.1311,1.04675,
-3.13721,1.04675,
-3.14484,1.04828,
-3.15094,1.04828,
-3.15704,1.05591,
-3.1601,1.0437,
-3.16925,1.06354,
-3.1723,1.04828,
-3.17688,1.05286,
-3.17688,1.05133,
-3.18298,1.04523,
-3.18604,1.05133,
-3.18756,1.04828,
-3.19214,1.05438,
-3.19214,1.05133,
-3.19366,1.04523,
-3.19061,1.04828,
-3.18604,1.0498,
-3.18756,1.05133,
-3.18756,1.04828,
-3.19061,1.04675,
-3.18909,1.0437,
-3.18909,1.05286,
-3.19214,1.05591,
-3.19519,1.0498,
-3.19519,1.04828,
-3.20282,1.04828,
-3.20587,1.04828,
-3.2074,1.05438,
-3.21045,1.05286,
-3.21045,1.04828,
-3.2135,1.04828,
-3.22113,1.04828,
-3.22571,1.05438,
-3.22571,1.04675,
-3.22723,1.0498,
-3.23944,1.04828,
-3.24707,1.0498,
-3.2547,1.05133,
-3.26843,1.05133,
-3.27606,1.0498,
-3.28369,1.05133,
-3.29285,1.05438,
-3.30505,1.05133,
-3.31726,1.05133,
-3.32184,1.04675,
-3.33252,1.04828,
-3.3432,1.05286,
-3.3493,1.05286,
-3.35541,1.05591,
-3.36456,1.04828,
-3.37372,1.04523,
-3.38135,1.0498,
-3.3905,1.05286,
-3.39966,1.05438,
-3.40729,1.05133,
-3.41644,1.04828,
-3.42255,1.0498,
-3.43475,1.05438,
-3.44849,1.05286,
-3.45917,1.04675,
-3.47137,1.0498,
-3.48816,1.0498,
-3.50037,1.04828,
-3.51257,1.05133,
-3.52631,1.04675,
-3.54004,1.04675,
-3.55072,1.05133,
-3.56293,1.05438,
-3.57208,1.05133,
-3.58276,1.0498,
-3.59192,1.05133,
-3.60565,1.0498,
-3.61481,1.05743,
-3.62854,1.05286,
-3.63922,1.0498,
-3.6499,1.0498,
-3.66364,1.0498,
-3.67432,1.05743,
-3.685,1.05286,
-3.6972,1.04828,
-3.70331,1.0498,
-3.71246,1.05133,
-3.72467,1.05743,
-3.7323,1.05286,
-3.7384,1.05133,
-3.74603,1.04218,
-3.75366,1.04523,
-3.75366,1.05743,
-3.75366,1.05438,
-3.75214,1.04828,
-3.74298,1.05286,
-3.73383,1.04828,
-3.72009,1.05286,
-3.70636,1.06964,
-3.685,1.05133,
-3.66058,1.05133,
-3.62701,1.05133,
-3.59192,1.05591,
-3.55377,1.0498,
-3.50952,1.04828,
-3.46222,1.04065,
-3.41187,1.0498,
-3.35083,1.05591,
-3.29742,1.0498,
-3.23486,1.0498,
-3.17535,1.04828,
-3.10974,1.0498,
-3.04413,1.05591,
-2.97852,1.0498,
-2.91595,1.04675,
-2.85187,1.0498,
-2.79083,1.05133,
-2.73285,1.05591,
-2.66876,1.05133,
-2.61078,1.04828,
-2.55127,1.04828,
-2.49939,1.05133,
-2.44293,1.05438,
-2.39258,1.05133,
-2.3407,1.04675,
-2.28882,1.0498,
-2.23694,1.0498,
-2.18964,1.05286,
-2.14233,1.0498,
-2.09198,1.04828,
-2.04773,1.04218,
-2.005,1.06506,
-1.95923,1.05286,
-1.91498,1.0498,
-1.87531,1.04523,
-1.83716,1.04523,
-1.79749,1.05133,
-1.75934,1.05591,
-1.72577,1.05133,
-1.69678,1.04218,
-1.66779,1.0498,
-1.64032,1.0498,
-1.61438,1.05438,
-1.59607,1.05133,
-1.58081,1.04828,
-1.5625,1.04828,
-1.54572,1.0498,
-1.53198,1.05133,
-1.51978,1.05133,
-1.51062,1.04675,
-1.50452,1.04828,
-1.49689,1.05133,
-1.49384,1.05438,
-1.49078,1.05591,
-1.48926,1.04675,
-1.48773,1.03912,
-1.48773,1.0498,
-1.48621,1.05438,
-1.48926,1.05286,
-1.49841,1.04828,
-1.50299,1.0498,
-1.51062,1.04675,
-1.52283,1.05743,
-1.53351,1.05591,
-1.54572,1.0498,
-1.55945,1.05286,
-1.57471,1.05286,
-1.58997,1.05591,
-1.60675,1.05438,
-1.61896,1.04523,
-1.63422,1.05133,
-1.64795,1.04828,
-1.6571,1.05438,
-1.66626,1.0498,
-1.66779,1.0498,
-1.67236,1.04828,
-1.66626,1.0498,
-1.66321,1.05591,
-1.65405,1.05438,
-1.64337,1.04675,
-1.63422,1.05133,
-1.62201,1.0498,
-1.60828,1.05896,
-1.59607,1.05133,
-1.58844,1.04828,
-1.57013,1.0498,
-1.55945,1.05133,
-1.54877,1.05743,
-1.53351,1.05286,
-1.5213,1.04828,
-1.51672,1.04828,
-1.50146,1.0498,
-1.49078,1.05591,
-1.47705,1.05133,
-1.4679,1.04828,
-1.45111,1.0498,
-1.43738,1.05133,
-1.4267,1.05438,
-1.41602,1.05438,
-1.40381,1.04523,
-1.38855,1.05133,
-1.37329,1.0498,
-1.36261,1.04523,
-1.35651,1.05133,
-1.3443,1.04675,
-1.33209,1.04523,
-1.32141,1.04828,
-1.31378,1.05438,
-1.29852,1.04675,
-1.28937,1.04675,
-1.28326,1.04523,
-1.28021,1.04675,
-1.27106,1.05286,
-1.26495,1.05133,
-1.26648,1.04523,
-1.25885,1.04523,
-1.25427,1.0498,
-1.24969,1.05286,
-1.24664,1.04828,
-1.24817,1.0437,
-1.24969,1.04828,
-1.24664,1.04523,
-1.24969,1.05286,
-1.24664,1.05438,
-1.24512,1.04828,
-1.25275,1.04828,
-1.25275,1.04828,
-1.26038,1.05286,
-1.2619,1.0498,
-1.27411,1.04523,
-1.28326,1.0498,
-1.29089,1.05133,
-1.30005,1.05133,
-1.3092,1.05133,
-1.32141,1.0437,
-1.33057,1.04675,
-1.34277,1.0498,
-1.35803,1.05286,
-1.36566,1.04675,
-1.38092,1.05133,
-1.39008,1.0498,
-1.40228,1.04828,
-1.41296,1.05286,
-1.41907,1.04523,
-1.4267,1.04523,
-1.43433,1.04523,
-1.44043,1.04828,
-1.44653,1.05286,
-1.44653,1.04828,
-1.44958,1.04523,
-1.44653,1.04523,
-1.43585,1.04828,
-1.42822,1.05286,
-1.41602,1.05133,
-1.39923,1.04523,
-1.37939,1.0437,
-1.35345,1.0498,
-1.33209,1.05133,
-1.3031,1.04675,
-1.27411,1.0437,
-1.24359,1.04675,
-1.2085,1.05133,
-1.17188,1.05286,
-1.12457,1.0498,
-1.08643,1.04828,
-1.0437,1.04675,
-1.0025,1.04523,
-0.959778,1.05133,
-0.91095,1.05286,
-0.865173,1.04675,
-0.813293,1.04523,
-0.770569,1.04523,
-0.718689,1.0498,
-0.669861,1.04675,
-0.62561,1.04523,
-0.576782,1.04218,
-0.534058,1.0498,
-0.491333,1.05438,
-0.45166,1.04828,
-0.418091,1.04218,
-0.384521,1.04523,
-0.35553,1.04523,
-0.326538,1.05286,
-0.300598,1.04675,
-0.279236,1.04218,
-0.257874,1.0498,
-0.238037,1.04675,
-0.215149,1.04828,
-0.201416,1.04828,
-0.186157,1.04523,
-0.175476,1.04828,
-0.163269,1.04675,
-0.151062,1.05286,
-0.144958,1.05133,
-0.131226,1.04523,
-0.125122,1.04523,
-0.117493,1.04675,
-0.114441,1.05133,
-0.108337,1.05438,
-0.106812,1.04675,
-0.100708,1.0437,
-0.100708,1.04828,
-0.100708,1.05286,
-0.100708,1.04828,
-0.105286,1.04523,
-0.106812,1.04828,
-0.111389,1.0498,
-0.115967,1.05286,
-0.12207,1.0498,
-0.128174,1.04828,
-0.135803,1.04523,
-0.146484,1.04828,
-0.152588,1.0498,
-0.163269,1.04828,
-0.167847,1.04828,
-0.177002,1.04675,
-0.187683,1.04675,
-0.198364,1.05286,
-0.215149,1.04828,
-0.224304,1.04523,
-0.238037,1.04523,
-0.242615,1.04828,
-0.250244,1.0498,
-0.256348,1.05133,
-0.263977,1.0437,
-0.270081,1.04523,
-0.282288,1.04675,
-0.286865,1.05896,
-0.292969,1.05286,
-0.299072,1.0437,
-0.300598,1.04675,
-0.302124,1.05133,
-0.30365,1.05438,
-0.308228,1.05133,
-0.308228,1.04523,
-0.308228,1.05133,
-0.312805,1.0498,
-0.315857,1.05438,
-0.318909,1.0498,
-0.325012,1.04523,
-0.326538,1.04675,
-0.331116,1.0437,
-0.340271,1.05133,
-0.349426,1.05286,
-0.358582,1.04675,
-0.364685,1.04523,
-0.369263,1.0498,
-0.375366,1.05133,
-0.384521,1.0498,
-0.393677,1.04523,
-0.404358,1.0437,
-0.410461,1.04675,
-0.421143,1.05133,
-0.428772,1.05286,
-0.445557,1.04218,
-0.456238,1.04523,
-0.469971,1.0498,
-0.480652,1.0498,
-0.491333,1.04675,
-0.50354,1.04523,
-0.521851,1.04675,
-0.534058,1.05133,
-0.547791,1.05286,
-0.564575,1.05286,
-0.575256,1.04828,
-0.588989,1.0437,
-0.6073,1.0498,
-0.62561,1.0498,
-0.645447,1.04828,
-0.665283,1.04675,
-0.686646,1.04523,
-0.708008,1.0498,
-0.733948,1.05133,
-0.750732,1.0498,
-0.776672,1.04675,
-0.796509,1.04828,
-0.816345,1.04828,
-0.845337,1.0498,
-0.866699,1.04828,
-0.889587,1.0437,
-0.915527,1.04675,
-0.941467,1.04523,
-0.967407,1.05133,
-0.987244,1.0498,
-1.01318,1.0437,
-1.03607,1.05133,
-1.06049,1.0498,
-1.08032,1.0498,
-1.10779,1.05133,
-1.1261,1.04523,
-1.14899,1.04828,
-1.1673,1.04828,
-1.18561,1.0498,
-1.20697,1.04523,
-1.21613,1.04523,
-1.22986,1.0437,
-1.24359,1.0498,
-1.25427,1.04828,
-1.26038,1.04675,
-1.26648,1.0437,
-1.26495,1.04523,
-1.2619,1.05133,
-1.25732,1.05438,
-1.24817,1.05286,
-1.22986,1.0437,
-1.21918,1.04675,
-1.19934,1.05438,
-1.17798,1.05133,
-1.15509,1.05286,
-1.1322,1.04675,
-1.10626,1.04828,
-1.07422,1.05286,
-1.04218,1.0498,
-1.00708,1.05133,
-0.970459,1.0437,
-0.932312,1.04675,
-0.895691,1.04828,
-0.854492,1.05133,
-0.817871,1.04675,
-0.785828,1.04675,
-0.750732,1.04828,
-0.715637,1.04675,
-0.679016,1.0498,
-0.65155,1.04675,
-0.621033,1.0498,
-0.588989,1.0437,
-0.561523,1.04675,
-0.535583,1.05286,
-0.518799,1.0498,
-0.498962,1.04523,
-0.479126,1.04675,
-0.463867,1.0498,
-0.456238,1.05133,
-0.442505,1.04675,
-0.434875,1.04675,
-0.42572,1.04675,
-0.419617,1.04828,
-0.419617,1.05286,
-0.416565,1.04828,
-0.415039,1.04675,
-0.418091,1.04675,
-0.415039,1.05133,
-0.421143,1.04675,
-0.424194,1.03912,
-0.42572,1.04523,
-0.430298,1.04523,
-0.43335,1.05286,
-0.444031,1.04675,
-0.454712,1.04828,
-0.460815,1.04675,
-0.466919,1.05743,
-0.474548,1.05133,
-0.483704,1.0498,
-0.489807,1.0498,
-0.494385,1.04675,
-0.502014,1.04675,
-0.508118,1.05133,
-0.521851,1.05133,
-0.532532,1.04523,
-0.541687,1.04675,
-0.553894,1.04675,
-0.564575,1.05133,
-0.575256,1.05286,
-0.587463,1.04675,
-0.596619,1.0498,
-0.608826,1.0437,
-0.624084,1.0498,
-0.634766,1.05286,
-0.643921,1.05133,
-0.656128,1.04675,
-0.668335,1.04675,
-0.675964,1.04828,
-0.686646,1.05286,
-0.698853,1.04218,
-0.706482,1.04675,
-0.720215,1.04523,
-0.730896,1.05286,
-0.740051,1.0498,
-0.743103,1.0437,
-0.752258,1.04828,
-0.759888,1.0437,
-0.764465,1.04828,
-0.769043,1.05591,
-0.779724,1.0498,
-0.788879,1.04523,
-0.798035,1.04828,
-0.80719,1.04828,
-0.817871,1.0498,
-0.830078,1.0498,
-0.843811,1.04218,
-0.857544,1.04828,
-0.866699,1.05133,
-0.874329,1.0498,
-0.88501,1.0498,
-0.892639,1.04828,
-0.901794,1.0498,
-0.91095,1.04675,
-0.926208,1.0498,
-0.938416,1.0498,
-0.947571,1.0437,
-0.9552,1.04828,
-0.968933,1.04828,
-0.973511,1.05438,
-0.985718,1.05133,
-0.993347,1.03912,
-1.00861,1.04675,
-1.01929,1.05133,
-1.03302,1.05438,
-1.0437,1.0498,
-1.05591,1.04523,
-1.06354,1.0498,
-1.08032,1.04828,
-1.091,1.05286,
-1.10779,1.04828,
-1.12457,1.04065,
-1.13983,1.04523,
-1.15967,1.04828,
-1.17493,1.05133,
-1.19629,1.04828,
-1.21307,1.04828,
-1.22986,1.04828,
-1.24664,1.04218,
-1.26038,1.05133,
-1.27869,1.05133,
-1.29395,1.04828,
-1.31226,1.04523,
-1.32141,1.04828,
-1.33362,1.0498,
-1.3504,1.04828,
-1.36261,1.04523,
-1.38245,1.04828,
-1.39771,1.04675,
-1.41907,1.05133,
-1.4328,1.0437,
-1.45264,1.04675,
-1.4679,1.0498,
-1.48621,1.04828,
-1.49994,1.05133,
-1.51825,1.0498,
-1.53198,1.0437,
-1.55029,1.04675,
-1.5564,1.04828,
-1.5686,1.04828,
-1.57013,1.05133,
-1.57013,1.04675,
-1.57013,1.04828,
-1.56403,1.0498,
-1.5564,1.04828,
-1.53809,1.04828,
-1.51978,1.04828,
-1.49384,1.04218,
-1.46637,1.04828,
-1.4328,1.05133,
-1.39923,1.0498,
-1.36261,1.0437,
-1.32904,1.0437,
-1.28326,1.04828,
-1.23444,1.05133,
-1.18866,1.05133,
-1.14746,1.04828,
-1.09863,1.04675,
-1.05591,1.0498,
-1.00555,1.04828,
-0.9552,1.05133,
-0.907898,1.04523,
-0.857544,1.04675,
-0.811768,1.04523,
-0.764465,1.0498,
-0.724792,1.05286,
-0.680542,1.04828,
-0.643921,1.04523,
-0.610352,1.04523,
-0.572205,1.04828,
-0.537109,1.0498,
-0.506592,1.05133,
-0.474548,1.0437,
-0.444031,1.0498,
-0.415039,1.05133,
-0.389099,1.04828,
-0.363159,1.04065,
-0.338745,1.04523,
-0.318909,1.0498,
-0.297546,1.0498,
-0.279236,1.0498,
-0.256348,1.04675,
-0.236511,1.04675,
-0.22583,1.0498,
-0.209045,1.0498,
-0.193787,1.0498,
-0.184631,1.04675,
-0.175476,1.04828,
-0.164795,1.04523,
-0.157166,1.0498,
-0.149536,1.04828,
-0.143433,1.04675,
-0.141907,1.04675,
-0.143433,1.04828,
-0.134277,1.04828,
-0.134277,1.0498,
-0.132751,1.04523,
-0.1297,1.0437,
-0.135803,1.04828,
-0.134277,1.04828,
-0.134277,1.04675,
-0.137329,1.04675,
-0.137329,1.04523,
-0.143433,1.0498,
-0.143433,1.04828,
-0.144958,1.0437,
-0.146484,1.0498,
-0.154114,1.0437,
-0.157166,1.04828,
-0.158691,1.04828,
-0.158691,1.04523,
-0.160217,1.04523,
-0.160217,1.04218,
-0.161743,1.04828,
-0.161743,1.04828,
-0.158691,1.04828,
-0.154114,1.04675,
-0.14801,1.0437,
-0.146484,1.04828,
-0.140381,1.0498,
-0.135803,1.0498,
-0.128174,1.04523,
-0.12207,1.04523,
-0.123596,1.0498,
-0.117493,1.05133,
-0.106812,1.04828,
-0.0946045,1.0437,
-0.0854492,1.04523,
-0.0808716,1.0498,
-0.0793457,1.05133,
-0.0793457,1.04675,
-0.0778198,1.04675,
-0.0762939,1.04828,
-0.0686646,1.04675,
-0.0640869,1.0437,
-0.0595093,1.04675,
-0.0518799,1.04218,
-0.0457764,1.04523,
-0.0427246,1.05133,
-0.0396729,1.05438,
-0.0305176,1.04828,
-0.0259399,1.04523,
-0.0213623,1.04218,
-0.0183105,1.0498,
-0.0137329,1.0498,
-0.0137329,1.04675,
-0.0137329,1.04523,
-0.0167847,1.0437,
-0.0167847,1.04675,
-0.0213623,1.0498,
-0.0305176,1.04675,
-0.0335693,1.04218,
-0.0442505,1.0437,
-0.0518799,1.0498,
-0.0564575,1.0498,
-0.0656128,1.04828,
-0.0793457,1.0437,
-0.0839233,1.0376,
-0.0930786,1.04828,
-0.0991821,1.04828,
-0.109863,1.04828,
-0.112915,1.04675,
-0.120544,1.03455,
-0.125122,1.04828,
-0.1297,1.04523,
-0.134277,1.0498,
-0.137329,1.04523,
-0.146484,1.04218,
-0.152588,1.04828,
-0.15564,1.04218,
-0.163269,1.03912,
-0.169373,1.0437,
-0.177002,1.0437,
-0.187683,1.04828,
-0.19989,1.04828,
-0.210571,1.04675,
-0.224304,1.0437,
-0.239563,1.0437,
-0.254822,1.04523,
-0.270081,1.0437,
-0.285339,1.05133,
-0.299072,1.04218,
-0.315857,1.04218,
-0.32959,1.04828,
-0.346375,1.04675,
-0.361633,1.04675,
-0.37384,1.04218,
-0.382996,1.03912,
-0.390625,1.0437,
-0.390625,1.04828,
-0.393677,1.0498,
-0.389099,1.04065,
-0.376892,1.04065,
-0.366211,1.04675,
-0.350952,1.04218,
-0.32959,1.04828,
-0.300598,1.04065,
-0.270081,1.04218,
-0.234985,1.04828,
-0.196838,1.0437,
-0.158691,1.04675,
-0.119019,1.04218,
-0.0732422,1.04218,
-0.0289917,1.04675,
0.0183105,1.04675,
0.0640869,1.04675,
0.109863,1.04218,
0.157166,1.03912,
0.201416,1.04523,
0.241089,1.04675,
0.280762,1.04523,
0.318909,1.0437,
0.357056,1.04065,
0.393677,1.0437,
0.419617,1.04675,
0.45166,1.04523,
0.479126,1.0437,
0.502014,1.04065,
0.521851,1.04523,
0.537109,1.04828,
0.55542,1.04523,
0.566101,1.03912,
0.572205,1.0376,
0.58136,1.04828,
0.590515,1.04675,
0.595093,1.04675,
0.598145,1.04523,
0.593567,1.0437,
0.592041,1.04675,
0.590515,1.0437,
0.587463,1.04523,
0.579834,1.04218,
0.57373,1.0437,
0.567627,1.04828,
0.556946,1.04523,
0.544739,1.04675,
0.534058,1.03912,
0.518799,1.03912,
0.505066,1.04828,
0.483704,1.0437,
0.463867,1.04523,
0.448608,1.04065,
0.427246,1.03912,
0.401306,1.04523,
0.37384,1.04523,
0.3479,1.0437,
0.318909,1.04065,
0.291443,1.0376,
0.265503,1.04675,
0.238037,1.0437,
0.209045,1.04218,
0.180054,1.03912,
0.151062,1.03912,
0.115967,1.04523,
0.0854492,1.04675,
0.0549316,1.04828,
0.0259399,1.0437,
-0.00762939,1.0376,
-0.0411987,1.0437,
-0.0762939,1.04828,
-0.108337,1.04523,
-0.140381,1.0437,
-0.170898,1.02692,
-0.205994,1.03912,
-0.236511,1.04675,
-0.271606,1.03912,
-0.302124,1.04218,
-0.332642,1.04523,
-0.363159,1.04828,
-0.396729,1.06049,
-0.42572,1.0437,
-0.457764,1.0376,
-0.491333,1.04065,
-0.518799,1.04675,
-0.552368,1.0437,
-0.582886,1.04523,
-0.610352,1.04065,
-0.640869,1.04218,
-0.672913,1.0437,
-0.704956,1.04218,
-0.737,1.04218,
-0.765991,1.04675,
-0.799561,1.04065,
-0.834656,1.04675,
-0.865173,1.04218,
-0.898743,1.04828,
-0.933838,1.04065,
-0.971985,1.03607,
-1.00555,1.04675,
-1.04065,1.04675,
-1.0788,1.0437,
-1.11694,1.04218,
-1.15509,1.03455,
-1.19171,1.04675,
-1.22986,1.04523,
-1.26648,1.04828,
-1.30615,1.04065,
-1.34735,1.03912,
-1.38397,1.0498,
-1.42059,1.04675,
-1.46179,1.04523,
-1.50299,1.04065,
-1.54114,1.0376,
-1.58539,1.04523,
-1.62659,1.04675,
-1.66779,1.04675,
-1.70593,1.0437,
-1.74103,1.04218,
-1.77765,1.04218,
-1.81732,1.04675,
-1.86005,1.04218,
-1.89819,1.05591,
-1.93329,1.03149,
-1.97144,1.04675,
-2.01263,1.04523,
-2.05383,1.04675,
-2.09198,1.04065,
-2.13623,1.04523,
-2.17285,1.04675,
-2.211,1.04828,
-2.25372,1.04218,
-2.29645,1.04065,
-2.33917,1.04218,
-2.37579,1.04218,
-2.41699,1.04828,
-2.45819,1.04675,
-2.49939,1.04218,
-2.53754,1.0376,
-2.58179,1.04828,
-2.61993,1.04828,
-2.65961,1.04828,
-2.69775,1.04218,
-2.73285,1.04065,
-2.771,1.04675,
-2.80609,1.04828,
-2.83508,1.05133,
-2.87323,1.04523,
-2.90222,1.03912,
-2.93121,1.04828,
-2.9541,1.0498,
-2.97699,1.04675,
-2.99683,1.04523,
-3.01819,1.04218,
-3.03192,1.04828,
-3.04108,1.04828,
-3.04413,1.04675,
-3.05176,1.04523,
-3.04413,1.04218,
-3.03955,1.04828,
-3.03345,1.04675,
-3.01514,1.05133,
-3.00293,1.0437,
-2.98309,1.04218,
-2.96173,1.04675,
-2.93884,1.04828,
-2.9129,1.05286,
-2.89001,1.0437,
-2.86102,1.0437,
-2.83203,1.0498,
-2.80304,1.04828,
-2.77252,1.04675,
-2.73895,1.04065,
-2.70844,1.04218,
-2.67792,1.04828,
-2.65045,1.05286,
-2.61993,1.0498,
-2.59247,1.04523,
-2.56805,1.04523,
-2.54211,1.0498,
-2.5177,1.04675,
-2.49176,1.05133,
-2.47498,1.04675,
-2.45667,1.04675,
-2.43683,1.0498,
-2.42462,1.04675,
-2.41394,1.05133,
-2.40021,1.0437,
-2.3941,1.04675,
-2.38342,1.0498,
-2.37732,1.05286,
-2.37122,1.05133,
-2.36664,1.04828,
-2.35443,1.04065,
-2.35291,1.05438,
-2.34833,1.0437,
-2.34222,1.04828,
-2.34222,1.04828,
-2.34222,1.0437,
-2.34222,1.05133,
-2.34375,1.04828,
-2.34833,1.04828,
-2.35596,1.04828,
-2.35748,1.04218,
-2.36969,1.04828,
-2.38647,1.04828,
-2.39868,1.05133,
-2.41547,1.05133,
-2.43225,1.04523,
-2.45056,1.04828,
-2.46735,1.0498,
-2.48871,1.05286,
-2.50397,1.04675,
-2.52533,1.0437,
-2.54364,1.04675,
-2.565,1.0498,
-2.58484,1.0498,
-2.60773,1.04523,
-2.63062,1.0437,
-2.65045,1.05286,
-2.67334,1.05286,
-2.69318,1.05133,
-2.71301,1.04523,
-2.73132,1.04675,
-2.742,1.04828,
-2.75726,1.0498,
-2.771,1.05133,
-2.7832,1.04828,
-2.79236,1.05133,
-2.80151,1.0498,
-2.81067,1.05133,
-2.81525,1.05438,
-2.82135,1.04523,
-2.82898,1.04675,
-2.83508,1.05133,
-2.84424,1.05286,
-2.84729,1.05438,
-2.85187,1.0498,
-2.85492,1.0437,
-2.85645,1.04828,
-2.86407,1.04828,
-2.86407,1.0498,
-2.87323,1.05743,
-2.87476,1.05591,
-2.87628,1.05133,
-2.87933,1.05133,
-2.88696,1.05591,
-2.89154,1.0498,
-2.89612,1.04675,
-2.90833,1.05133,
-2.91443,1.0498,
-2.92358,1.0437,
-2.93121,1.05133,
-2.94037,1.0498,
-2.95258,1.04828,
-2.96173,1.05591,
-2.96936,1.05286,
-2.97852,1.05286,
-2.99072,1.05286,
-3.00293,1.05133,
-3.01361,1.05438,
-3.02277,1.05133,
-3.04108,1.04828,
-3.04565,1.05133,
-3.06396,1.05438,
-3.07465,1.05743,
-3.08685,1.05438,
-3.10211,1.04828,
-3.11432,1.04828,
-3.12347,1.05133,
-3.14026,1.05591,
-3.15704,1.05591,
-3.17078,1.04828,
-3.18298,1.05133,
-3.20129,1.05286,
-3.21503,1.05286,
-3.22418,1.05743,
-3.24097,1.05133,
-3.25775,1.05133,
-3.27454,1.05133,
-3.29132,1.05438,
-3.30658,1.05896,
-3.32184,1.0498,
-3.33405,1.04675,
-3.35236,1.05286,
-3.37067,1.05438,
-3.3905,1.05591,
-3.41187,1.05133,
-3.42865,1.04675,
-3.44543,1.04828,
-3.46222,1.05438,
-3.48053,1.05133,
-3.49426,1.04828,
-3.51868,1.05133,
-3.53851,1.05133,
-3.5553,1.05438,
-3.57361,1.05133,
-3.58887,1.0498,
-3.60718,1.04828,
-3.62244,1.05133,
-3.63007,1.04828,
-3.65753,1.05743,
-3.67584,1.05133,
-3.6911,1.05286,
-3.70636,1.05133,
-3.72467,1.05286,
-3.74146,1.05286,
-3.75977,1.05133,
-3.7735,1.0498,
-3.79181,1.0498,
-3.80859,1.05743,
-3.82233,1.05591,
-3.83759,1.04675,
-3.85284,1.04828,
-3.86505,1.05286,
-3.87726,1.05743,
-3.88031,1.05286,
-3.88641,1.05133,
-3.88794,1.05133,
-3.88336,1.0498,
-3.87573,1.05286,
-3.86658,1.05591,
-3.8559,1.04828,
-3.83453,1.04828,
-3.80859,1.05286,
-3.78571,1.05286,
-3.75366,1.05438,
-3.72772,1.0498,
-3.69263,1.04828,
-3.65143,1.05286,
-3.61481,1.05591,
-3.58124,1.05743,
-3.53546,1.05133,
-3.49274,1.05286,
-3.44696,1.05133,
-3.39966,1.05591,
-3.34778,1.05591,
-3.30353,1.05133,
-3.25012,1.05133,
-3.20587,1.05591,
-3.15704,1.05743,
-3.11279,1.05438,
-3.07159,1.05133,
-3.02887,1.0498,
-2.98767,1.05133,
-2.948,1.05743,
-2.91138,1.05438,
-2.87476,1.0498,
-2.83966,1.05133,
-2.80762,1.05286,
-2.78015,1.05896,
-2.75421,1.05286,
-2.72827,1.05286,
-2.70081,1.05133,
-2.67487,1.05438,
-2.65656,1.05286,
-2.63519,1.05438,
-2.61078,1.05133,
-2.59399,1.05286,
-2.57416,1.05438,
-2.55585,1.05743,
-2.53448,1.05743,
-2.5238,1.05286,
-2.5116,1.05286,
-2.49634,1.05286,
-2.48718,1.05743,
-2.47345,1.05438,
-2.4704,1.06964,
-2.46277,1.05438,
-2.45361,1.05438,
-2.44904,1.05438,
-2.44598,1.05896,
-2.44293,1.05133,
-2.43835,1.05133,
-2.43988,1.05438,
-2.44751,1.05591,
-2.45056,1.05286,
-2.45514,1.05286,
-2.46124,1.05133,
-2.46277,1.05438,
-2.46429,1.05133,
-2.47192,1.05591,
-2.48108,1.05286,
-2.48871,1.05286,
-2.49786,1.05438,
-2.50549,1.05438,
-2.51465,1.05591,
-2.52838,1.05438,
-2.53906,1.05591,
-2.54822,1.05286,
-2.55585,1.05743,
-2.56805,1.05286,
-2.57721,1.05896,
-2.58179,1.05743,
-2.59094,1.05133,
-2.59247,1.06049,
-2.59705,1.05591,
-2.59857,1.05743,
-2.59705,1.05133,
-2.6001,1.04828,
-2.59857,1.05743,
-2.59857,1.05591,
-2.59705,1.0498,
-2.59247,1.05438,
-2.59247,1.05133,
-2.59552,1.05743,
-2.6001,1.05591,
-2.6001,1.05133,
-2.60162,1.05591,
-2.60162,1.0498,
-2.60162,1.05438,
-2.60315,1.05438,
-2.60468,1.05133,
-2.60773,1.05286,
-2.6123,1.05286,
-2.61688,1.05743,
-2.62756,1.05438,
-2.63519,1.05438,
-2.63977,1.05286,
-2.6413,1.05438,
-2.64893,1.05591,
-2.6535,1.07117,
-2.65961,1.05438,
-2.66876,1.05133,
-2.67944,1.05286,
-2.68707,1.05743,
-2.6947,1.05591,
-2.70386,1.05438,
-2.71759,1.05591,
-2.7298,1.05743,
-2.74048,1.06049,
-2.75421,1.05286,
-2.771,1.05286,
-2.78015,1.05438,
-2.79541,1.05591,
-2.80762,1.05743,
-2.81677,1.05438,
-2.82745,1.05286,
-2.84119,1.0498,
-2.85187,1.05133,
-2.86255,1.05743,
-2.87628,1.06049,
-2.89001,1.05438,
-2.9007,1.05438,
-2.9129,1.05896,
-2.92053,1.06964,
-2.92969,1.0498,
-2.94037,1.05591,
-2.9541,1.05591,
-2.96936,1.05591,
-2.98462,1.06354,
-2.99835,1.05591,
-3.01056,1.05286,
-3.01971,1.05286,
-3.03192,1.05133,
-3.03955,1.05896,
-3.05634,1.05896,
-3.07465,1.05286,
-3.08838,1.05743,
-3.10364,1.05591,
-3.11584,1.05743,
-3.12805,1.05591,
-3.14484,1.05133,
-3.16162,1.05286,
-3.17993,1.0498,
-3.19519,1.06049,
-3.21503,1.05896,
-3.23486,1.05438,
-3.2486,1.05286,
-3.26538,1.05286,
-3.28217,1.06049,
-3.29895,1.05743,
-3.31421,1.05743,
-3.32947,1.05591,
-3.34167,1.05743,
-3.34625,1.05743,
-3.3493,1.05286,
-3.35083,1.05591,
-3.34778,1.05286,
-3.34167,1.05591,
-3.33405,1.05591,
-3.32031,1.05591,
-3.30353,1.05591,
-3.28064,1.05438,
-3.25928,1.05133,
-3.23029,1.06049,
-3.20282,1.05743,
-3.17383,1.07574,
-3.14026,1.05438,
-3.10516,1.05133,
-3.06854,1.06354,
-3.02277,1.05743,
-2.98309,1.05438,
-2.93732,1.05438,
-2.89764,1.05591,
-2.85645,1.06049,
-2.81372,1.05896,
-2.77557,1.05438,
-2.73285,1.05743,
-2.6947,1.05286,
-2.65961,1.05896,
-2.62146,1.05743,
-2.58942,1.05743,
-2.55737,1.05743,
-2.5238,1.05591,
-2.49786,1.06049,
-2.46887,1.05591,
-2.44446,1.05438,
-2.42157,1.05591,
-2.40326,1.05591,
-2.38647,1.05438,
-2.36969,1.05438,
-2.35748,1.05591,
-2.34528,1.05133,
-2.33002,1.05743,
-2.32086,1.06354,
-2.31323,1.05591,
-2.30255,1.05896,
-2.29492,1.06049,
-2.29187,1.05743,
-2.29187,1.06354,
-2.28729,1.05591,
-2.28424,1.05591,
-2.28424,1.05286,
-2.28729,1.05438,
-2.2934,1.07727,
-2.2934,1.06049,
-2.29492,1.05743,
-2.2995,1.05438,
-2.30255,1.05286,
-2.3056,1.05743,
-2.31476,1.05896,
-2.32239,1.05743,
-2.33307,1.05591,
-2.3407,1.05591,
-2.34985,1.06049,
-2.36511,1.05591,
-2.37885,1.05133,
-2.388,1.05438,
-2.3941,1.05591,
-2.40631,1.06354,
-2.41394,1.05743,
-2.42615,1.05286,
-2.43073,1.05438,
-2.43988,1.05438,
-2.44598,1.05896,
-2.45514,1.05743,
-2.46124,1.05438,
-2.46582,1.05591,
-2.47192,1.05286,
-2.47955,1.05591,
-2.48413,1.05896,
-2.49176,1.05591,
-2.49939,1.05286,
-2.50397,1.05896,
-2.50702,1.06049,
-2.50854,1.05286,
-2.51465,1.05133,
-2.51465,1.05286,
-2.5177,1.05743,
-2.5238,1.06049,
-2.52686,1.0498,
-2.52991,1.05591,
-2.53448,1.05286,
-2.53601,1.05591,
-2.53906,1.06354,
-2.54669,1.05438,
-2.54974,1.06354,
-2.55127,1.0498,
-2.56195,1.05743,
-2.56958,1.05896,
-2.57568,1.05896,
-2.58484,1.05743,
-2.59705,1.05591,
-2.60925,1.05438,
-2.61688,1.05896,
-2.63214,1.05896,
-2.64282,1.05743,
-2.65656,1.05438,
-2.66876,1.05591,
-2.67792,1.06049,
-2.69165,1.05743,
-2.70233,1.05438,
-2.71301,1.05591,
-2.72827,1.05286,
-2.742,1.06506,
-2.75726,1.05896,
-2.76947,1.05438,
-2.7832,1.05591,
-2.79999,1.0498,
-2.81677,1.05743,
-2.83508,1.06049,
-2.85187,1.05438,
-2.86713,1.05896,
-2.88239,1.05438,
-2.89917,1.05286,
-2.91901,1.05743,
-2.94037,1.05591,
-2.96478,1.05591,
-2.98157,1.05896,
-2.99683,1.05896,
-3.01514,1.06049,
-3.03497,1.05743,
-3.05176,1.0498,
-3.06854,1.05438,
-3.08075,1.05896,
-3.09753,1.06354,
-3.11432,1.05591,
-3.12653,1.05438,
-3.14331,1.05743,
-3.15857,1.05896,
-3.17078,1.05743,
-3.18604,1.05743,
-3.20892,1.05286,
-3.22266,1.05743,
-3.23792,1.05896,
-3.25623,1.06354,
-3.27454,1.05896,
-3.28369,1.05743,
-3.2959,1.05743,
-3.30811,1.05743,
-3.31726,1.06049,
-3.32184,1.05743,
-3.33099,1.05743,
-3.32794,1.05591,
-3.32642,1.06354,
-3.32184,1.06049,
-3.31268,1.05438,
-3.29742,1.05591,
-3.28369,1.05591,
-3.26843,1.06049,
-3.24249,1.05743,
-3.21655,1.05591,
-3.18604,1.05591,
-3.15094,1.05438,
-3.11584,1.05438,
-3.08075,1.05896,
-3.03955,1.05743,
-2.99377,1.05743,
-2.95258,1.05591,
-2.9068,1.05743,
-2.86407,1.06049,
-2.81525,1.05591,
-2.771,1.07269,
-2.72675,1.05743,
-2.67487,1.06049,
-2.63672,1.05896,
-2.59399,1.05743,
-2.55585,1.05591,
-2.51617,1.05591,
-2.47192,1.05896,
-2.4353,1.05743,
-2.39563,1.05591,
-2.36206,1.05286,
-2.32697,1.05896,
-2.30103,1.06354,
-2.2644,1.05591,
-2.23083,1.05743,
-2.20642,1.05591,
-2.17743,1.05286,
-2.15149,1.05896,
-2.13318,1.06049,
-2.11029,1.06049,
-2.09198,1.05591,
-2.06757,1.05743,
-2.04773,1.06354,
-2.02789,1.05896,
-2.00806,1.05591,
-1.99127,1.05591,
-1.97449,1.05591,
-1.95923,1.06506,
-1.95007,1.05896,
-1.93787,1.05286,
-1.93176,1.05591,
-1.92413,1.05286,
-1.91956,1.05896,
-1.90887,1.05896,
-1.9043,1.05743,
-1.89819,1.05743,
-1.89819,1.05438,
-1.89819,1.06964,
-1.9043,1.06812,
-1.90277,1.05286,
-1.91193,1.05286,
-1.9165,1.05591,
-1.92261,1.06354,
-1.93176,1.06506,
-1.94244,1.05591,
-1.94702,1.05591,
-1.95618,1.04523,
-1.97144,1.06659,
-1.97906,1.05896,
-1.98822,1.05896,
-1.9989,1.05591,
-2.00348,1.05896,
-2.01263,1.06506,
-2.02026,1.05743,
-2.02484,1.06354,
-2.03247,1.05743,
-2.03857,1.05438,
-2.04773,1.06506,
-2.05536,1.06049,
-2.06757,1.05743,
-2.0752,1.05743,
-2.07977,1.05133,
-2.08893,1.06354,
-2.09351,1.06354,
-2.09656,1.05438,
-2.10114,1.05591,
-2.10266,1.05438,
-2.11029,1.06506,
-2.11487,1.05743,
-2.11792,1.05591,
-2.12402,1.05286,
-2.13013,1.05591,
-2.13928,1.06506,
-2.14386,1.06354,
-2.14691,1.05591,
-2.15454,1.05743,
-2.16522,1.05286,
-2.17438,1.05896,
-2.18048,1.05896,
-2.18658,1.05438,
-2.19879,1.05591,
-2.20337,1.05743,
-2.20947,1.06659,
-2.22168,1.05896,
-2.22931,1.05896,
-2.23846,1.05286,
-2.24304,1.05896,
-2.25372,1.05896,
-2.25983,1.06506,
-2.27509,1.05286,
-2.28271,1.05438,
-2.2934,1.05743,
-2.31171,1.05896,
-2.32239,1.06049,
-2.33459,1.05591,
-2.34528,1.05438,
-2.36206,1.05743,
-2.37427,1.06049,
-2.38037,1.06049,
-2.3941,1.05591,
-2.40631,1.05743,
-2.42157,1.05591,
-2.4353,1.06049,
-2.44446,1.05896,
-2.46124,1.05743,
-2.47803,1.05438,
-2.48566,1.04218,
-2.50092,1.06049,
-2.51312,1.06049,
-2.52838,1.05438,
-2.53601,1.05438,
-2.54974,1.05743,
-2.565,1.06812,
-2.57263,1.06506,
-2.58636,1.06659,
-2.60162,1.05591,
-2.61536,1.05743,
-2.63062,1.05896,
-2.64587,1.06354,
-2.65656,1.05286,
-2.67029,1.05743,
-2.68707,1.05591,
-2.70386,1.05896,
-2.72217,1.05743,
-2.73285,1.0498,
-2.74811,1.05286,
-2.75879,1.05591,
-2.77405,1.05896,
-2.79083,1.06049,
-2.80609,1.05438,
-2.82288,1.05438,
-2.83661,1.05591,
-2.85034,1.06049,
-2.86865,1.06659,
-2.88086,1.05438,
-2.89612,1.05286,
-2.90833,1.05743,
-2.91443,1.05896,
-2.92053,1.05896,
-2.92053,1.05896,
-2.92511,1.05896,
-2.92358,1.05896,
-2.91443,1.06506,
-2.90375,1.06049,
-2.88239,1.05591,
-2.8656,1.05286,
-2.84119,1.05743,
-2.81219,1.05743,
-2.78015,1.06049,
-2.74506,1.06354,
-2.70844,1.05438,
-2.66724,1.05438,
-2.62604,1.05896,
-2.58331,1.06506,
-2.54059,1.05438,
-2.49786,1.07422,
-2.45361,1.05438,
-2.40479,1.06049,
-2.36206,1.05896,
-2.31323,1.05896,
-2.26593,1.05438,
-2.22015,1.05743,
-2.17896,1.06659,
-2.13623,1.06812,
-2.09656,1.05896,
-2.05231,1.06049,
-2.00958,1.05896,
-1.97144,1.05896,
-1.94092,1.05896,
-1.90582,1.05896,
-1.87073,1.05743,
-1.83868,1.05591,
-1.80664,1.06506,
-1.78223,1.06659,
-1.75171,1.05743,
-1.73035,1.05438,
-1.70441,1.05896,
-1.67694,1.06354,
-1.6571,1.06659,
-1.63574,1.05896,
-1.61285,1.05438,
-1.59149,1.05896,
-1.5686,1.06049,
-1.54877,1.06659,
-1.53046,1.05743,
-1.51062,1.05743,
-1.49689,1.04675,
-1.48163,1.06506,
-1.46637,1.06049,
-1.45264,1.05286,
-1.44348,1.05743,
-1.43127,1.05743,
-1.42059,1.05896,
-1.40839,1.0788,
-1.40381,1.05896,
-1.39771,1.05896,
-1.39465,1.05591,
-1.3916,1.06659,
-1.39008,1.06506,
-1.3916,1.05438,
-1.39465,1.05286,
-1.40076,1.05286,
-1.40381,1.06506,
-1.40533,1.06049,
-1.40686,1.05438,
-1.41754,1.05591,
-1.42212,1.05438,
-1.43127,1.06049,
-1.4389,1.06506,
-1.45264,1.05743,
-1.46027,1.05743,
-1.4679,1.0498,
-1.48315,1.05743,
-1.49231,1.06506,
-1.49689,1.05438,
-1.50452,1.05438,
-1.51215,1.05591,
-1.52283,1.06354,
-1.53046,1.07269,
-1.53961,1.05743,
-1.55182,1.0498,
-1.55792,1.05438,
-1.56555,1.06049,
-1.57166,1.06049,
-1.57928,1.05438,
-1.58386,1.05438,
-1.59302,1.05896,
-1.60217,1.0498,
-1.60828,1.05743,
-1.61896,1.05743,
-1.62506,1.05438,
-1.63269,1.05743,
-1.63879,1.05743,
-1.64642,1.05438,
-1.6571,1.07422,
-1.66473,1.05896,
-1.67389,1.05438,
-1.68304,1.05743,
-1.68915,1.06049,
-1.70135,1.05591,
-1.70746,1.05438,
-1.71356,1.05591,
-1.72424,1.05896,
-1.7334,1.06049,
-1.74408,1.05438,
-1.75629,1.05591,
-1.76849,1.05743,
-1.77612,1.05896,
-1.79138,1.06049,
-1.80206,1.05896,
-1.81885,1.05438,
-1.828,1.05743,
-1.84021,1.05743,
-1.85089,1.06049,
-1.86768,1.06049,
-1.88141,1.04828,
-1.89514,1.05743,
-1.90735,1.05591,
-1.92261,1.06354,
-1.9455,1.05591,
-1.96381,1.05286,
-1.97754,1.05743,
-1.99585,1.06049,
-2.01569,1.06354,
-2.034,1.05438,
-2.05231,1.05286,
-2.06909,1.05896,
-2.08893,1.05896,
-2.10419,1.06049,
-2.12097,1.05286,
-2.13776,1.06354,
-2.15149,1.05591,
-2.17133,1.05743,
-2.18658,1.06049,
-2.211,1.05591,
-2.22321,1.05286,
-2.23999,1.05286,
-2.2522,1.06049,
-2.27509,1.06354,
-2.2934,1.05591,
-2.31323,1.05591,
-2.32544,1.05438,
-2.34528,1.05896,
-2.36359,1.05743,
-2.38037,1.05438,
-2.39563,1.05438,
-2.41394,1.05591,
-2.43225,1.06049,
-2.44751,1.05896,
-2.46124,1.05286,
-2.48108,1.05438,
-2.49634,1.05438,
-2.51312,1.06049,
-2.52991,1.06354,
-2.54669,1.04218,
-2.56653,1.05438,
-2.58636,1.05591,
-2.60315,1.06049,
-2.61688,1.06049,
-2.63519,1.05896,
-2.65198,1.05438,
-2.67029,1.06049,
-2.68402,1.06354,
-2.6947,1.06049,
-2.70233,1.05743,
-2.71301,1.05438,
-2.72522,1.0498,
-2.73438,1.06049,
-2.7359,1.06049,
-2.73895,1.07269,
-2.73895,1.05438,
-2.73438,1.05743,
-2.72217,1.05743,
-2.70691,1.05896,
-2.68707,1.05286,
-2.66418,1.05438,
-2.63977,1.05591,
-2.6123,1.06049,
-2.58484,1.06049,
-2.54974,1.05591,
-2.51617,1.05438,
-2.47803,1.05591,
-2.44293,1.06049,
-2.39868,1.06049,
-2.36359,1.05896,
-2.32086,1.05286,
-2.27966,1.05743,
-2.23083,1.05743,
-2.19116,1.06354,
-2.14539,1.05133,
-2.10266,1.05743,
-2.05994,1.0498,
-2.01721,1.06354,
-1.98212,1.06049,
-1.9455,1.05591,
-1.90582,1.05591,
-1.8692,1.05286,
-1.83411,1.05743,
-1.80206,1.06049,
-1.7746,1.05896,
-1.74408,1.05743,
-1.72119,1.05743,
-1.69067,1.05896,
-1.66779,1.06354,
-1.64185,1.05438,
-1.62354,1.04523,
-1.60217,1.05438,
-1.58386,1.05896,
-1.56403,1.06506,
-1.55182,1.05286,
-1.53503,1.05591,
-1.51978,1.05438,
-1.50909,1.05743,
-1.49841,1.05896,
-1.48773,1.05591,
-1.48315,1.05286,
-1.47552,1.05438,
-1.47247,1.05591,
-1.46332,1.05896,
-1.46179,1.05896,
-1.45721,1.05286,
-1.45416,1.05591,
-1.45264,1.05743,
-1.45416,1.06049,
-1.45416,1.05743,
-1.45569,1.05591,
-1.45569,1.05133,
-1.45569,1.06049,
-1.45569,1.05896,
-1.45569,1.05896,
-1.46027,1.05591,
-1.46484,1.05438,
-1.4679,1.05896,
-1.47247,1.05896,
-1.48468,1.05438,
-1.49231,1.05743,
-1.49841,1.05438,
-1.50757,1.06506,
-1.51978,1.05743,
-1.52893,1.05438,
-1.53656,1.05591,
-1.54572,1.05133,
-1.5625,1.06049,
-1.57013,1.06354,
-1.58081,1.05743,
-1.59149,1.05591,
-1.60522,1.05743,
-1.61438,1.06049,
-1.62964,1.06506,
-1.63879,1.05743,
-1.64642,1.05133,
-1.66016,1.05438,
-1.66626,1.05896,
-1.67694,1.06659,
-1.68762,1.05591,
-1.6922,1.05438,
-1.70135,1.05591,
-1.71204,1.06506,
-1.72119,1.05896,
-1.72882,1.05133,
-1.73645,1.05438,
-1.74866,1.05896,
-1.75934,1.06049,
-1.77155,1.06354,
-1.78375,1.05286,
-1.79291,1.05286,
-1.80054,1.05438,
-1.80969,1.06049,
-1.82495,1.06354,
-1.83563,1.06049,
-1.84479,1.05438,
-1.85547,1.05591,
-1.87073,1.05743,
-1.88293,1.06354,
-1.89362,1.05591,
-1.90277,1.05591,
-1.91803,1.05591,
-1.93481,1.06354,
-1.9455,1.05896,
-1.9577,1.05743,
-1.97449,1.05438,
-1.98975,1.05743,
-2.00348,1.06049,
-2.01874,1.06049,
-2.03552,1.06506,
-2.05078,1.05286,
-2.06604,1.04675,
-2.0874,1.05743,
-2.11029,1.06049,
-2.12555,1.05438,
-2.14539,1.05286,
-2.16217,1.05438,
-2.18201,1.05591,
-2.19727,1.07269,
-2.22015,1.06354,
-2.23846,1.05438,
-2.25983,1.05591,
-2.27814,1.05591,
-2.29797,1.06354,
-2.31171,1.05896,
-2.33154,1.05743,
-2.34528,1.0498,
-2.36511,1.06354,
-2.38342,1.05896,
-2.39716,1.05591,
-2.41547,1.05438,
-2.43073,1.05743,
-2.45209,1.06049,
-2.46582,1.05896,
-2.48413,1.05896,
-2.49939,1.05286,
-2.51923,1.05896,
-2.53448,1.06049,
-2.5528,1.06506,
-2.56958,1.05743,
-2.59094,1.05133,
-2.60925,1.05438,
-2.62909,1.05896,
-2.64587,1.06354,
-2.67029,1.05743,
-2.68707,1.05438,
-2.70691,1.05591,
-2.72217,1.06506,
-2.742,1.06354,
-2.76031,1.05743,
-2.77405,1.05438,
-2.79236,1.05591,
-2.80304,1.05591,
-2.82135,1.06049,
-2.83661,1.05591,
-2.85645,1.05743,
-2.86865,1.05896,
-2.88696,1.05743,
-2.90375,1.06506,
-2.92664,1.05743,
-2.94952,1.05591,
-2.97089,1.05896,
-2.99072,1.05896,
-3.01056,1.06354,
-3.0304,1.05743,
-3.04565,1.05743,
-3.06702,1.05438,
-3.08533,1.06354,
-3.10669,1.06659,
-3.12042,1.06506,
-3.14026,1.05896,
-3.1601,1.05743,
-3.17383,1.05896,
-3.19061,1.06659,
-3.20435,1.06354,
-3.21808,1.05591,
-3.22876,1.05896,
-3.23944,1.05896,
-3.24249,1.06506,
-3.2486,1.05896,
-3.24554,1.05438,
-3.24402,1.05591,
-3.23944,1.06354,
-3.22876,1.06659,
-3.21655,1.05896,
-3.19977,1.05743,
-3.18298,1.05743,
-3.15857,1.06354,
-3.1311,1.06506,
-3.10516,1.05438,
-3.07312,1.05743,
-3.03802,1.05896,
-3.00598,1.06049,
-2.96936,1.06659,
-2.93121,1.06506,
-2.89459,1.05743,
-2.85797,1.06354,
-2.82135,1.05896,
-2.77863,1.06049,
-2.74658,1.06354,
-2.70996,1.06049,
-2.67334,1.05896,
-2.63824,1.05743,
-2.59857,1.06659,
-2.56653,1.06049,
-2.52838,1.05438,
-2.49939,1.06049,
-2.46582,1.06354,
-2.43378,1.06812,
-2.40479,1.06354,
-2.38342,1.05591,
-2.35748,1.08032,
-2.33459,1.06354,
-2.31628,1.06506,
-2.2934,1.05896,
-2.27509,1.05591,
-2.25983,1.06506,
-2.24762,1.06049,
-2.23694,1.06812,
-2.22473,1.07574,
-2.21558,1.05286,
-2.2049,1.05896,
-2.19727,1.06049,
-2.18658,1.06354,
-2.18201,1.06659,
-2.1698,1.05591,
-2.1637,1.05743,
-2.15759,1.06049,
-2.15607,1.06354,
-2.15149,1.05896,
-2.14844,1.05591,
-2.15149,1.05896,
-2.14996,1.06659,
-2.14996,1.06506,
-2.15454,1.0498,
-2.15607,1.05743,
-2.15759,1.05896,
-2.16064,1.06506,
-2.17133,1.07117,
-2.17743,1.06049,
-2.18048,1.05896,
-2.19116,1.05896,
-2.19879,1.06354,
-2.2049,1.06506,
-2.21558,1.06506,
-2.22321,1.06049,
-2.23083,1.05743,
-2.24152,1.06354,
-2.24609,1.0788,
-2.25067,1.05743,
-2.2583,1.06354,
-2.26746,1.06049,
-2.27661,1.06354,
-2.28119,1.06506,
-2.28882,1.06049,
-2.2934,1.05896,
-2.29645,1.06354,
-2.3056,1.06049,
-2.31476,1.06659,
-2.32239,1.05743,
-2.32697,1.05743,
-2.33154,1.06049,
-2.33612,1.06354,
-2.34833,1.06506,
-2.35596,1.05743,
-2.36359,1.05896,
-2.37122,1.06354,
-2.37885,1.06659,
-2.388,1.06506,
-2.39716,1.06354,
-2.40326,1.05743,
-2.41089,1.05743,
-2.41699,1.06506,
-2.43225,1.06659,
-2.44598,1.06049,
-2.45056,1.05743,
-2.46429,1.06354,
-2.47192,1.06659,
-2.48413,1.06812,
-2.49176,1.06506,
-2.50702,1.06049,
-2.52075,1.06049,
-2.52991,1.05591,
-2.54669,1.06354,
-2.55737,1.06354,
-2.57111,1.06049,
-2.58331,1.05896,
-2.59399,1.06506,
-2.60773,1.05286,
-2.62451,1.0849,
-2.63367,1.06506,
-2.6535,1.06354,
-2.66724,1.06354,
-2.68402,1.06812,
-2.70386,1.05591,
-2.72217,1.05743,
-2.74048,1.06354,
-2.75574,1.06659,
-2.77252,1.06812,
-2.79083,1.06354,
-2.80762,1.05743,
-2.8244,1.05896,
-2.84119,1.07117,
-2.86407,1.06659,
-2.88086,1.06506,
-2.90527,1.05896,
-2.91901,1.06506,
-2.93732,1.07269,
-2.95105,1.06506,
-2.97241,1.06659,
-2.98767,1.06049,
-3.00598,1.06812,
-3.01971,1.05591,
-3.0365,1.06659,
-3.05634,1.06659,
-3.07312,1.05743,
-3.0899,1.06506,
-3.10364,1.06506,
-3.125,1.06812,
-3.14178,1.06049,
-3.1601,1.0498,
-3.17841,1.05896,
-3.19214,1.06506,
-3.20435,1.06659,
-3.2196,1.06506,
-3.23944,1.06049,
-3.25012,1.06659,
-3.26538,1.06812,
-3.27759,1.06659,
-3.29132,1.06506,
-3.30811,1.05743,
-3.32336,1.06506,
-3.3371,1.06659,
-3.35236,1.06812,
-3.36761,1.06659,
-3.3844,1.06659,
-3.40118,1.06506,
-3.41492,1.06659,
-3.4256,1.06659,
-3.43628,1.06659,
-3.45001,1.06049,
-3.45917,1.06659,
-3.47443,1.06812,
-3.48816,1.07117,
-3.49884,1.06812,
-3.50952,1.06049,
-3.52325,1.06812,
-3.53546,1.05743,
-3.54919,1.08643,
-3.56293,1.06659,
-3.57971,1.05896,
-3.5965,1.06812,
-3.6087,1.06964,
-3.62549,1.06506,
-3.64227,1.06812,
-3.66058,1.06354,
-3.67737,1.0849,
-3.6972,1.06506,
-3.70941,1.07117,
-3.72467,1.06659,
-3.73535,1.06049,
-3.74603,1.06659,
-3.75977,1.07117,
-3.77197,1.06812,
-3.77045,1.06506,
-3.77808,1.06354,
-3.77502,1.06506,
-3.7735,1.07117,
-3.76434,1.06659,
-3.75366,1.06506,
-3.74298,1.06506,
-3.72314,1.07117,
-3.70178,1.06964,
-3.68347,1.06659,
-3.65143,1.06506,
-3.62549,1.06506,
-3.59344,1.06506,
-3.55988,1.07269,
-3.52936,1.06659,
-3.49884,1.06506,
-3.46222,1.06659,
-3.42712,1.06812,
-3.39508,1.07117,
-3.36151,1.07269,
-3.32642,1.06659,
-3.29132,1.06354,
-3.25775,1.06659,
-3.23029,1.07117,
-3.20129,1.07117,
-3.17535,1.06964,
-3.15094,1.06354,
-3.12347,1.07269,
-3.09753,1.07117,
-3.07617,1.07117,
-3.05176,1.06964,
-3.0304,1.06354,
-3.00751,1.06812,
-2.98767,1.07422,
-2.97699,1.07117,
-2.95868,1.06659,
-2.94495,1.06354,
-2.93274,1.06964,
-2.92053,1.07117,
-2.9129,1.06964,
-2.9007,1.06964,
-2.89917,1.06659,
-2.89307,1.06506,
-2.88391,1.07269,
-2.88696,1.07269,
-2.88086,1.06964,
-2.87781,1.06506,
-2.87476,1.06812,
-2.8717,1.07269,
-2.86865,1.06964,
-2.86713,1.06964,
-2.86407,1.06506,
-2.86407,1.06964,
-2.86407,1.07269,
-2.8656,1.06964,
-2.86255,1.06812,
-2.86407,1.05591,
-2.86865,1.06964,
-2.87476,1.06964,
-2.88086,1.06812,
-2.89001,1.07269,
-2.89459,1.06659,
-2.9007,1.06812,
-2.90833,1.07117,
-2.92053,1.06964,
-2.92816,1.06964,
-2.93427,1.06506,
-2.94189,1.06964,
-2.94952,1.07269,
-2.95563,1.06964,
-2.96326,1.06506,
-2.97394,1.08185,
-2.97699,1.06964,
-2.98157,1.06964,
-2.98767,1.07269,
-2.99377,1.06964,
-2.99988,1.06506,
-3.00293,1.07117,
-3.00751,1.07269,
-3.01056,1.06964,
-3.01208,1.07117,
-3.01208,1.06659,
-3.01819,1.07117,
-3.01819,1.07117,
-3.01971,1.07269,
-3.02277,1.07422,
-3.02887,1.06812,
-3.0304,1.06812,
-3.03192,1.07269,
-3.0365,1.07117,
-3.03497,1.06812,
-3.03802,1.06812,
-3.03955,1.06964,
-3.04413,1.06812,
-3.04871,1.07117,
-3.05481,1.06812,
-3.05634,1.06506,
-3.05786,1.07269,
-3.06396,1.07269,
-3.07007,1.07422,
-3.07465,1.07269,
-3.08075,1.07117,
-3.08685,1.06812,
-3.09601,1.07269,
-3.10516,1.07269,
-3.11279,1.06812,
-3.125,1.06964,
-3.13721,1.07269,
-3.14941,1.07727,
-3.16467,1.07422,
-3.17841,1.06659,
-3.19214,1.06659,
-3.20282,1.07117,
-3.2196,1.07117,
-3.23944,1.07422,
-3.25165,1.06964,
-3.26385,1.06659,
-3.27606,1.08643,
-3.28979,1.07422,
-3.302,1.07727,
-3.31268,1.07117,
-3.32336,1.06812,
-3.33405,1.07117,
-3.34778,1.07269,
-3.35846,1.07117,
-3.36609,1.06354,
-3.37982,1.06812,
-3.3905,1.07269,
-3.40576,1.07422,
-3.41492,1.07422,
-3.4256,1.07574,
-3.43933,1.06812,
-3.45612,1.06812,
-3.46832,1.07422,
-3.48358,1.07422,
-3.49884,1.07117,
-3.51257,1.07117,
-3.52783,1.06812,
-3.54614,1.07574,
-3.56293,1.07574,
-3.58276,1.06812,
-3.59802,1.06506,
-3.61328,1.07117,
-3.62396,1.07727,
-3.63922,1.07422,
-3.65143,1.07117,
-3.66669,1.07574,
-3.68195,1.07269,
-3.69415,1.06964,
-3.70636,1.07727,
-3.72314,1.07269,
-3.7384,1.06812,
-3.75061,1.06659,
-3.76434,1.07269,
-3.78113,1.07422,
-3.79181,1.07269,
-3.79639,1.06354,
-3.82538,1.07117,
-3.83759,1.07422,
-3.8559,1.07574,
-3.85437,1.06354,
-3.88336,1.06812,
-3.89709,1.07269,
-3.91541,1.07574,
-3.92761,1.07574,
-3.93829,1.07422,
-3.9444,1.06659,
-3.9505,1.06506,
-3.9505,1.07727,
-3.9505,1.07117,
-3.94287,1.07574,
-3.93677,1.06964,
-3.92761,1.06506,
-3.91235,1.091,
-3.90015,1.07422,
-3.88184,1.07574,
-3.8559,1.06812,
-3.83301,1.07117,
-3.80249,1.07574,
-3.77808,1.07574,
-3.74603,1.07574,
-3.71704,1.08948,
-3.68347,1.06964,
-3.65143,1.0788,
-3.61938,1.07269,
-3.58887,1.07269,
-3.5553,1.06964,
-3.52173,1.06812,
-3.49274,1.07422,
-3.45764,1.08032,
-3.43018,1.07269,
-3.40118,1.07422,
-3.37219,1.06964,
-3.34625,1.0788,
-3.31726,1.07727,
-3.29132,1.07117,
-3.26996,1.07117,
-3.24707,1.07117,
-3.22266,1.07269,
-3.20129,1.07727,
-3.18604,1.06812,
-3.16925,1.06964,
-3.14789,1.06964,
-3.13263,1.07574,
-3.1189,1.07574,
-3.10516,1.07727,
-3.09601,1.06964,
-3.0838,1.07117,
-3.07465,1.0788,
-3.07159,1.07422,
-3.06244,1.07117,
-3.05939,1.07117,
-3.05481,1.07574,
-3.05481,1.07422,
-3.05328,1.07117,
-3.05328,1.07269,
-3.05786,1.06964,
-3.05481,1.07269,
-3.05481,1.07574,
-3.05634,1.07727,
-3.05939,1.07269,
-3.06549,1.06812,
-3.06702,1.06659,
-3.07312,1.07574,
-3.07922,1.07727,
-3.08533,1.07117,
-3.09296,1.07269,
-3.10059,1.07117,
-3.11127,1.07727,
-3.11584,1.0788,
-3.12653,1.07422,
-3.12805,1.07117,
-3.13568,1.07117,
-3.14636,1.07574,
-3.15247,1.07727,
-3.15857,1.07574,
-3.16772,1.07117,
-3.17688,1.07727,
-3.18298,1.07727,
-3.19061,1.08032,
-3.19672,1.07117,
-3.20587,1.06354,
-3.21503,1.07422,
-3.21808,1.07422,
-3.22113,1.0788,
-3.22571,1.07574,
-3.23029,1.07117,
-3.23334,1.07269,
-3.23944,1.07574,
-3.24249,1.07269,
-3.24707,1.07574,
-3.24402,1.07574,
-3.25165,1.07422,
-3.25775,1.07727,
-3.25928,1.07727,
-3.2608,1.07422,
-3.26538,1.07269,
-3.26385,1.06964,
-3.26996,1.07422,
-3.27301,1.0788,
-3.27759,1.07574,
-3.28369,1.07269,
-3.28827,1.07269,
-3.29132,1.08032,
-3.29742,1.07422,
-3.30811,1.0788,
-3.31116,1.07117,
-3.32031,1.07117,
-3.32336,1.07727,
-3.33099,1.07727,
-3.34015,1.07269,
-3.35236,1.07117,
-3.36456,1.07422,
-3.3783,1.0788,
-3.3905,1.07574,
-3.39966,1.07269,
-3.41339,1.07117,
-3.42865,1.07117,
-3.43933,1.07574,
-3.45001,1.0788,
-3.46069,1.07574,
-3.47595,1.07269,
-3.48511,1.07422,
-3.49426,1.07727,
-3.50342,1.08032,
-3.5141,1.07422,
-3.52325,1.06964,
-3.53394,1.07574,
-3.54614,1.0788,
-3.55988,1.08185,
-3.57056,1.07727,
-3.58429,1.07269,
-3.59802,1.07574,
-3.61481,1.0788,
-3.62244,1.07727,
-3.6377,1.07574,
-3.64838,1.07269,
-3.65753,1.0788,
-3.66821,1.0788,
-3.68347,1.07574,
-3.69873,1.07422,
-3.71246,1.07574,
-3.72772,1.07422,
-3.74298,1.07574,
-3.75671,1.07727,
-3.7674,1.07574,
-3.78418,1.07269,
-3.79486,1.06964,
-3.81012,1.07574,
-3.82385,1.0788,
-3.83911,1.07422,
-3.84674,1.08795,
-3.86353,1.07117,
-3.87421,1.0788,
-3.88336,1.0788,
-3.89709,1.07422,
-3.9093,1.07269,
-3.92151,1.0788,
-3.93372,1.07574,
-3.9444,1.07727,
-3.96423,1.07117,
-3.98102,1.07422,
-3.98712,1.07422,
-4.00085,1.07574,
-4.01459,1.0788,
-4.02679,1.08032,
-4.04053,1.0788,
-4.04968,1.07422,
-4.06189,1.07117,
-4.0741,1.07727,
-4.08173,1.07269,
-4.08783,1.07422,
-4.08783,1.07574,
-4.08783,1.07727,
-4.08478,1.07727,
-4.07867,1.07727,
-4.07104,1.07117,
-4.05579,1.07574,
-4.04358,1.0788,
-4.02374,1.07727,
-4.00238,1.07574,
-3.97644,1.07574,
-3.95203,1.07574,
-3.92151,1.07727,
-3.88947,1.07422,
-3.86047,1.07574,
-3.82385,1.07727,
-3.79028,1.07422,
-3.75519,1.0788,
-3.71704,1.08185,
-3.67737,1.07727,
-3.64075,1.07727,
-3.60413,1.07422,
-3.5675,1.0788,
-3.52936,1.08032,
-3.49121,1.07727,
-3.45612,1.07574,
-3.41949,1.0788,
-3.38898,1.0788,
-3.35846,1.07727,
-3.32642,1.07269,
-3.302,1.07574,
-3.27911,1.07422,
-3.25165,1.07727,
-3.22571,1.07727,
-3.20892,1.07727,
-3.18909,1.07727,
-3.16772,1.0788,
-3.14941,1.07574,
-3.13416,1.0788,
-3.11432,1.07574,
-3.10211,1.07574,
-3.08533,1.07422,
-3.07007,1.07574,
-3.05634,1.08032,
-3.04565,1.07574,
-3.0365,1.07422,
-3.02734,1.07727,
-3.01666,1.08337,
-3.00598,1.08185,
-3.0014,1.07422,
-2.9892,1.07574,
-2.98615,1.07574,
-2.97699,1.07574,
-2.97546,1.07269,
-2.96631,1.07574,
-2.96021,1.07574,
-2.95563,1.08185,
-2.948,1.07727,
-2.948,1.0788,
-2.94647,1.07422,
-2.94495,1.07422,
-2.93884,1.07574,
-2.93732,1.07727,
-2.94037,1.0788,
-2.93884,1.07574,
-2.94037,1.07117,
-2.94189,1.07574,
-2.94647,1.0788,
-2.94647,1.08185,
-2.948,1.07574,
-2.94952,1.07727,
-2.95258,1.07727,
-2.95868,1.08032,
-2.95868,1.0788,
-2.96326,1.07574,
-2.96478,1.07117,
-2.97241,1.0788,
-2.97852,1.0788,
-2.98157,1.08032,
-2.98157,1.07422,
-2.98309,1.07727,
-2.98767,1.07574,
-2.98767,1.07574,
-2.98767,1.08032,
-2.99072,1.07574,
-2.99377,1.08032,
-2.99988,1.07727,
-3.00293,1.0788,
-3.00598,1.08337,
-3.01208,1.07422,
-3.01361,1.07422,
-3.01819,1.07117,
-3.02124,1.08032,
-3.02429,1.08185,
-3.03192,1.07727,
-3.03192,1.07422,
-3.03345,1.08032,
-3.0365,1.08948,
-3.04108,1.0788,
-3.04718,1.07422,
-3.05634,1.07269,
-3.06396,1.07574,
-3.06854,1.07727,
-3.07465,1.08032,
-3.08228,1.0788,
-3.08838,1.07422,
-3.09296,1.07574,
-3.10211,1.0788,
-3.10822,1.08185,
-3.1189,1.07727,
-3.12347,1.07422,
-3.13263,1.07727,
-3.13873,1.08185,
-3.14636,1.08185,
-3.15094,1.07422,
-3.15399,1.07727,
-3.16467,1.07422,
-3.16925,1.08032,
-3.17535,1.08337,
-3.18298,1.07269,
-3.19214,1.07574,
-3.20587,1.07727,
-3.21503,1.0788,
-3.22571,1.08185,
-3.23486,1.07269,
-3.2486,1.08337,
-3.2608,1.07727,
-3.27301,1.0788,
-3.28522,1.0849,
-3.29742,1.07574,
-3.30811,1.07574,
-3.31726,1.07422,
-3.32794,1.07727,
-3.3371,1.0849,
-3.3493,1.0788,
-3.36151,1.07269,
-3.37219,1.07422,
-3.38287,1.08032,
-3.39661,1.0788,
-3.40881,1.0788,
-3.42255,1.0788,
-3.4317,1.07727,
-3.44391,1.0788,
-3.45154,1.08185,
-3.46375,1.0788,
-3.479,1.07422,
-3.49579,1.07422,
-3.50494,1.0788,
-3.52173,1.08643,
-3.53088,1.07574,
-3.54004,1.07727,
-3.5553,1.0788,
-3.57056,1.07117,
-3.58124,1.10016,
-3.59039,1.07117,
-3.6026,1.07727,
-3.61328,1.07574,
-3.62549,1.08185,
-3.63617,1.08032,
-3.65143,1.07269,
-3.66516,1.07727,
-3.67584,1.07422,
-3.6911,1.07422,
-3.70483,1.08032,
-3.71704,1.07422,
-3.7323,1.0788,
-3.74146,1.07727,
-3.75671,1.0788,
-3.76587,1.08337,
-3.77197,1.07727,
-3.78113,1.07574,
-3.78418,1.07574,
-3.78723,1.08032,
-3.79028,1.08643,
-3.78723,1.07727,
-3.7796,1.07269,
-3.77045,1.07422,
-3.75519,1.0788,
-3.74908,1.08337,
-3.72925,1.07574,
-3.70636,1.07727,
-3.68958,1.08032,
-3.66058,1.08032,
-3.63312,1.08032,
-3.60413,1.07422,
-3.57513,1.08032,
-3.54462,1.07422,
-3.51105,1.0788,
-3.47748,1.08337,
-3.45001,1.07727,
-3.41644,1.07574,
-3.3844,1.07117,
-3.3493,1.07574,
-3.31879,1.07727,
-3.28979,1.07574,
-3.25928,1.07574,
-3.23029,1.07422,
-3.2074,1.08032,
-3.17993,1.08337,
-3.15704,1.06964,
-3.1311,1.0788,
-3.10974,1.07117,
-3.0899,1.07727,
-3.06854,1.08337,
-3.04871,1.07727,
-3.02887,1.07727,
-3.01208,1.07422,
-2.99683,1.0788,
-2.98309,1.0849,
-2.96478,1.07269,
-2.95105,1.07574,
-2.93732,1.07422,
-2.92511,1.0788,
-2.90985,1.08185,
-2.89917,1.07117,
-2.88544,1.07422,
-2.87018,1.07574,
-2.8656,1.08032,
-2.85645,1.08185,
-2.85034,1.07574,
-2.84729,1.07727,
-2.84576,1.07422,
-2.84119,1.07117,
-2.83356,1.08185,
-2.83051,1.07422,
-2.82898,1.07574,
-2.82593,1.07269,
-2.8244,1.08185,
-2.8183,1.08185,
-2.82135,1.08948,
-2.81677,1.06812,
-2.8183,1.07269,
-2.8183,1.07574,
-2.81677,1.08337,
-2.8244,1.07574,
-2.8244,1.0788,
-2.82745,1.07574,
-2.83051,1.0788,
-2.83356,1.0849,
-2.83813,1.07269,
-2.84119,1.07727,
-2.84119,1.07727,
-2.84424,1.08032,
-2.85034,1.08032,
-2.85645,1.07422,
-2.86102,1.07574,
-2.86713,1.07574,
-2.86865,1.07727,
-2.87781,1.08185,
-2.87781,1.07727,
-2.88086,1.07574,
-2.88391,1.07422,
-2.88391,1.07727,
-2.89154,1.08337,
-2.89459,1.07574,
-2.89764,1.07727,
-2.89612,1.07269,
-2.89917,1.0788,
-2.90222,1.0849,
-2.90222,1.07574,
-2.90222,1.07574,
-2.9068,1.07574,
-2.9068,1.07574,
-2.91138,1.08032,
-2.91443,1.07422,
-2.91748,1.07727,
-2.92053,1.07574,
-2.92511,1.08185,
-2.92511,1.08032,
-2.92664,1.07574,
-2.92969,1.07727,
-2.93121,1.07269,
-2.93884,1.07574,
-2.94495,1.08337,
-2.94952,1.07727,
-2.948,1.07727,
-2.96173,1.07422,
-2.96631,1.0788,
-2.97394,1.07727,
-2.98309,1.07574,
-2.99072,1.07422,
-3.00598,1.07422,
-3.01514,1.08185,
-3.02277,1.08337,
-3.03345,1.07574,
-3.04565,1.07727,
-3.05634,1.07574,
-3.06396,1.07574,
-3.07465,1.08032,
-3.08228,1.07727,
-3.09143,1.0788,
-3.10669,1.07574,
-3.11737,1.07727,
-3.13416,1.08337,
-3.14331,1.07422,
-3.15552,1.07269,
-3.16772,1.07269,
-3.17688,1.0788,
-3.18909,1.08337,
-3.20129,1.07117,
-3.21655,1.07422,
-3.23334,1.07269,
-3.24097,1.08185,
-3.25317,1.08185,
-3.26385,1.07422,
-3.27911,1.08032,
-3.29437,1.07269,
-3.31116,1.0788,
-3.31726,1.08337,
-3.32794,1.07574,
-3.33862,1.07574,
-3.35236,1.07269,
-3.36456,1.08032,
-3.37372,1.08337,
-3.38745,1.07727,
-3.39966,1.07727,
-3.41034,1.07117,
-3.41797,1.0788,
-3.43018,1.08185,
-3.43933,1.07574,
-3.45154,1.07574,
-3.46375,1.07727,
-3.47748,1.08032,
-3.48969,1.0788,
-3.50342,1.07269,
-3.51868,1.07422,
-3.52631,1.07422,
-3.54309,1.08185,
-3.55225,1.08185,
-3.57056,1.07574,
-3.58429,1.07574,
-3.59344,1.07574,
-3.6087,1.0788,
-3.62396,1.08185,
-3.63922,1.07422,
-3.65143,1.09253,
-3.66669,1.06964,
-3.68042,1.07422,
-3.6972,1.08032,
-3.71246,1.07422,
-3.72772,1.07422,
-3.73993,1.07574,
-3.75519,1.08032,
-3.76892,1.08643,
-3.78418,1.0788,
-3.79639,1.07574,
-3.80707,1.07574,
-3.8147,1.0788,
-3.8269,1.07574,
-3.83148,1.07574,
-3.84064,1.07422,
-3.84521,1.0788,
-3.84674,1.0788,
-3.85284,1.0788,
-3.84979,1.0788,
-3.84064,1.07574,
-3.82843,1.07574,
-3.81775,1.08185,
-3.80096,1.08185,
-3.77808,1.07117,
-3.76129,1.07727,
-3.73688,1.07574,
-3.71094,1.08032,
-3.685,1.0788,
-3.65906,1.07422,
-3.63007,1.07727,
-3.59955,1.06812,
-3.57056,1.09406,
-3.53851,1.08337,
-3.51257,1.07574,
-3.48206,1.07269,
-3.45612,1.07727,
-3.4256,1.0788,
-3.40118,1.0788,
-3.37677,1.08032,
-3.35236,1.07422,
-3.32794,1.07727,
-3.30353,1.07727,
-3.27606,1.08185,
-3.25165,1.07422,
-3.23029,1.07269,
-3.21655,1.07727,
-3.19672,1.07727,
-3.18604,1.07727,
-3.16772,1.07727,
-3.15704,1.07727,
-3.14331,1.07422,
-3.13416,1.08032,
-3.12347,1.07727,
-3.11737,1.0788,
-3.11279,1.07422,
-3.10059,1.08185,
-3.09143,1.09253,
-3.08228,1.08032,
-3.07465,1.07574,
-3.07007,1.07269,
-3.06549,1.0788,
-3.06244,1.0788,
-3.05634,1.0788,
-3.05328,1.08032,
-3.05176,1.07422,
-3.05023,1.07269,
-3.05176,1.07727,
-3.05023,1.0788,
-3.05176,1.07727,
-3.05023,1.07574,
-3.05328,1.07574,
-3.05328,1.08185,
-3.05481,1.091,
-3.05481,1.07727,
-3.05939,1.07422,
-3.06702,1.0788,
-3.07007,1.08032,
-3.07465,1.08032,
-3.0777,1.07727,
-3.08533,1.07574,
-3.09296,1.07727,
-3.09296,1.07574,
-3.09601,1.08032,
-3.10059,1.07727,
-3.09906,1.07269,
-3.10364,1.07727,
-3.10364,1.08032,
-3.10211,1.08032,
-3.10669,1.07422,
-3.11127,1.07117,
-3.11279,1.07269,
-3.11127,1.0788,
-3.11584,1.08337,
-3.11584,1.0788,
-3.11584,1.07422,
-3.11432,1.08948,
-3.1189,1.07727,
-3.125,1.07269,
-3.12653,1.07269,
-3.125,1.07727,
-3.125,1.07727,
-3.12042,1.08032,
-3.12042,1.07574,
-3.12042,1.08185,
-3.11737,1.07269,
-3.125,1.07727,
-3.12805,1.07574,
-3.12805,1.0788,
-3.13721,1.0788,
-3.14331,1.07269,
-3.15247,1.07422,
-3.15704,1.0788,
-3.16162,1.07727,
-3.16772,1.07574,
-3.16925,1.07422,
-3.1723,1.07727,
-3.17688,1.07727,
-3.17993,1.08032,
-3.18451,1.07574,
-3.18909,1.07422,
-3.19366,1.07727,
-3.20282,1.07574,
-3.20892,1.06659,
-3.21655,1.07422,
-3.22876,1.07422,
-3.23792,1.07574,
-3.24249,1.07727,
-3.2486,1.0788,
-3.25623,1.06812,
-3.25775,1.07574,
-3.2608,1.07422,
-3.27301,1.07422,
-3.28217,1.07727,
-3.28827,1.07574,
-3.2959,1.06964,
-3.31116,1.07422,
-3.31726,1.07727,
-3.32794,1.08185,
-3.33862,1.0788,
-3.34778,1.07422,
-3.35388,1.0788,
-3.36456,1.06964,
-3.37219,1.07269,
-3.38287,1.0788,
-3.38898,1.07422,
-3.39966,1.07574,
-3.41034,1.07574,
-3.41644,1.07574,
-3.42255,1.07574,
-3.43628,1.08032,
-3.44849,1.07574,
-3.45917,1.07727,
-3.46985,1.07422,
-3.48358,1.07727,
-3.49426,1.07574,
-3.50037,1.07269,
-3.51257,1.0788,
-3.5202,1.07269,
-3.53241,1.07422,
-3.54614,1.07574,
-3.55072,1.07574,
-3.5614,1.06812,
-3.56598,1.08032,
-3.57208,1.07422,
-3.58276,1.07422,
-3.58887,1.07269,
-3.59955,1.07574,
-3.60413,1.07727,
-3.61328,1.07727,
-3.62396,1.07269,
-3.62701,1.07269,
-3.63617,1.07422,
-3.64838,1.07727,
-3.65601,1.07574,
-3.66364,1.07117,
-3.67126,1.07422,
-3.68347,1.07727,
-3.6911,1.07727,
-3.69873,1.07574,
-3.70636,1.07117,
-3.71094,1.07422,
-3.72314,1.07422,
-3.72925,1.07422,
-3.74451,1.07422,
-3.75519,1.07269,
-3.76282,1.07574,
-3.77045,1.07727,
-3.77502,1.07727,
-3.7796,1.07727,
-3.78113,1.07117,
-3.78723,1.07117,
-3.78113,1.07574,
-3.77502,1.0788,
-3.76892,1.08032,
-3.76282,1.07269,
-3.75061,1.06812,
-3.7384,1.07269,
-3.7262,1.07574,
-3.70789,1.0788,
-3.6911,1.07117,
-3.66974,1.07422,
-3.64838,1.0788,
-3.62396,1.06659,
-3.59802,1.07574,
-3.57056,1.07117,
-3.55072,1.07422,
-3.52325,1.07574,
-3.49731,1.07574,
-3.47595,1.07574,
-3.45001,1.07574,
-3.4256,1.07574,
-3.40729,1.07422,
-3.38745,1.07422,
-3.37372,1.0788,
-3.35083,1.07422,
-3.33862,1.07117,
-3.32336,1.07574,
-3.31116,1.07727,
-3.2959,1.08032,
-3.28674,1.07422,
-3.27148,1.07422,
-3.25775,1.07727,
-3.25012,1.0788,
-3.24554,1.07422,
-3.23792,1.06812,
-3.22723,1.07422,
-3.2196,1.07574,
-3.21198,1.07574,
-3.20587,1.08032,
-3.19977,1.07269,
-3.19519,1.07574,
-3.19519,1.08032,
-3.19214,1.07574,
-3.18756,1.0788,
-3.18451,1.07574,
-3.18146,1.07422,
-3.17841,1.0788,
-3.17841,1.0788,
-3.1723,1.0788,
-3.17383,1.06812,
-3.1723,1.07574,
-3.17078,1.0788,
-3.1723,1.07574,
-3.16925,1.07574,
-3.16467,1.07117,
-3.16162,1.07574,
-3.16162,1.07422,
-3.15857,1.07574,
-3.15704,1.07574,
-3.15857,1.07422,
-3.16467,1.07574,
-3.1601,1.07422,
-3.16467,1.0788,
-3.16467,1.07727,
-3.16467,1.07269,
-3.1662,1.07574,
-3.16772,1.07422,
-3.17078,1.08032,
-3.17383,1.07422,
-3.17535,1.07117,
-3.17383,1.07422,
-3.17383,1.07269,
-3.17535,1.0788,
-3.1723,1.07727,
-3.17078,1.06659,
-3.1723,1.07269,
-3.17078,1.07727,
-3.1723,1.07422,
-3.16925,1.07574,
-3.1662,1.06964,
-3.15704,1.07422,
-3.15552,1.07422,
-3.15399,1.07727,
-3.14941,1.07727,
-3.14941,1.07117,
-3.15094,1.07269,
-3.15094,1.07574,
-3.15094,1.07422,
-3.14789,1.07727,
-3.15247,1.07269,
-3.15247,1.07269,
-3.15247,1.07574,
-3.15552,1.0788,
-3.15857,1.07422,
-3.15857,1.07269,
-3.16162,1.07117,
-3.16467,1.0788,
-3.1662,1.07117,
-3.16925,1.07727,
-3.17535,1.06964,
-3.18146,1.06964,
-3.18451,1.07727,
-3.18756,1.07574,
-3.19519,1.07422,
-3.20129,1.07574,
-3.20435,1.07269,
-3.20892,1.07422,
-3.21198,1.07574,
-3.21503,1.08032,
-3.22113,1.07117,
-3.22723,1.07422,
-3.23792,1.07574,
-3.24249,1.07727,
-3.25165,1.07574,
-3.2608,1.06964,
-3.26385,1.07422,
-3.27454,1.07422,
-3.28217,1.0788,
-3.29132,1.07574,
-3.29895,1.06812,
-3.30963,1.07574,
-3.32031,1.08032,
-3.32642,1.08032,
-3.33252,1.07727,
-3.3493,1.06964,
-3.35693,1.07574,
-3.36304,1.07574,
-3.36761,1.07269,
-3.37677,1.07422,
-3.38745,1.07269,
-3.39661,1.07422,
-3.41492,1.07574,
-3.42255,1.07422,
-3.43475,1.07574,
-3.45154,1.05591,
-3.45764,1.07117,
-3.46527,1.07574,
-3.47748,1.07574,
-3.48969,1.07727,
-3.50189,1.07117,
-3.51105,1.07269,
-3.52173,1.07574,
-3.53241,1.07574,
-3.54614,1.07422,
-3.55682,1.07422,
-3.57056,1.07574,
-3.58734,1.07574,
-3.60107,1.0788,
-3.61633,1.07727,
-3.62854,1.07574,
-3.63464,1.07422,
-3.64838,1.07269,
-3.66058,1.07727,
-3.66669,1.07574,
-3.67584,1.07117,
-3.68652,1.07117,
-3.6972,1.07574,
-3.70483,1.0788,
-3.71552,1.07574,
-3.72467,1.07422,
-3.73077,1.07269,
-3.7323,1.07727,
-3.7384,1.0788,
-3.7384,1.07422,
-3.74146,1.06812,
-3.73993,1.07727,
-3.73535,1.07422,
-3.72925,1.08185,
-3.72467,1.07727,
-3.70789,1.07117,
-3.69568,1.07422,
-3.68195,1.07117,
-3.66211,1.07727,
-3.64075,1.07422,
-3.62091,1.07117,
-3.59497,1.07269,
-3.56903,1.08032,
-3.54919,1.07422,
-3.52478,1.07727,
-3.49731,1.07269,
-3.46985,1.07422,
-3.44696,1.07269,
-3.42102,1.07574,
-3.39661,1.07574,
-3.37219,1.07422,
-3.34778,1.07269,
-3.32031,1.07574,
-3.302,1.07727,
-3.28217,1.07422,
-3.25928,1.07422,
-3.23944,1.07269,
-3.22418,1.07574,
-3.21198,1.0788,
-3.20129,1.08032,
-3.18756,1.07422,
-3.1723,1.07422,
-3.16467,1.06812,
-3.15094,1.07574,
-3.14026,1.07574,
-3.1311,1.07574,
-3.12653,1.06964,
-3.11737,1.07727,
-3.11127,1.0788,
-3.10669,1.07422,
-3.10211,1.07117,
-3.09143,1.07269,
-3.08533,1.07574,
-3.08075,1.07727,
-3.0777,1.07422,
-3.07007,1.06964,
-3.06702,1.07422,
-3.06244,1.07574,
-3.06396,1.07727,
-3.05634,1.07422,
-3.05786,1.07269,
-3.05634,1.07269,
-3.05786,1.07574,
-3.05786,1.07422,
-3.06396,1.07422,
-3.06549,1.06964,
-3.07007,1.07117,
-3.07007,1.07727,
-3.07465,1.0788,
-3.0777,1.07574,
-3.08533,1.07269,
-3.0899,1.07117,
-3.09753,1.07727,
-3.10059,1.07422,
-3.10669,1.07422,
-3.10974,1.07117,
-3.11432,1.07269,
-3.11127,1.0788,
-3.10974,1.07727,
-3.11432,1.07574,
-3.11432,1.07422,
-3.11127,1.07422,
-3.10822,1.07422,
-3.10669,1.07574,
-3.10211,1.07117,
-3.10059,1.07117,
-3.09753,1.06964,
-3.09143,1.07117,
-3.08685,1.07574,
-3.0838,1.07574,
-3.08228,1.06812,
-3.07617,1.07117,
-3.07312,1.07422,
-3.07465,1.07727,
-3.07312,1.07422,
-3.07159,1.06659,
-3.07465,1.06354,
-3.06854,1.07422,
-3.06854,1.07422,
-3.06854,1.07574,
-3.06549,1.06659,
-3.06702,1.07422,
-3.06549,1.07574,
-3.06702,1.07422,
-3.07007,1.07574,
-3.0777,1.06964,
-3.07922,1.06964,
-3.07922,1.07422,
-3.08533,1.07422,
-3.08838,1.07727,
-3.0899,1.06812,
-3.08838,1.07117,
-3.09601,1.07574,
-3.09753,1.07422,
-3.09906,1.07574,
-3.10669,1.07117,
-3.10974,1.07269,
-3.11584,1.07574,
-3.1189,1.07422,
-3.125,1.07269,
-3.125,1.06812,
-3.12653,1.07117,
-3.13721,1.07727,
-3.14026,1.07422,
-3.14941,1.07422,
-3.15094,1.06964,
-3.1601,1.06812,
-3.16772,1.07269,
-3.1723,1.07574,
-3.17841,1.07422,
-3.18604,1.07117,
-3.19366,1.06964,
-3.20587,1.07422,
-3.20892,1.07574,
-3.21655,1.07422,
-3.22723,1.06659,
-3.23792,1.07117,
-3.24554,1.07574,
-3.25165,1.07574,
-3.25775,1.07422,
-3.26843,1.06812,
-3.27759,1.07269,
-3.28979,1.07574,
-3.29895,1.07422,
-3.31116,1.07269,
-3.31879,1.07117,
-3.33252,1.07117,
-3.34625,1.07574,
-3.35541,1.07422,
-3.36761,1.07727,
-3.38135,1.06812,
-3.38745,1.07269,
-3.39661,1.07422,
-3.40729,1.07727,
-3.41797,1.07574,
-3.43018,1.07117,
-3.43933,1.06964,
-3.45154,1.07727,
-3.46222,1.07727,
-3.46832,1.07422,
-3.48206,1.07269,
-3.49121,1.06964,
-3.49731,1.07727,
-3.50952,1.07727,
-3.5141,1.07422,
-3.52783,1.07117,
-3.53546,1.06812,
-3.53699,1.07727,
-3.54767,1.07574,
-3.55072,1.07269,
-3.5614,1.07269,
-3.55988,1.06812,
-3.56293,1.06964,
-3.56293,1.07574,
-3.55682,1.07269,
-3.55225,1.07117,
-3.54004,1.06812,
-3.52936,1.07269,
-3.51563,1.07727,
-3.50189,1.07422,
-3.479,1.07117,
-3.46222,1.07269,
-3.44238,1.07574,
-3.41949,1.08032,
-3.39813,1.07422,
-3.37524,1.07269,
-3.34778,1.07117,
-3.32031,1.07727,
-3.29437,1.07574,
-3.26385,1.0788,
-3.23792,1.07269,
-3.20587,1.07117,
-3.17841,1.07422,
-3.15094,1.07574,
-3.12195,1.07574,
-3.09296,1.06964,
-3.07007,1.06964,
-3.04565,1.07574,
-3.02277,1.07574,
-2.99683,1.07422,
-2.97394,1.06964,
-2.95105,1.06812,
-2.93121,1.07574,
-2.9129,1.07422,
-2.89307,1.07727,
-2.8717,1.06964,
-2.85492,1.06964,
-2.83813,1.07422,
-2.82288,1.07574,
-2.80609,1.07422,
-2.79541,1.07117,
-2.77863,1.06964,
-2.76642,1.07574,
-2.75269,1.07422,
-2.74506,1.0788,
-2.73132,1.07269,
-2.71149,1.06049,
-2.70081,1.06964,
-2.68707,1.07727,
-2.67181,1.07574,
-2.66113,1.07269,
-2.64435,1.07422,
-2.63214,1.07574,
-2.62299,1.07269,
-2.61078,1.06354,
-2.6001,1.07117,
-2.58484,1.06964,
-2.57568,1.07117,
-2.56195,1.07269,
-2.5528,1.07117,
-2.53754,1.07269,
-2.52991,1.07269,
-2.51923,1.07269,
-2.51465,1.07422,
-2.50549,1.07574,
-2.49939,1.07422,
-2.49481,1.06812,
-2.49023,1.07117,
-2.48718,1.07269,
-2.48871,1.07269,
-2.48413,1.06964,
-2.48108,1.06964,
-2.47498,1.07574,
-2.4704,1.07574,
-2.46887,1.07117,
-2.46735,1.06964,
-2.46429,1.06964,
-2.46429,1.07574,
-2.46429,1.07422,
-2.46124,1.07269,
-2.46277,1.07269,
-2.46277,1.07117,
-2.45667,1.07117,
-2.45514,1.07574,
-2.45361,1.07117,
-2.44751,1.07117,
-2.44751,1.06964,
-2.44293,1.07269,
-2.43835,1.07269,
-2.43073,1.07574,
-2.43073,1.06964,
-2.42615,1.06812,
-2.42615,1.07269,
-2.42615,1.08032,
-2.4292,1.07117,
-2.43073,1.06659,
-2.4292,1.07117,
-2.43073,1.06964,
-2.43378,1.06659,
-2.43073,1.07269,
-2.4292,1.05896,
-2.43225,1.08795,
-2.4292,1.06964,
-2.43378,1.07269,
-2.43378,1.07422,
-2.43683,1.06964,
-2.43835,1.06964,
-2.44293,1.07574,
-2.44904,1.07574,
-2.45056,1.06812,
-2.45819,1.06506,
-2.46582,1.06812,
-2.47345,1.07269,
-2.48566,1.07422,
-2.49481,1.07422,
-2.50397,1.06964,
-2.5177,1.07117,
-2.52533,1.07574,
-2.52991,1.07422,
-2.54059,1.07117,
-2.54974,1.07117,
-2.56042,1.07117,
-2.56958,1.07574,
-2.57263,1.07422,
-2.58636,1.07422,
-2.59705,1.07269,
-2.60162,1.06812,
-2.61536,1.07117,
-2.61993,1.07574,
-2.62756,1.07117,
-2.63672,1.06964,
-2.64587,1.06812,
-2.6535,1.07269,
-2.66266,1.0788,
-2.67181,1.07269,
-2.67639,1.06812,
-2.68707,1.06812,
-2.69623,1.07422,
-2.70538,1.0788,
-2.70996,1.07422,
-2.71759,1.06812,
-2.7298,1.07117,
-2.74048,1.07422,
-2.74506,1.07422,
-2.75421,1.07117,
-2.76489,1.07269,
-2.77863,1.06812,
-2.78625,1.07269,
-2.79694,1.07727,
-2.80457,1.07574,
-2.81372,1.06964,
-2.8244,1.06659,
-2.83051,1.06812,
-2.83813,1.07422,
-2.84424,1.07117,
-2.85797,1.07117,
-2.8656,1.07117,
-2.88239,1.07422,
-2.89154,1.07422,
-2.90527,1.07574,
-2.9129,1.07117,
-2.92358,1.06659,
-2.93427,1.07269,
-2.94342,1.07422,
-2.95868,1.07269,
-2.96783,1.07117,
-2.97546,1.06659,
-2.9892,1.07117,
-2.99683,1.07727,
-3.00751,1.07117,
-3.01514,1.06964,
-3.02124,1.06964,
-3.0304,1.07117,
-3.03192,1.07422,
-3.03345,1.07574,
-3.03345,1.06964,
-3.02887,1.07117,
-3.02124,1.06964,
-3.00598,1.07422,
-2.9953,1.07269,
-2.97852,1.07117,
-2.96326,1.06659,
-2.94037,1.06964,
-2.92358,1.07269,
-2.9007,1.07269,
-2.87476,1.06964,
-2.84729,1.07269,
-2.82135,1.07269,
-2.79388,1.07574,
-2.76489,1.07574,
-2.73743,1.06812,
-2.71149,1.06659,
-2.68707,1.06964,
-2.66113,1.07727,
-2.62909,1.07574,
-2.60773,1.06964,
-2.58636,1.06964,
-2.56195,1.091,
-2.53754,1.07422,
-2.51465,1.07269,
-2.49481,1.06659,
-2.47498,1.06812,
-2.45514,1.07269,
-2.44598,1.07574,
-2.42767,1.07574,
-2.41699,1.07117,
-2.40326,1.07117,
-2.38647,1.07117,
-2.36816,1.07422,
-2.35748,1.07727,
-2.3468,1.07117,
-2.33612,1.07117,
-2.32391,1.07269,
-2.31628,1.07574,
-2.30713,1.07269,
-2.29645,1.07117,
-2.28729,1.06964,
-2.27966,1.07269,
-2.27203,1.07574,
-2.26593,1.07574,
-2.26288,1.06812,
-2.25067,1.07117,
-2.24457,1.07269,
-2.23694,1.07574,
-2.23694,1.07269,
-2.22931,1.06964,
-2.22778,1.06964,
-2.22015,1.07269,
-2.21405,1.07269,
-2.211,1.07422,
-2.211,1.06964,
-2.20795,1.06659,
-2.2049,1.06812,
-2.20337,1.07727,
-2.2049,1.07269,
-2.20337,1.07117,
-2.20184,1.07117,
-2.2049,1.07422,
-2.20642,1.07422,
-2.2049,1.07269,
-2.20642,1.06964,
-2.20642,1.07117,
-2.20947,1.07422,
-2.20795,1.06964,
-2.211,1.07117,
-2.21405,1.07422,
-2.21558,1.06964,
-2.21558,1.07117,
-2.22015,1.07727,
-2.22015,1.07117,
-2.22321,1.07422,
-2.22473,1.06812,
-2.22473,1.07422,
-2.22321,1.08032,
-2.22168,1.06506,
-2.22168,1.08795,
-2.22015,1.07117,
-2.22626,1.07269,
-2.22015,1.07727,
-2.22015,1.07574,
-2.22473,1.06964,
-2.22626,1.07117,
-2.22778,1.07117,
-2.23236,1.07574,
-2.23694,1.07422,
-2.23846,1.06964,
-2.24152,1.06812,
-2.24152,1.07117,
-2.24304,1.07269,
-2.24609,1.07422,
-2.24915,1.06354,
-2.25983,1.05591,
-2.26135,1.07269,
-2.26288,1.07422,
-2.27051,1.07574,
-2.27509,1.06964,
-2.27509,1.06964,
-2.28119,1.08032,
-2.28119,1.08032,
-2.28577,1.07269,
-2.29034,1.07269,
-2.2934,1.06506,
-2.29492,1.07422,
-2.30103,1.07727,
-2.31018,1.07269,
-2.31934,1.07422,
-2.32849,1.06659,
-2.33154,1.07269,
-2.34375,1.07269,
-2.35138,1.07117,
-2.35901,1.06812,
-2.36664,1.06964,
-2.37579,1.07422,
-2.3819,1.07574,
-2.38953,1.07422,
-2.40021,1.06354,
-2.40631,1.06506,
-2.41394,1.07269,
-2.42462,1.0788,
-2.43225,1.06812,
-2.43988,1.07117,
-2.44598,1.06964,
-2.45209,1.06964,
-2.46582,1.07422,
-2.46887,1.07269,
-2.48108,1.06964,
-2.48871,1.07117,
-2.49634,1.07117,
-2.50244,1.07269,
-2.51312,1.07422,
-2.52533,1.06964,
-2.53296,1.06659,
-2.53906,1.07574,
-2.54974,1.07574,
-2.55737,1.07422,
-2.565,1.06964,
-2.57416,1.06659,
-2.58484,1.07269,
-2.58942,1.07422,
-2.59705,1.07269,
-2.60162,1.06659,
-2.61078,1.06964,
-2.61536,1.07117,
-2.62451,1.07727,
-2.63062,1.07269,
-2.63824,1.06049,
-2.64435,1.06354,
-2.65656,1.07117,
-2.66266,1.07574,
-2.67181,1.07117,
-2.68555,1.07117,
-2.69165,1.06812,
-2.70233,1.06964,
-2.70996,1.06964,
-2.72369,1.07574,
-2.7359,1.06964,
-2.74811,1.07117,
-2.75726,1.07269,
-2.76642,1.07727,
-2.77557,1.07117,
-2.78625,1.06659,
-2.79388,1.06964,
-2.80609,1.07117,
-2.81525,1.07269,
-2.82593,1.07574,
-2.83661,1.06812,
-2.84576,1.06812,
-2.85034,1.07269,
-2.85645,1.06354,
-2.86102,1.07269,
-2.85797,1.07117,
-2.8595,1.07117,
-2.84882,1.07269,
-2.84271,1.07574,
-2.83356,1.07117,
-2.82135,1.07422,
-2.80609,1.06659,
-2.79388,1.07269,
-2.77863,1.07422,
-2.76184,1.06964,
-2.74353,1.07269,
-2.72064,1.07117,
-2.69623,1.07117,
-2.67029,1.07727,
-2.65198,1.07117,
-2.62909,1.07117,
-2.60925,1.06812,
-2.58331,1.07269,
-2.56653,1.07269,
-2.54822,1.07422,
-2.5238,1.07117,
-2.50397,1.06964,
-2.4826,1.07422,
-2.46277,1.07422,
-2.44446,1.07422,
-2.4231,1.06964,
-2.40479,1.06964,
-2.388,1.07117,
-2.36969,1.07727,
-2.35596,1.0788,
-2.34375,1.06964,
-2.32544,1.07422,
-2.31628,1.07117,
-2.2995,1.07422,
-2.28882,1.07269,
-2.27814,1.06964,
-2.26593,1.07269,
-2.25677,1.06812,
-2.24762,1.0788,
-2.23999,1.07117,
-2.23694,1.06659,
-2.22473,1.06964,
-2.22473,1.07269,
-2.21863,1.07727,
-2.21405,1.07574,
-2.20795,1.07117,
-2.20642,1.06964,
-2.19879,1.07117,
-2.19879,1.07574,
-2.19421,1.07422,
-2.19574,1.06964,
-2.19269,1.07269,
-2.18811,1.07422,
-2.18048,1.07574,
-2.17896,1.06964,
-2.1759,1.07117,
-2.17438,1.07117,
-2.1698,1.07117,
-2.1698,1.08032,
-2.17133,1.07269,
-2.17285,1.08795,
-2.17285,1.07269,
-2.17285,1.07117,
-2.17438,1.0788,
-2.17743,1.07269,
-2.17896,1.06812,
-2.17743,1.07117,
-2.18201,1.07269,
-2.17743,1.07727,
-2.17896,1.07269,
-2.17896,1.06812,
-2.17896,1.07269,
-2.18048,1.07269,
-2.18201,1.0788,
-2.18048,1.07269,
-2.1759,1.06812,
-2.17743,1.0788,
-2.17743,1.07269,
-2.1759,1.0788,
-2.17133,1.07574,
-2.1698,1.06964,
-2.16217,1.06812,
-2.16217,1.07117,
-2.15912,1.07727,
-2.15759,1.07269,
-2.15454,1.06964,
-2.15454,1.07117,
-2.15454,1.07422,
-2.15302,1.07727,
-2.14844,1.07117,
-2.15149,1.07117,
-2.14691,1.05896,
-2.15302,1.07574,
-2.15607,1.07727,
-2.15149,1.07269,
-2.15912,1.06812,
-2.16064,1.06659,
-2.16522,1.0849,
-2.16827,1.07574,
-2.17285,1.07422,
-2.1759,1.07422,
-2.17896,1.07269,
-2.18048,1.07117,
-2.18048,1.07727,
-2.18048,1.06964,
-2.18353,1.06659,
-2.18811,1.07117,
-2.18811,1.07117,
-2.19116,1.07574,
-2.19727,1.07269,
-2.20184,1.07117,
-2.20337,1.08185,
-2.20795,1.07422,
-2.21252,1.07727,
-2.21252,1.07574,
-2.21558,1.06964,
-2.22015,1.07422,
-2.23083,1.07117,
-2.23694,1.07574,
-2.24152,1.06964,
-2.24915,1.06812,
-2.2583,1.07117,
-2.27051,1.07269,
-2.27203,1.0788,
-2.27966,1.07574,
-2.28119,1.06964,
-2.28729,1.07269,
-2.29645,1.07117,
-2.3056,1.07574,
-2.31323,1.06812,
-2.31628,1.07269,
-2.32697,1.06506,
-2.33459,1.06964,
-2.34222,1.07574,
-2.35291,1.07574,
-2.35596,1.06964,
-2.36206,1.06964,
-2.37122,1.07269,
-2.38342,1.0788,
-2.39105,1.07574,
-2.39563,1.06812,
-2.40021,1.07269,
-2.40936,1.07269,
-2.4231,1.07727,
-2.4292,1.07574,
-2.43835,1.06812,
-2.45056,1.06964,
-2.45819,1.07422,
-2.46429,1.07574,
-2.46582,1.06964,
-2.47803,1.06812,
-2.48871,1.07117,
-2.49939,1.06964,
-2.50854,1.07727,
-2.51617,1.07117,
-2.52228,1.07117,
-2.52838,1.07269,
-2.53296,1.07269,
-2.53754,1.07422,
-2.54822,1.07269,
-2.55585,1.06964,
-2.565,1.06812,
-2.57111,1.07574,
-2.58179,1.07574,
-2.58789,1.07574,
-2.59705,1.07117,
-2.60162,1.06812,
-2.60773,1.07422,
-2.61688,1.0788,
-2.61841,1.07269,
-2.62451,1.06964,
-2.63367,1.07117,
-2.63977,1.07422,
-2.65045,1.08032,
-2.6535,1.07269,
-2.65198,1.07574,
-2.65045,1.07117,
-2.64893,1.07117,
-2.63977,1.07727,
-2.63214,1.07269,
-2.62146,1.07117,
-2.60773,1.07727,
-2.58942,1.07117,
-2.57263,1.07574,
-2.55127,1.07269,
-2.52838,1.06812,
-2.50244,1.07117,
-2.4826,1.07422,
-2.45667,1.0788,
-2.4292,1.07574,
-2.40326,1.06964,
-2.38342,1.07422,
-2.35443,1.07422,
-2.33612,1.07727,
-2.31018,1.07269,
-2.28729,1.06964,
-2.26746,1.07117,
-2.24762,1.07422,
-2.22626,1.07422,
-2.20795,1.07422,
-2.18964,1.06964,
-2.1759,1.06964,
-2.15454,1.07422,
-2.13928,1.07574,
-2.11945,1.07422,
-2.10724,1.06812,
-2.09198,1.06812,
-2.0752,1.07574,
-2.05994,1.07574,
-2.04926,1.07117,
-2.03857,1.06964,
-2.02332,1.07269,
-2.01111,1.07574,
-2.00195,1.07574,
-1.99127,1.07269,
-1.98059,1.07117,
-1.97144,1.07422,
-1.9577,1.06964,
-1.94702,1.07422,
-1.9455,1.07574,
-1.93787,1.06964,
-1.93176,1.07269,
-1.92413,1.07269,
-1.91803,1.07727,
-1.91193,1.07574,
-1.91193,1.06812,
-1.9043,1.06964,
-1.89819,1.06964,
-1.89819,1.0788,
-1.88904,1.07269,
-1.88904,1.06812,
-1.88599,1.06659,
-1.87988,1.0788,
-1.87683,1.08032,
-1.87683,1.07574,
-1.87378,1.07269,
-1.87378,1.06812,
-1.87378,1.07269,
-1.87073,1.07574,
-1.8692,1.07422,
-1.87225,1.06964,
-1.87073,1.06964,
-1.87836,1.07117,
-1.87683,1.07727,
-1.87836,1.07422,
-1.88141,1.06812,
-1.87378,1.06964,
-1.87988,1.06354,
-1.87836,1.07574,
-1.88293,1.07117,
-1.88141,1.07269,
-1.88141,1.06964,
-1.88141,1.07117,
-1.88293,1.07422,
-1.87988,1.07117,
-1.87531,1.07269,
-1.87225,1.07117,
-1.87531,1.07269,
-1.87225,1.07727,
-1.87073,1.07269,
-1.86615,1.07422,
-1.8631,1.06812,
-1.8631,1.06964,
-1.86462,1.07574,
-1.86462,1.07422,
-1.8631,1.06659,
-1.86615,1.06812,
-1.8631,1.07269,
-1.86462,1.07574,
-1.8631,1.07269,
-1.86462,1.07117,
-1.85852,1.07117,
-1.86005,1.07422,
-1.86005,1.07422,
-1.86157,1.07269,
-1.86462,1.06964,
-1.86462,1.06964,
-1.8631,1.07269,
-1.8692,1.07117,
-1.87378,1.07574,
-1.87531,1.06964,
-1.87988,1.06812,
-1.88599,1.07422,
-1.89362,1.07574,
-1.89819,1.07422,
-1.90582,1.06964,
-1.90582,1.06964,
-1.90887,1.07574,
-1.91498,1.07117,
-1.92261,1.07269,
-1.93024,1.06964,
-1.93329,1.07117,
-1.93939,1.07422,
-1.94702,1.07422,
-1.95465,1.07117,
-1.9577,1.06964,
-1.96838,1.07117,
-1.97906,1.07269,
-1.99127,1.07422,
-2.00348,1.07269,
-2.01263,1.07117,
-2.02026,1.06812,
-2.02789,1.07117,
-2.0401,1.07574,
-2.04926,1.07117,
-2.05688,1.06964,
-2.06604,1.06812,
-2.07367,1.06812,
-2.08435,1.07727,
-2.09198,1.07422,
-2.10114,1.05896,
-2.11029,1.07117,
-2.11487,1.07269,
-2.1225,1.07727,
-2.13013,1.07422,
-2.14081,1.07117,
-2.14844,1.07422,
-2.15759,1.07117,
-2.16827,1.07269,
-2.1759,1.07117,
-2.18506,1.07117,
-2.19421,1.06812,
-2.20795,1.07269,
-2.21405,1.07422,
-2.22168,1.07574,
-2.23083,1.07269,
-2.23694,1.06659,
-2.24762,1.07269,
-2.25677,1.07422,
-2.27051,1.06964,
-2.27509,1.07269,
-2.28271,1.06812,
-2.29187,1.07422,
-2.29797,1.07422,
-2.31171,1.07117,
-2.32086,1.06812,
-2.32849,1.06964,
-2.33612,1.07422,
-2.3468,1.07727,
-2.35748,1.07269,
-2.36664,1.06964,
-2.38037,1.06659,
-2.38953,1.07117,
-2.40021,1.07269,
-2.41394,1.07117,
-2.42462,1.06812,
-2.42767,1.07117,
-2.43378,1.0788,
-2.44293,1.07117,
-2.45361,1.07422,
-2.46429,1.06506,
-2.46735,1.06506,
-2.47345,1.07422,
-2.47955,1.07422,
-2.48566,1.07117,
-2.4826,1.06964,
-2.47955,1.06964,
-2.47345,1.06659,
-2.4704,1.06812,
-2.46124,1.07269,
-2.44598,1.06964,
-2.43073,1.07269,
-2.41852,1.06964,
-2.40326,1.07422,
-2.38342,1.07422,
-2.36359,1.06964,
-2.34375,1.06659,
-2.32391,1.07117,
-2.29645,1.07117,
-2.27966,1.07422,
-2.25983,1.06812,
-2.23999,1.07117,
-2.2171,1.07117,
-2.19421,1.07117,
-2.1759,1.07269,
-2.15912,1.06812,
-2.14081,1.06812,
-2.12097,1.07269,
-2.10571,1.07422,
-2.08588,1.07422,
-2.07062,1.07117,
-2.05536,1.06964,
-2.0401,1.06812,
-2.02637,1.0788,
-2.01416,1.07269,
-2.00043,1.06964,
-1.98975,1.06659,
-1.97601,1.06964,
-1.96838,1.07269,
-1.95313,1.08795,
-1.94397,1.06812,
-1.93481,1.06659,
-1.92261,1.06812,
-1.9165,1.06964,
-1.90887,1.07269,
-1.90125,1.06964,
-1.89819,1.07117,
-1.88904,1.07117,
-1.88293,1.07422,
-1.87836,1.07269,
-1.87531,1.06964,
-1.87225,1.06812,
-1.86462,1.07117,
-1.86615,1.07727,
-1.86157,1.07422,
-1.85547,1.06964,
-1.85547,1.06659,
-1.84937,1.07422,
-1.84784,1.07117,
-1.84326,1.06964,
-1.84326,1.06506,
-1.83868,1.06812,
-1.84174,1.07422,
-1.84631,1.07269,
-1.84631,1.06812,
-1.85089,1.06964,
-1.85242,1.06964,
-1.85242,1.07422,
-1.86005,1.07269,
-1.86005,1.07117,
-1.86157,1.07269,
-1.86462,1.06812,
-1.8692,1.06964,
-1.87378,1.06964,
-1.87531,1.06964,
-1.87378,1.06964,
-1.87378,1.06049,
-1.87683,1.07117,
-1.87531,1.07574,
-1.87683,1.07117,
-1.87683,1.06812,
-1.88141,1.06812,
-1.87683,1.06964,
-1.87988,1.07117,
-1.87988,1.07117,
-1.87836,1.06812,
-1.87836,1.07117,
-1.87531,1.06964,
-1.87378,1.06812,
-1.87378,1.07117,
-1.87378,1.06659,
-1.87378,1.06049,
-1.87531,1.07574,
-1.87378,1.06659,
-1.87378,1.06964,
-1.87378,1.06964,
-1.87378,1.07269,
-1.87531,1.07117,
-1.87225,1.07269,
-1.87531,1.06812,
-1.87378,1.06812,
-1.87836,1.07117,
-1.87988,1.06659,
-1.88141,1.06964,
-1.88141,1.07574,
-1.88293,1.06659,
-1.88751,1.06964,
-1.88599,1.07117,
-1.89056,1.06964,
-1.89972,1.0788,
-1.90582,1.07117,
-1.91193,1.08032,
-1.91956,1.07117,
-1.92719,1.07269,
-1.93481,1.07269,
-1.93787,1.06964,
-1.94244,1.06506,
-1.94702,1.07269,
-1.9577,1.07422,
-1.96686,1.07117,
-1.97296,1.06659,
-1.98059,1.06812,
-1.98669,1.07269,
-1.99738,1.06659,
-2.00653,1.07422,
-2.01263,1.06812,
-2.02179,1.06964,
-2.034,1.07422,
-2.0401,1.06812,
-2.04315,1.07117,
-2.05231,1.06964,
-2.06451,1.06659,
-2.07214,1.06964,
-2.08282,1.06964,
-2.09045,1.06964,
-2.10266,1.07117,
-2.11334,1.06506,
-2.11945,1.07269,
-2.1347,1.06964,
-2.14844,1.07269,
-2.15607,1.06964,
-2.1698,1.06812,
-2.1759,1.07422,
-2.18658,1.07422,
-2.19421,1.06812,
-2.20184,1.06659,
-2.20642,1.06659,
-2.21405,1.07117,
-2.21863,1.07574,
-2.22473,1.07422,
-2.22931,1.06812,
-2.23694,1.06506,
-2.24609,1.06812,
-2.24915,1.07117,
-2.25983,1.07574,
-2.26593,1.06964,
-2.26746,1.06506,
-2.27966,1.07117,
-2.28271,1.07574,
-2.29187,1.06659,
-2.2995,1.06659,
-2.30713,1.06506,
-2.31781,1.07422,
-2.33002,1.07422,
-2.33917,1.06964,
-2.34833,1.06506,
-2.35901,1.07117,
-2.37427,1.07117,
-2.38342,1.07269,
-2.39563,1.06964,
-2.40173,1.07269,
-2.41394,1.06506,
-2.42157,1.07269,
-2.4292,1.06812,
-2.43988,1.07422,
-2.44751,1.06964,
-2.45514,1.06049,
-2.46429,1.07269,
-2.4704,1.07269,
-2.48413,1.07422,
-2.49176,1.06812,
-2.50244,1.06049,
-2.5116,1.07117,
-2.52228,1.07117,
-2.52991,1.07117,
-2.53906,1.06812,
-2.54974,1.06659,
-2.55432,1.07422,
-2.5589,1.07117,
-2.5589,1.07422,
-2.55585,1.06964,
-2.55127,1.06506,
-2.54059,1.06659,
-2.52838,1.07574,
-2.5177,1.07422,
-2.50397,1.06812,
-2.48871,1.06659,
-2.47192,1.06964,
-2.45819,1.07269,
-2.43988,1.07727,
-2.41699,1.06506,
-2.40021,1.06506,
-2.38495,1.07269,
-2.36816,1.06964,
-2.34528,1.07269,
-2.32544,1.06506,
-2.3056,1.06964,
-2.28882,1.07422,
-2.27356,1.06964,
-2.25525,1.07574,
-2.23236,1.06812,
-2.21252,1.06659,
-2.19727,1.07422,
-2.18201,1.07117,
-2.16522,1.07269,
-2.15149,1.06659,
-2.13776,1.06506,
-2.12097,1.06506,
-2.11487,1.07117,
-2.10571,1.07422,
-2.09351,1.06659,
-2.0874,1.06354,
-2.07672,1.07117,
-2.06604,1.07269,
-2.05536,1.07117,
-2.05231,1.07117,
-2.04468,1.06354,
-2.0401,1.07269,
-2.03247,1.07117,
-2.02179,1.07117,
-2.01874,1.06812,
-2.01874,1.06354,
-2.01263,1.07117,
-2.00653,1.07269,
-2.00195,1.06812,
-1.99585,1.07117,
-1.99585,1.06506,
-1.99738,1.07117,
-1.99738,1.06964,
-1.99738,1.07422,
-1.99738,1.06659,
-1.9989,1.06506,
-2.00195,1.06964,
-2.00195,1.07117,
-2.005,1.07574,
-2.005,1.06659,
-2.00653,1.06506,
-1.99585,1.06659,
-2.01263,1.07269,
-2.01874,1.06964,
-2.02179,1.06812,
-2.02332,1.06659,
-2.02789,1.07269,
-2.02637,1.07269,
-2.034,1.06964,
-2.03247,1.06964,
-2.034,1.06506,
-2.03705,1.07117,
-2.04315,1.07117,
-2.04315,1.07422,
-2.04163,1.06659,
-2.04315,1.06354,
-2.04468,1.06659,
-2.0462,1.07117,
-2.04468,1.07422,
-2.04926,1.06659,
-2.05078,1.06506,
-2.04926,1.07117,
-2.0462,1.07117,
-2.04773,1.06812,
-2.04773,1.06964,
-2.04468,1.06354,
-2.0462,1.07117,
-2.04315,1.07422,
-2.04315,1.06964,
-2.04468,1.06812,
-2.0462,1.06506,
-2.04163,1.06659,
-2.04468,1.07269,
-2.04468,1.07117,
-2.04773,1.06812,
-2.05383,1.06506,
-2.06146,1.06354,
-2.07214,1.07727,
-2.07672,1.06812,
-2.08588,1.06506,
-2.09045,1.05896,
-2.09961,1.07269,
-2.10571,1.07117,
-2.11334,1.07269,
-2.11639,1.06659,
-2.12402,1.07117,
-2.12708,1.06659,
-2.1347,1.07117,
-2.14386,1.06354,
-2.14996,1.06964,
-2.15607,1.06659,
-2.15912,1.06506,
-2.16827,1.06964,
-2.17438,1.07574,
-2.18506,1.06812,
-2.19269,1.06812,
-2.19574,1.06812,
-2.20337,1.06812,
-2.20795,1.07117,
-2.20947,1.06812,
-2.2171,1.06659,
-2.22321,1.06964,
-2.22931,1.06964,
-2.23846,1.07269,
-2.24762,1.06964,
-2.2522,1.06659,
-2.26135,1.06964,
-2.2644,1.07117,
-2.27203,1.07269,
-2.27966,1.07269,
-2.29034,1.06812,
-2.2934,1.06354,
-2.30865,1.07269,
-2.31018,1.07422,
-2.31934,1.07269,
-2.32697,1.06812,
-2.33917,1.06964,
-2.34985,1.07269,
-2.36053,1.07269,
-2.37427,1.06659,
-2.38495,1.06354,
-2.39868,1.06659,
-2.40936,1.07269,
-2.41852,1.07422,
-2.43073,1.06812,
-2.43988,1.06812,
-2.45056,1.06964,
-2.46124,1.07269,
-2.47192,1.07117,
-2.48413,1.06812,
-2.49634,1.06964,
-2.50549,1.05743,
-2.52075,1.06964,
-2.52686,1.07422,
-2.53754,1.06659,
-2.54974,1.06354,
-2.55737,1.06812,
-2.56805,1.06659,
-2.57568,1.07422,
-2.58636,1.05743,
-2.59705,1.06354,
-2.6062,1.06812,
-2.61688,1.07117,
-2.62451,1.06812,
-2.63367,1.06506,
-2.64282,1.06964,
-2.6535,1.07269,
-2.66113,1.07269,
-2.67181,1.06964,
-2.67944,1.06506,
-2.68402,1.06506,
-2.69318,1.06964,
-2.68097,1.05896,
-2.69928,1.07269,
-2.70081,1.06812,
-2.70538,1.06964,
-2.69928,1.06506,
-2.69775,1.07422,
-2.69165,1.07269,
-2.68555,1.07117,
-2.67792,1.06506,
-2.66876,1.06812,
-2.65656,1.07727,
-2.64282,1.07117,
-2.62604,1.06659,
-2.60773,1.06964,
-2.59247,1.06964,
-2.57568,1.07422,
-2.56042,1.06659,
-2.54211,1.06964,
-2.52228,1.07269,
-2.50397,1.06812,
-2.48718,1.06812,
-2.47192,1.06964,
-2.45514,1.07117,
-2.4353,1.07727,
-2.42004,1.06964,
-2.40479,1.06964,
-2.39105,1.07269,
-2.37885,1.06659,
-2.36664,1.06964,
-2.35596,1.07269,
-2.34528,1.07117,
-2.3407,1.07574,
-2.33002,1.07117,
-2.32391,1.06659,
-2.31781,1.07117,
-2.31323,1.07269,
-2.31018,1.06964,
-2.30865,1.06659,
-2.30713,1.06659,
-2.3056,1.06812,
-2.30103,1.07117,
-2.29797,1.06659,
-2.29492,1.06812,
-2.29797,1.06659,
-2.29645,1.06659,
-2.29187,1.07117,
-2.2934,1.06964,
-2.28729,1.07269,
-2.28577,1.07117,
-2.28577,1.06506,
-2.28729,1.06812,
-2.28882,1.06964,
-2.28729,1.07117,
-2.28882,1.06354,
-2.2934,1.06812,
-2.29034,1.07269,
-2.28882,1.06812,
-2.29187,1.06659,
-2.29187,1.06812,
-2.29492,1.06659,
-2.29645,1.07422,
-2.29797,1.06964,
-2.2995,1.06964,
-2.2995,1.06964,
-2.30255,1.06812,
-2.30713,1.06964,
-2.3056,1.06964,
-2.30865,1.07117,
-2.31323,1.06812,
-2.31323,1.06659,
-2.32086,1.07117,
-2.32391,1.07269,
-2.32849,1.06812,
-2.33307,1.07117,
-2.33154,1.06659,
-2.33307,1.07269,
-2.33917,1.06964,
-2.33459,1.06812,
-2.34375,1.06812,
-2.34833,1.06964,
-2.3468,1.07117,
-2.34833,1.06964,
-2.3468,1.06049,
-2.34985,1.06812,
-2.35138,1.06964,
-2.34833,1.06812,
-2.3468,1.06659,
-2.3468,1.07117,
-2.34985,1.06506,
-2.34985,1.06659,
-2.34833,1.07727,
-2.34985,1.06812,
-2.34985,1.06964,
-2.35443,1.06812,
-2.35443,1.06812,
-2.35596,1.06812,
-2.35901,1.06812,
-2.36359,1.06354,
-2.37579,1.06659,
-2.38037,1.06659,
-2.38495,1.06812,
-2.39105,1.06964,
-2.40173,1.06049,
-2.41089,1.06812,
-2.42004,1.06049,
-2.42767,1.06964,
-2.43225,1.06812,
-2.44293,1.08032,
-2.45056,1.06812,
-2.45209,1.07117,
-2.45972,1.06964,
-2.46735,1.06812,
-2.47345,1.06812,
-2.47345,1.06506,
-2.4826,1.06812,
-2.48566,1.06964,
-2.49176,1.07269,
-2.49939,1.06506,
-2.50549,1.06049,
-2.51465,1.06812,
-2.5238,1.07422,
-2.53448,1.06659,
-2.54822,1.06812,
-2.55585,1.06506,
-2.56805,1.06964,
-2.57721,1.06812,
-2.58942,1.06506,
-2.59552,1.06506,
-2.60162,1.06506,
-2.60773,1.06659,
-2.60773,1.07117,
-2.61841,1.07117,
-2.62756,1.07117,
-2.63214,1.06659,
-2.64282,1.06049,
-2.65045,1.06812,
-2.65656,1.06964,
-2.66113,1.07117,
-2.67334,1.06506,
-2.68097,1.06354,
-2.69165,1.07727,
-2.70081,1.07117,
-2.71454,1.06659,
-2.72369,1.06659,
-2.73285,1.06812,
-2.74048,1.07269,
-2.75269,1.06506,
-2.76489,1.06506,
-2.77252,1.06659,
-2.77863,1.06659,
-2.79083,1.07117,
-2.79999,1.08643,
-2.81067,1.06812,
-2.82288,1.06659,
-2.83356,1.06659,
-2.83966,1.07727,
-2.85187,1.07117,
-2.86255,1.06506,
-2.8717,1.06049,
-2.88239,1.06812,
-2.89001,1.06964,
-2.89612,1.07117,
-2.89917,1.06659,
-2.89764,1.06354,
-2.89917,1.06659,
-2.89307,1.06812,
-2.88696,1.06354,
-2.88086,1.07269,
-2.87323,1.06354,
-2.85645,1.06506,
-2.84729,1.07422,
-2.83508,1.06506,
-2.82288,1.06506,
-2.80457,1.06659,
-2.79083,1.06506,
-2.76794,1.06964,
-2.75269,1.07269,
-2.73438,1.06812,
-2.71301,1.06964,
-2.69318,1.06354,
-2.67029,1.07269,
-2.65198,1.06964,
-2.63519,1.06659,
-2.61688,1.06354,
-2.59094,1.06659,
-2.57568,1.07269,
-2.55737,1.07269,
-2.54211,1.06506,
-2.52686,1.06506,
-2.50854,1.06506,
-2.49634,1.07117,
-2.48718,1.06659,
-2.4704,1.06506,
-2.45514,1.06812,
-2.44446,1.06506,
-2.43225,1.06812,
-2.41699,1.07117,
-2.40631,1.06506,
-2.39563,1.06354,
-2.38037,1.06659,
-2.37122,1.06812,
-2.36511,1.06964,
-2.35291,1.06812,
-2.3468,1.06354,
-2.3407,1.06354,
-2.33002,1.06812,
-2.32239,1.06659,
-2.31476,1.06506,
-2.30865,1.06506,
-2.2995,1.06659,
-2.2934,1.06812,
-2.28424,1.06812,
-2.28271,1.06659,
-2.27203,1.06506,
-2.26593,1.05591,
-2.2583,1.06812,
-2.25372,1.06812,
-2.25525,1.06812,
-2.2522,1.05743,
-2.2522,1.06659,
-2.24915,1.06354,
-2.24609,1.08795,
-2.25067,1.06354,
-2.24762,1.06049,
-2.24457,1.06812,
-2.25067,1.06964,
-2.2522,1.06812,
-2.2522,1.06506,
-2.25983,1.06659,
-2.25983,1.06506,
-2.2644,1.06812,
-2.26746,1.06506,
-2.27356,1.06812,
-2.25983,1.05438,
-2.28424,1.06506,
-2.29034,1.06964,
-2.29645,1.06506,
-2.30255,1.06659,
-2.31323,1.06354,
-2.31628,1.06506,
-2.32239,1.06964,
-2.32391,1.06964,
-2.32849,1.06354,
-2.33002,1.06049,
-2.33307,1.06659,
-2.33307,1.06659,
-2.33307,1.06964,
-2.33459,1.06659,
-2.33459,1.06049,
-2.33307,1.06659,
-2.33154,1.06812,
-2.33459,1.06659,
-2.34375,1.06354,
-2.34222,1.06354,
-2.34528,1.06049,
-2.34528,1.06812,
-2.34985,1.06812,
-2.35291,1.06964,
-2.35443,1.06049,
-2.35443,1.06354,
-2.35443,1.06659,
-2.35443,1.06964,
-2.36206,1.06506,
-2.36511,1.06354,
-2.37122,1.06506,
-2.38037,1.06659,
-2.3819,1.06812,
-2.3941,1.06354,
-2.40173,1.05896,
-2.40631,1.06812,
-2.41547,1.06659,
-2.42004,1.05896,
-2.4292,1.05896,
-2.4353,1.06506,
-2.43988,1.06506,
-2.45209,1.06812,
-2.45972,1.06812,
-2.46429,1.06659,
-2.47345,1.06659,
-2.48413,1.06354,
-2.49329,1.06964,
-2.49786,1.06964,
-2.50702,1.05743,
-2.5177,1.06506,
-2.52533,1.06659,
-2.53601,1.06964,
-2.54822,1.06812,
-2.5528,1.06506,
-2.56348,1.06659,
-2.56805,1.06506,
-2.58179,1.06812,
-2.58331,1.06506,
-2.59094,1.06506,
-2.6001,1.06354,
-2.60925,1.06659,
-2.61688,1.06659,
-2.62756,1.06812,
-2.63977,1.06812,
-2.65045,1.06506,
-2.66113,1.06506,
-2.66724,1.06506,
-2.67334,1.06659,
-2.68402,1.07117,
-2.69623,1.06506,
-2.70233,1.06506,
-2.71149,1.07269,
-2.71912,1.06812,
-2.72522,1.06354,
-2.72827,1.05743,
-2.74048,1.06354,
-2.74353,1.07117,
-2.75421,1.06812,
-2.76184,1.06506,
-2.77405,1.06659,
-2.7771,1.06506,
-2.78931,1.06812,
-2.79694,1.06659,
-2.80609,1.05133,
-2.81525,1.06354,
-2.82288,1.06506,
-2.82898,1.06812,
-2.83813,1.06964,
-2.83813,1.06354,
-2.84729,1.05896,
-2.85034,1.05896,
-2.85645,1.06812,
-2.86102,1.07117,
-2.86255,1.06506,
-2.8656,1.05896,
-2.85797,1.06506,
-2.85645,1.06506,
-2.84729,1.06964,
-2.83661,1.06354,
-2.82745,1.06354,
-2.81067,1.06049,
-2.79388,1.06964,
-2.77405,1.06659,
-2.75574,1.06506,
-2.73132,1.05896,
-2.71149,1.06049,
-2.68555,1.06964,
-2.65961,1.06812,
-2.63672,1.06506,
-2.61536,1.06049,
-2.59094,1.06354,
-2.565,1.06659,
-2.53906,1.06354,
-2.51923,1.05743,
-2.49481,1.06354,
-2.46887,1.06354,
-2.45209,1.05896,
-2.4292,1.06659,
-2.41089,1.06354,
-2.39258,1.06049,
-2.37885,1.06659,
-2.36511,1.06812,
-2.35291,1.06506,
-2.3407,1.06506,
-2.32697,1.06049,
-2.31476,1.06659,
-2.30255,1.06506,
-2.29034,1.06049,
-2.28119,1.05438,
-2.26746,1.06506,
-2.25983,1.06354,
-2.25372,1.06812,
-2.24915,1.07269,
-2.23999,1.06354,
-2.23083,1.05896,
-2.22168,1.06506,
-2.211,1.06659,
-2.20642,1.06659,
-2.19727,1.05896,
-2.18658,1.06049,
-2.17743,1.06506,
-2.16827,1.06812,
-2.16064,1.06659,
-2.15302,1.06659,
-2.14996,1.06354,
-2.14386,1.06354,
-2.13928,1.06659,
-2.1286,1.06964,
-2.13013,1.06812,
-2.12402,1.06049,
-2.1225,1.05896,
-2.11334,1.06506,
-2.11029,1.06812,
-2.10419,1.06354,
-2.10114,1.06049,
-2.09656,1.06354,
-2.09503,1.06049,
-2.09503,1.06964,
-2.09351,1.06049,
-2.09198,1.06354,
-2.09503,1.06049,
-2.09503,1.06506,
-2.09656,1.06964,
-2.10114,1.06049,
-2.10266,1.06354,
-2.10114,1.06049,
-2.10114,1.06659,
-2.09961,1.06964,
-2.09961,1.06049,
-2.09656,1.06049,
-2.10114,1.06049,
-2.09503,1.06812,
-2.09656,1.06964,
-2.09198,1.06049,
-2.0874,1.05591,
-2.0874,1.06354,
-2.08588,1.06812,
-2.08588,1.07117,
-2.08435,1.06506,
-2.08282,1.06049,
-2.08282,1.06354,
-2.08282,1.06354,
-2.07977,1.06964,
-2.0813,1.06049,
-2.0813,1.05591,
-2.0813,1.05896,
-2.07825,1.06049,
-2.08282,1.07117,
-2.08435,1.06354,
-2.08435,1.06049,
-2.0874,1.05743,
-2.08588,1.06506,
-2.08435,1.06964,
-2.0874,1.06354,
-2.08893,1.05896,
-2.09045,1.06354,
-2.09198,1.06812,
-2.10266,1.06659,
-2.10571,1.06354,
-2.10724,1.06049,
-2.11487,1.06049,
-2.11945,1.06812,
-2.12402,1.07117,
-2.12708,1.06049,
-2.13013,1.06049,
-2.1347,1.06049,
-2.14233,1.06659,
-2.15149,1.06964,
-2.15759,1.05743,
-2.16827,1.06049,
-2.1759,1.06049,
-2.18353,1.06354,
-2.19269,1.06659,
-2.19574,1.06354,
-2.20184,1.06049,
-2.20795,1.05133,
-2.21558,1.06812,
-2.22473,1.07269,
-2.23236,1.06354,
-2.24457,1.05896,
-2.25067,1.05896,
-2.25983,1.06659,
-2.27051,1.05896,
-2.27966,1.06354,
-2.29187,1.05743,
-2.30103,1.05896,
-2.30865,1.06812,
-2.31628,1.06354,
-2.33002,1.06049,
-2.33612,1.05896,
-2.34985,1.06049,
-2.36053,1.06659,
-2.36969,1.06659,
-2.37885,1.06506,
-2.388,1.05438,
-2.39716,1.06049,
-2.40479,1.05286,
-2.41394,1.06659,
-2.42004,1.05896,
-2.43073,1.06354,
-2.43988,1.06049,
-2.44446,1.06964,
-2.45209,1.06506,
-2.46277,1.06049,
-2.47192,1.05591,
-2.47803,1.06049,
-2.48871,1.06506,
-2.49481,1.06354,
-2.50549,1.06049,
-2.51312,1.05286,
-2.5238,1.05896,
-2.52686,1.06354,
-2.53754,1.06659,
-2.54669,1.06049,
-2.55432,1.06049,
-2.56653,1.05896,
-2.58026,1.06049,
-2.58789,1.06659,
-2.59705,1.05896,
-2.60468,1.05743,
-2.6123,1.06506,
-2.61536,1.06506,
-2.61993,1.06659,
-2.62299,1.06049,
-2.61841,1.05286,
-2.61993,1.06659,
-2.61078,1.05743,
-2.60315,1.06354,
-2.58942,1.06354,
-2.57721,1.06049,
-2.56195,1.06506,
-2.54669,1.06354,
-2.52838,1.06354,
-2.50092,1.05743,
-2.48413,1.05896,
-2.45819,1.05743,
-2.43835,1.06812,
-2.40936,1.06659,
-2.388,1.06659,
-2.36511,1.05743,
-2.34528,1.05743,
-2.32544,1.06812,
-2.29797,1.06812,
-2.28119,1.06049,
-2.25983,1.05591,
-2.24304,1.05896,
-2.22473,1.06506,
-2.20642,1.06659,
-2.18811,1.05896,
-2.17133,1.06354,
-2.15149,1.05896,
-2.1347,1.06354,
-2.12402,1.06812,
-2.10876,1.05896,
-2.09351,1.06049,
-2.08435,1.05896,
-2.0752,1.06506,
-2.06604,1.06354,
-2.05688,1.05896,
-2.04468,1.05896,
-2.03705,1.05896,
-2.02789,1.06049,
-2.01569,1.07117,
-2.00806,1.06812,
-1.9989,1.05743,
-1.98822,1.06049,
-1.97906,1.06506,
-1.97144,1.06812,
-1.96533,1.06049,
-1.95313,1.05743,
-1.94702,1.05896,
-1.93939,1.05896,
-1.93634,1.06354,
-1.93024,1.06354,
-1.92413,1.05591,
-1.91803,1.06354,
-1.91193,1.06354,
-1.90887,1.07117,
-1.90277,1.06506,
-1.90125,1.05743,
-1.89667,1.05896,
-1.89667,1.06506,
-1.89514,1.06354,
-1.89514,1.06354,
-1.89514,1.06354,
-1.89362,1.05743,
-1.89362,1.06659,
-1.88904,1.06812,
-1.88904,1.05896,
-1.89362,1.05896,
-1.89362,1.06049,
-1.89972,1.06049,
-1.89514,1.06659,
-1.89514,1.06354,
-1.89362,1.06049,
-1.89514,1.0498,
-1.89819,1.05896,
-1.89056,1.06659,
-1.89362,1.06354,
-1.89056,1.06049,
-1.89514,1.05743,
-1.88904,1.06354,
-1.88599,1.06659,
-1.88446,1.05896,
-1.88904,1.05591,
-1.88751,1.05743,
-1.88446,1.06506,
-1.88751,1.06659,
-1.88599,1.05896,
-1.88751,1.05591,
-1.88904,1.06049,
-1.89514,1.06659,
-1.89667,1.06049,
-1.89667,1.05896,
-1.89667,1.05896,
-1.90125,1.06049,
-1.90582,1.06354,
-1.90735,1.06049,
-1.91193,1.06049,
-1.91498,1.05591,
-1.91498,1.05896,
-1.91956,1.05896,
-1.92108,1.06506,
-1.93024,1.06354,
-1.93176,1.05896,
-1.93634,1.05591,
-1.93939,1.06506,
-1.9455,1.06812,
-1.95007,1.05743,
-1.95313,1.05743,
-1.95923,1.05743,
-1.9577,1.06659,
-1.96686,1.06506,
-1.97449,1.05743,
-1.98212,1.05591,
-1.98517,1.05896,
-1.99585,1.06049,
-2.00195,1.06506,
-2.00958,1.05743,
-2.01569,1.06049,
-2.02484,1.05743,
-2.03247,1.06049,
-2.0401,1.06506,
-2.04773,1.05743,
-2.05231,1.05743,
-2.06451,1.05896,
-2.06757,1.06506,
-2.07672,1.06812,
-2.09045,1.05133,
-2.09656,1.07574,
-2.11334,1.05438,
-2.11945,1.06049,
-2.13013,1.06354,
-2.13928,1.05896,
-2.14691,1.05286,
-2.15607,1.06354,
-2.16827,1.06354,
-2.17285,1.05133,
-2.18811,1.05286,
-2.19421,1.05743,
-2.2049,1.06049,
-2.2171,1.05591,
-2.23083,1.06659,
-2.24304,1.05896,
-2.25067,1.05743,
-2.26288,1.05743,
-2.26746,1.05743,
-2.27814,1.06812,
-2.28729,1.06354,
-2.29797,1.05591,
-2.30103,1.05591,
-2.30713,1.06506,
-2.31781,1.06354,
-2.32391,1.05896,
-2.33002,1.05743,
-2.33307,1.05438,
-2.34222,1.06354,
-2.35138,1.06506,
-2.35901,1.05438,
-2.36816,1.05743,
-2.37732,1.05438,
-2.38342,1.05896,
-2.38953,1.06506,
-2.39868,1.06049,
-2.41089,1.05743,
-2.42157,1.05896,
-2.43225,1.06049,
-2.44598,1.06964,
-2.45819,1.07574,
-2.46735,1.05438,
-2.47955,1.05591,
-2.49023,1.06354,
-2.49634,1.06506,
-2.50549,1.05743,
-2.50702,1.05286,
-2.50549,1.05743,
-2.50702,1.05286,
-2.49634,1.06354,
-2.49176,1.05743,
-2.48108,1.05743,
-2.47192,1.06354,
-2.45972,1.06354,
-2.44751,1.06049,
-2.43073,1.07574,
-2.41699,1.05591,
-2.39563,1.05591,
-2.37579,1.06049,
-2.35291,1.06506,
-2.33612,1.05591,
-2.31171,1.05286,
-2.29187,1.05438,
-2.27203,1.06354,
-2.25067,1.06049,
-2.22931,1.05896,
-2.20795,1.05438,
-2.19116,1.05896,
-2.17438,1.06354,
-2.15759,1.06354,
-2.14081,1.06049,
-2.1225,1.05591,
-2.11182,1.05438,
-2.09351,1.05743,
-2.0813,1.05896,
-2.06757,1.05896,
-2.05536,1.05438,
-2.04315,1.05591,
-2.03857,1.05896,
-2.03094,1.06354,
-2.02026,1.05743,
-2.00958,1.05591,
-1.9989,1.05591,
-1.98975,1.05896,
-1.97906,1.06506,
-1.97144,1.06049,
-1.96228,1.05591,
-1.95313,1.05591,
-1.94702,1.06049,
-1.94092,1.05896,
-1.93481,1.05743,
-1.92108,1.05591,
-1.91956,1.05896,
-1.91193,1.06506,
-1.90887,1.05896,
-1.9104,1.04218,
-1.90887,1.05591,
-1.91345,1.05896,
-1.91345,1.06354,
-1.91498,1.06506,
-1.91803,1.05743,
-1.9165,1.05438,
-1.91803,1.05286,
-1.92261,1.05896,
-1.9165,1.06049,
-1.91498,1.06049,
-1.91498,1.05133,
-1.91803,1.05743,
-1.91803,1.06354,
-1.91803,1.06354,
-1.91956,1.05743,
-1.92413,1.05286,
-1.92871,1.05743,
-1.93024,1.06049,
-1.93024,1.06354,
-1.93329,1.05591,
-1.93329,1.05743,
-1.93329,1.05591,
-1.93481,1.05743,
-1.93481,1.06049,
-1.93329,1.05896,
-1.93176,1.05743,
-1.92871,1.05743,
-1.92871,1.05896,
-1.92413,1.06354,
-1.93024,1.05743,
-1.92871,1.05133,
-1.92871,1.05743,
-1.93176,1.06049,
-1.93176,1.06506,
-1.93329,1.05743,
-1.93481,1.05438,
-1.93634,1.05438,
-1.93481,1.05743,
-1.93634,1.06049,
-1.93634,1.05896,
-1.93481,1.05286,
-1.93176,1.06049,
-1.93634,1.06049,
-1.93634,1.06049,
-1.93634,1.06049,
-1.93939,1.05743,
-1.94397,1.05286,
-1.94855,1.05896,
-1.9516,1.06049,
-1.9516,1.05743,
-1.9516,1.05896,
-1.9516,1.05591,
-1.95313,1.05896,
-1.9577,1.05743,
-1.96533,1.05743,
-1.96533,1.05591,
-1.96991,1.05591,
-1.97601,1.06506,
-1.98212,1.05438,
-1.9928,1.05743,
-1.99738,1.05286,
-2.00806,1.05438,
-2.01416,1.05591,
-2.02026,1.06049,
-2.02332,1.06506,
-2.034,1.05591,
-2.03857,1.05743,
-2.04468,1.05896,
-2.04926,1.05438,
-2.05841,1.05896,
-2.06146,1.05133,
-2.06451,1.05743,
-2.0752,1.05743,
-2.07977,1.06659,
-2.08588,1.05743,
-2.09503,1.05286,
-2.10266,1.05438,
-2.11029,1.05896,
-2.11945,1.05896,
-2.12708,1.05743,
-2.13623,1.04675,
-2.14386,1.05743,
-2.15607,1.06506,
-2.1698,1.05743,
-2.18048,1.05743,
-2.18964,1.05438,
-2.19879,1.05133,
-2.20947,1.06354,
-2.21863,1.05896,
-2.22321,1.05896,
-2.23846,1.05286,
-2.24609,1.05591,
-2.2522,1.05743,
-2.26135,1.05896,
-2.27051,1.05591,
-2.27356,1.05133,
-2.28424,1.05743,
-2.29034,1.06049,
-2.29797,1.05743,
-2.30713,1.05743,
-2.31018,1.05591,
-2.31781,1.05591,
-2.32697,1.05438,
-2.33459,1.05896,
-2.34528,1.05591,
-2.35443,1.05743,
-2.36359,1.05896,
-2.36816,1.05591,
-2.37579,1.05591,
-2.388,1.05743,
-2.3941,1.05743,
-2.39868,1.06049,
-2.40936,1.06506,
-2.40631,1.05743,
-2.40936,1.05896,
-2.41241,1.0498,
-2.40936,1.05438,
-2.40326,1.05896,
-2.3941,1.05896,
-2.38342,1.06049,
-2.36969,1.04675,
-2.35901,1.05743,
-2.34528,1.05896,
-2.32849,1.05743,
-2.31171,1.05743,
-2.29187,1.05286,
-2.27356,1.05591,
-2.2522,1.05743,
-2.23083,1.05743,
-2.211,1.05591,
-2.19116,1.04828,
-2.16827,1.05591,
-2.14691,1.06354,
-2.12708,1.05591,
-2.10571,1.05896,
-2.08435,1.05286,
-2.07367,1.05743,
-2.05231,1.05896,
-2.03857,1.05743,
-2.01874,1.05591,
-2.005,1.05133,
-1.98517,1.05591,
-1.97296,1.06506,
-1.95313,1.05896,
-1.93787,1.05438,
-1.92871,1.05286,
-1.91345,1.05286,
-1.90125,1.05743,
-1.89514,1.06354,
-1.87836,1.05591,
-1.8692,1.05591,
-1.8631,1.05591,
-1.85394,1.05896,
-1.84631,1.05591,
-1.84021,1.05743,
-1.83563,1.0498,
-1.82495,1.05743,
-1.81885,1.05896,
-1.80969,1.06354,
-1.80359,1.06049,
-1.80054,1.04828,
-1.79596,1.05591,
-1.79443,1.06049,
-1.78986,1.06049,
-1.78986,1.05591,
-1.78528,1.0498,
-1.78223,1.06049,
-1.77765,1.06049,
-1.77765,1.05438,
-1.77307,1.05896,
-1.77155,1.05133,
-1.7746,1.05743,
-1.77917,1.06659,
-1.77765,1.05591,
-1.77765,1.05896,
-1.77765,1.05133,
-1.77307,1.05286,
-1.77307,1.05743,
-1.77612,1.05896,
-1.77307,1.05743,
-1.77307,1.05286,
-1.77307,1.05438,
-1.77155,1.06049,
-1.76849,1.05743,
-1.77155,1.05438,
-1.77002,1.05438,
-1.77155,1.05743,
-1.7746,1.06049,
-1.77155,1.06049,
-1.77765,1.05591,
-1.77307,1.05286,
-1.77155,1.05591,
-1.7746,1.05743,
-1.77307,1.05743,
-1.77307,1.05286,
-1.7746,1.05438,
-1.78223,1.05438,
-1.77917,1.06354,
-1.78528,1.05438,
-1.7868,1.05591,
-1.78986,1.05286,
-1.79443,1.05286,
-1.79749,1.06354,
-1.79749,1.06049,
-1.80359,1.05743,
-1.80664,1.05133,
-1.80969,1.05896,
-1.81274,1.06049,
-1.82037,1.05743,
-1.828,1.06049,
-1.83716,1.05286,
-1.84479,1.05591,
-1.84631,1.06049,
-1.85852,1.05743,
-1.86462,1.05743,
-1.87073,1.05133,
-1.87531,1.0498,
-1.88293,1.06049,
-1.88751,1.05743,
-1.89667,1.06049,
-1.90277,1.05591,
-1.9104,1.05286,
-1.9165,1.06049,
-1.91956,1.05896,
-1.92261,1.05438,
-1.93481,1.05133,
-1.93787,1.05591,
-1.94244,1.06049,
-1.95007,1.05591,
-1.96381,1.05896,
-1.97144,1.05591,
-1.98364,1.05591,
-1.9928,1.05896,
-2.00195,1.05286,
-2.01569,1.07727,
-2.01874,1.05286,
-2.02789,1.05438,
-2.04163,1.05743,
-2.05078,1.06049,
-2.06146,1.05591,
-2.07214,1.0498,
-2.08282,1.05591,
-2.09503,1.06049,
-2.10419,1.05896,
-2.11792,1.05896,
-2.12708,1.05133,
-2.13776,1.05591,
-2.14691,1.05896,
-2.16064,1.05896,
-2.17438,1.05438,
-2.18353,1.05133,
-2.20184,1.05438,
-2.21558,1.05743,
-2.22473,1.05591,
-2.23999,1.05743,
-2.25372,1.05133,
-2.26593,1.04523,
-2.27966,1.06354,
-2.29034,1.06049,
-2.30713,1.05896,
-2.31476,1.05286,
-2.32544,1.05133,
-2.3407,1.06049,
-2.35443,1.0788,
-2.36511,1.05896,
-2.37732,1.05133,
-2.388,1.05438,
-2.39868,1.06659,
-2.41241,1.06049,
-2.41852,1.05591,
-2.4292,1.05438,
-2.43835,1.05896,
-2.44598,1.05743,
-2.45209,1.05743,
-2.45514,1.05438,
-2.45819,1.05286,
-2.45209,1.05286,
-2.44751,1.06049,
-2.44598,1.05591,
-2.43683,1.05591,
-2.43225,1.05438,
-2.42157,1.05438,
-2.41089,1.05743,
-2.40173,1.05896,
-2.39105,1.05133,
-2.37579,1.05286,
-2.36053,1.05743,
-2.3407,1.05896,
-2.32391,1.05133,
-2.30255,1.05591,
-2.28424,1.05133,
-2.25983,1.05438,
-2.24152,1.06354,
-2.22015,1.05286,
-2.2049,1.05438,
-2.18506,1.05133,
-2.17133,1.05591,
-2.15302,1.05286,
-2.14081,1.05591,
-2.12097,1.05743,
-2.10876,1.05591,
-2.09351,1.05286,
-2.0874,1.06354,
-2.07367,1.05896,
-2.06604,1.05743,
-2.05688,1.05438,
-2.04773,1.05438,
-2.04163,1.05896,
-2.02789,1.05896,
-2.02179,1.05438,
-2.01416,1.05286,
-2.00806,1.05286,
-2.00043,1.06506,
-1.99127,1.06049,
-1.98517,1.05286,
-1.97601,1.05438,
-1.97449,1.05438,
-1.96991,1.05591,
-1.96381,1.06049,
-1.9577,1.06049,
-1.95618,1.05743,
-1.9516,1.05591,
-1.94702,1.05438,
-1.94397,1.05591,
-1.94244,1.06049,
-1.94397,1.04828,
-1.94244,1.05743,
-1.94397,1.06049,
-1.9455,1.06049,
-1.95007,1.0498,
-1.95313,1.05286,
-1.9577,1.04675,
-1.96381,1.05743,
-1.96533,1.05591,
-1.96991,1.05743,
-1.97296,1.05133,
-1.97906,1.05591,
-1.98059,1.05743,
-1.98364,1.05591,
-1.98212,1.05591,
-1.98669,1.05438,
-1.98822,1.06964,
-1.98975,1.05896,
-1.98669,1.06049,
-1.98669,1.05438,
-1.98822,1.0498,
-1.98364,1.05743,
-1.97906,1.05438,
-1.98059,1.06049,
-1.97296,1.06506,
-1.96991,1.05591,
-1.96686,1.06049,
-1.96686,1.06354,
-1.96533,1.05896,
-1.95923,1.0498,
-1.96381,1.05286,
-1.96228,1.05743,
-1.9577,1.06049,
-1.95465,1.06049,
-1.95313,1.05438,
-1.95313,1.05438,
-1.95465,1.05743,
-1.95465,1.05896,
-1.95618,1.05743,
-1.95465,1.05591,
-1.95465,1.05591,
-1.95313,1.06049,
-1.9577,1.05591,
-1.9577,1.06049,
-1.96686,1.05591,
-1.9577,1.05286,
-1.95923,1.05896,
-1.96228,1.05438,
-1.96533,1.06049,
-1.96686,1.05438,
-1.97296,1.05133,
-1.97449,1.05743,
-1.97754,1.05896,
-1.98364,1.05438,
-1.98517,1.05438,
-1.9928,1.06506,
-1.9989,1.05743,
-2.00653,1.05743,
-2.00806,1.05743,
-2.01874,1.05743,
-2.02179,1.05438,
-2.02789,1.05591,
-2.03552,1.05896,
-2.0401,1.05591,
-2.04163,1.05438,
-2.04926,1.05133,
-2.05688,1.05133,
-2.05994,1.05591,
-2.07062,1.06354,
-2.07672,1.05591,
-2.08282,1.05438,
-2.08893,1.05133,
-2.10266,1.05743,
-2.11334,1.05743,
-2.1225,1.05438,
-2.1347,1.05591,
-2.13928,1.05133,
-2.14539,1.05743,
-2.15302,1.05896,
-2.15912,1.05286,
-2.16217,1.05591,
-2.1698,1.05438,
-2.1759,1.05438,
-2.18811,1.05896,
-2.19421,1.05438,
-2.19879,1.05286,
-2.20795,1.0498,
-2.2171,1.05591,
-2.22321,1.05743,
-2.23236,1.05286,
-2.24304,1.05133,
-2.24762,1.05743,
-2.25983,1.06049,
-2.26593,1.05743,
-2.27814,1.05286,
-2.28424,1.05438,
-2.29034,1.05438,
-2.2995,1.05743,
-2.30865,1.05896,
-2.31018,1.04523,
-2.33002,1.06354,
-2.34222,1.05743,
-2.34985,1.05591,
-2.36053,1.05591,
-2.36969,1.05438,
-2.38037,1.05133,
-2.388,1.05286,
-2.38953,1.06964,
-2.39563,1.05591,
-2.39258,1.05438,
-2.3941,1.0498,
-2.38647,1.05286,
-2.38037,1.05743,
-2.36969,1.05896,
-2.36053,1.05591,
-2.34985,1.05438,
-2.33154,1.05591,
-2.31628,1.05591,
-2.2995,1.05743,
-2.28424,1.05438,
-2.26288,1.05438,
-2.24457,1.05438,
-2.22321,1.05591,
-2.20184,1.05591,
-2.18658,1.05438,
-2.16827,1.05743,
-2.14844,1.05438,
-2.1347,1.04828,
-2.11792,1.05743,
-2.09961,1.05438,
-2.08282,1.05286,
-2.06757,1.05133,
-2.05078,1.05591,
-2.03857,1.05743,
-2.02332,1.05438,
-2.01111,1.05286,
-1.99738,1.05438,
-1.98212,1.05743,
-1.96838,1.05591,
-1.95618,1.05591,
-1.9455,1.05286,
-1.93329,1.05438,
-1.92871,1.05591,
-1.9165,1.05438,
-1.9104,1.05591,
-1.90277,1.0498,
-1.89667,1.05438,
-1.89362,1.05743,
-1.88904,1.05286,
-1.88599,1.05438,
-1.88599,1.05286,
-1.88599,1.05438,
-1.87988,1.06049,
-1.88141,1.05896,
-1.87683,1.05286,
-1.87988,1.05438,
-1.87531,1.05591,
-1.87225,1.05743,
-1.8692,1.05438,
-1.86768,1.04828,
-1.86768,1.05286,
-1.87073,1.05743,
-1.87378,1.05591,
-1.87378,1.05438,
-1.87836,1.05133,
-1.87836,1.05286,
-1.87836,1.05591,
-1.87836,1.05438,
-1.87988,1.05743,
-1.88293,1.05286,
-1.88446,1.05286,
-1.88446,1.05286,
-1.88751,1.05743,
-1.88904,1.05743,
-1.89056,1.05133,
-1.89667,1.0498,
-1.89667,1.05591,
-1.89972,1.05591,
-1.89819,1.05591,
-1.90125,1.05286,
-1.90277,1.05286,
-1.90582,1.05591,
-1.90735,1.05591,
-1.90887,1.05438,
-1.91345,1.05286,
-1.91345,1.05286,
-1.91803,1.05743,
-1.91803,1.05896,
-1.92413,1.05743,
-1.92413,1.05286,
-1.93329,1.0498,
-1.93329,1.05286,
-1.93634,1.05591,
-1.94092,1.05591,
-1.94702,1.05286,
-1.94855,1.05286,
-1.95313,1.05743,
-1.95618,1.06354,
-1.96228,1.05591,
-1.96381,1.05133,
-1.96991,1.05438,
-1.97144,1.05591,
-1.97601,1.05591,
-1.97754,1.06049,
-1.98669,1.0498,
-1.99127,1.05438,
-1.99585,1.05438,
-2.00195,1.05438,
-2.00806,1.05438,
-2.01569,1.05286,
-2.02332,1.05591,
-2.02789,1.05438,
-2.03705,1.05591,
-2.04468,1.05896,
-2.05383,1.04828,
-2.05994,1.05133,
-2.06146,1.05286,
-2.07062,1.05591,
-2.07672,1.06049,
-2.07825,1.05286,
-2.08435,1.05133,
-2.09045,1.05438,
-2.09656,1.05591,
-2.10571,1.05743,
-2.11029,1.05133,
-2.11334,1.05286,
-2.11639,1.05133,
-2.12402,1.05591,
-2.12555,1.05591,
-2.1347,1.05286,
-2.13776,1.05133,
-2.14539,1.05133,
-2.15302,1.05133,
-2.15912,1.05896,
-2.16827,1.05133,
-2.1759,1.05438,
-2.18506,1.05286,
-2.19421,1.05743,
-2.19879,1.05591,
-2.20795,1.0498,
-2.21558,1.05133,
-2.22473,1.05438,
-2.23236,1.05591,
-2.23999,1.05591,
-2.24609,1.05286,
-2.25372,1.05286,
-2.26288,1.05286,
-2.27356,1.05438,
-2.28119,1.05743,
-2.29034,1.05286,
-2.30103,1.05438,
-2.31018,1.0498,
-2.32391,1.05896,
-2.32849,1.05438,
-2.34222,1.04828,
-2.35443,1.0498,
-2.36511,1.05133,
-2.37427,1.05591,
-2.38647,1.05743,
-2.39716,1.05133,
-2.40936,1.04828,
-2.42004,1.05286,
-2.43225,1.05591,
-2.43835,1.05896,
-2.44904,1.05286,
-2.45361,1.05133,
-2.46124,1.05133,
-2.46277,1.05743,
-2.46124,1.05896,
-2.45819,1.05286,
-2.45209,1.05133,
-2.44751,1.05133,
-2.43683,1.05743,
-2.4292,1.05896,
-2.41699,1.0498,
-2.39716,1.05286,
-2.3819,1.05286,
-2.36359,1.07117,
-2.34985,1.06049,
-2.33154,1.0498,
-2.31323,1.05438,
-2.28882,1.05286,
-2.26746,1.05743,
-2.24304,1.06354,
-2.22015,1.05286,
-2.19879,1.05743,
-2.17896,1.05591,
-2.15759,1.05743,
-2.13318,1.05591,
-2.11334,1.05133,
-2.09503,1.05286,
-2.0752,1.05133,
-2.05841,1.05286,
-2.04468,1.05743,
-2.02332,1.05133,
-2.01111,1.05286,
-1.9989,1.05438,
-1.98212,1.05438,
-1.97296,1.05743,
-1.9577,1.0498,
-1.9455,1.0498,
-1.94092,1.05133,
-1.92871,1.05438,
-1.91956,1.05896,
-1.90887,1.0498,
-1.90735,1.05133,
-1.89667,1.05591,
-1.89362,1.05286,
-1.88599,1.05896,
-1.87836,1.04828,
-1.87225,1.05286,
-1.86462,1.05438,
-1.86157,1.05591,
-1.85547,1.05591,
-1.84937,1.0498,
-1.84784,1.05286,
-1.84631,1.0437,
-1.84479,1.05438,
-1.84021,1.05743,
-1.83868,1.05133,
-1.83563,1.0498,
-1.83716,1.05133,
-1.83411,1.05743,
-1.83411,1.05591,
-1.83258,1.05438,
-1.83411,1.05286,
-1.83411,1.04675,
-1.83258,1.07269,
-1.83716,1.06506,
-1.84326,1.0498,
-1.84631,1.0498,
-1.85089,1.04828,
-1.85242,1.05438,
-1.85547,1.05743,
-1.86157,1.05286,
-1.8631,1.05133,
-1.8631,1.0498,
-1.86615,1.05743,
-1.86462,1.05591,
-1.86768,1.04828,
-1.8692,1.0498,
-1.87378,1.0498,
-1.87378,1.05591,
-1.87225,1.06506,
-1.87225,1.0498,
-1.87378,1.05133,
-1.87225,1.0498,
-1.87378,1.05591,
-1.87225,1.05743,
-1.87531,1.05286,
-1.87531,1.05133,
-1.87683,1.0498,
-1.87531,1.05286,
-1.88141,1.05896,
-1.88446,1.05438,
-1.88599,1.05438,
-1.89362,1.04828,
-1.89819,1.05438,
-1.89972,1.05743,
-1.90735,1.05133,
-1.90735,1.05286,
-1.9165,1.04828,
-1.9165,1.05286,
-1.92719,1.05743,
-1.93634,1.0498,
-1.93634,1.03912,
-1.94092,1.04675,
-1.94855,1.05743,
-1.95313,1.05438,
-1.95465,1.04828,
-1.95923,1.05438,
-1.96838,1.04828,
-1.97144,1.05133,
-1.97449,1.05743,
-1.98059,1.05286,
-1.98822,1.05133,
-1.99585,1.05286,
-2.00348,1.05591,
-2.00806,1.05591,
-2.01416,1.03912,
-2.02026,1.05286,
-2.02179,1.05133,
-2.03094,1.05743,
-2.03552,1.05896,
-2.03857,1.05438,
-2.04468,1.0498,
-2.05383,1.05286,
-2.05841,1.05438,
-2.07062,1.06506,
-2.07825,1.05286,
-2.08588,1.05133,
-2.09503,1.05591,
-2.10114,1.05438,
-2.10571,1.05591,
-2.11182,1.0498,
-2.11945,1.05133,
-2.12708,1.05133,
-2.1347,1.05286,
-2.14233,1.05591,
-2.15149,1.05286,
-2.15607,1.05133,
-2.1637,1.05133,
-2.17438,1.05133,
-2.18201,1.05743,
-2.18811,1.05133,
-2.19727,1.05286,
-2.2049,1.04675,
-2.21405,1.05591,
-2.22168,1.05896,
-2.22931,1.0498,
-2.23999,1.0498,
-2.24915,1.05133,
-2.26135,1.05743,
-2.27203,1.05591,
-2.27966,1.04828,
-2.28424,1.05133,
-2.29187,1.05438,
-2.29492,1.05591,
-2.29797,1.05438,
-2.2995,1.05591,
-2.30255,1.05133,
-2.30255,1.05286,
-2.30103,1.05286,
-2.2934,1.05743,
-2.28271,1.06812,
-2.27356,1.0498,
-2.2583,1.0498,
-2.24457,1.05591,
-2.22626,1.05591,
-2.20947,1.0498,
-2.19116,1.0498,
-2.17133,1.0498,
-2.14691,1.05438,
-2.12402,1.05896,
-2.10114,1.0498,
-2.0752,1.0498,
-2.05383,1.05133,
-2.03247,1.05743,
-2.00806,1.05438,
-1.98669,1.05438,
-1.96381,1.05133,
-1.93787,1.0498,
-1.91193,1.05591,
-1.89667,1.05896,
-1.86768,1.05743,
-1.84174,1.05133,
-1.8219,1.0498,
-1.79749,1.05438,
-1.77612,1.05286,
-1.75171,1.05286,
-1.73492,1.05133,
-1.71814,1.05133,
-1.69983,1.05591,
-1.68762,1.05286,
-1.66779,1.0498,
-1.65863,1.05133,
-1.64337,1.05133,
-1.63269,1.05286,
-1.61896,1.05591,
-1.6037,1.05286,
-1.5976,1.05286,
-1.58844,1.0498,
-1.57776,1.05286,
-1.5686,1.05133,
-1.5625,1.05286,
-1.55182,1.05286,
-1.54419,1.04675,
-1.53503,1.05438,
-1.53503,1.05743,
-1.52588,1.05286,
-1.51978,1.04675,
-1.5152,1.04828,
-1.51062,1.05591,
-1.50757,1.05438,
-1.50299,1.05286,
-1.50146,1.0498,
-1.50299,1.05133,
-1.49841,1.05438,
-1.49994,1.05438,
-1.49689,1.05133,
-1.49841,1.05133,
-1.50452,1.05438,
-1.50299,1.05438,
-1.50604,1.05286,
-1.50452,1.05438,
-1.51215,1.05438,
-1.51672,1.0437,
-1.51978,1.05438,
-1.52435,1.05286,
-1.52588,1.05438,
-1.52588,1.05133,
-1.5274,1.05286,
-1.52893,1.05438,
-1.53198,1.0498,
-1.53198,1.05133,
-1.52893,1.05286,
-1.52588,1.05133,
-1.52283,1.05286,
-1.5274,1.05438,
-1.52588,1.05591,
-1.52588,1.05133,
-1.5274,1.05438,
-1.52435,1.05438,
-1.5274,1.05743,
-1.52893,1.05286,
-1.5274,1.0498,
-1.53351,1.05133,
-1.53198,1.05438,
-1.53198,1.05743,
-1.53046,1.05438,
-1.53198,1.04828,
-1.53198,1.0498,
-1.53351,1.05438,
-1.53809,1.05133,
-1.54266,1.05286,
-1.54266,1.0498,
-1.54877,1.05438,
-1.54877,1.05591,
-1.55182,1.05286,
-1.55487,1.05286,
-1.55945,1.0498,
-1.56097,1.0498,
-1.5625,1.05438,
-1.56097,1.05286,
-1.5686,1.05591,
-1.57013,1.0498,
-1.57776,1.05133,
-1.58539,1.0498,
-1.58539,1.05133,
-1.58691,1.05591,
-1.59454,1.0498,
-1.5976,1.05133,
-1.60217,1.05438,
-1.60675,1.05286,
-1.61285,1.05286,
-1.62201,1.05133,
-1.62811,1.05286,
-1.63574,1.05591,
-1.64185,1.05438,
-1.65558,1.05286,
-1.66626,1.05133,
-1.67542,1.0498,
-1.6861,1.05133,
-1.69525,1.05286,
-1.70593,1.05438,
-1.71509,1.05133,
-1.72272,1.04675,
-1.73187,1.05286,
-1.7395,1.05286,
-1.75018,1.07117,
-1.76697,1.04828,
-1.77612,1.0498,
-1.78528,1.0498,
-1.79596,1.05286,
-1.80817,1.05438,
-1.81885,1.05133,
-1.83105,1.05591,
-1.84326,1.06354,
-1.85852,1.0498,
-1.86768,1.05591,
-1.87836,1.05133,
-1.89362,1.05133,
-1.90582,1.05133,
-1.9165,1.05286,
-1.93024,1.05591,
-1.9455,1.05286,
-1.95007,1.04828,
-1.95923,1.05286,
-1.97144,1.05133,
-1.97754,1.05286,
-1.98364,1.0498,
-1.98822,1.0498,
-1.99738,1.05896,
-2.00958,1.05438,
-2.01569,1.05438,
-2.02179,1.05286,
-2.02332,1.04828,
-2.02484,1.05286,
-2.02484,1.05438,
-2.02332,1.05286,
-2.02026,1.04828,
-2.01721,1.05591,
-2.00958,1.05133,
-1.99738,1.05133,
-1.98669,1.05286,
-1.97144,1.05133,
-1.95465,1.0498,
-1.93329,1.05286,
-1.91498,1.06049,
-1.89362,1.05286,
-1.86768,1.04828,
-1.84631,1.05286,
-1.81885,1.05286,
-1.79291,1.05438,
-1.76697,1.05286,
-1.74255,1.05133,
-1.71661,1.05286,
-1.69067,1.0498,
-1.66321,1.05286,
-1.6449,1.05133,
-1.61896,1.0498,
-1.59149,1.05286,
-1.5686,1.05286,
-1.54572,1.05133,
-1.52588,1.05438,
-1.50757,1.05133,
-1.48163,1.0498,
-1.46484,1.05286,
-1.44806,1.05286,
-1.42822,1.05743,
-1.41449,1.05438,
-1.39923,1.05286,
-1.38092,1.04218,
-1.36414,1.05591,
-1.34888,1.04828,
-1.33057,1.05133,
-1.31989,1.05286,
-1.30463,1.05286,
-1.29395,1.05286,
-1.28021,1.05438,
-1.26801,1.05896,
-1.2558,1.04523,
-1.24512,1.05133,
-1.23749,1.05286,
-1.22833,1.05286,
-1.21918,1.05286,
-1.21002,1.05133,
-1.19781,1.07269,
-1.19171,1.04828,
-1.18103,1.05133,
-1.18103,1.0498,
-1.1673,1.05133,
-1.16272,1.05133,
-1.16119,1.05743,
-1.15662,1.0498,
-1.14899,1.04828,
-1.14594,1.05286,
-1.12457,1.04218,
-1.13983,1.05133,
-1.13678,1.05896,
-1.1322,1.04828,
-1.1322,1.05286,
-1.13068,1.05286,
-1.12915,1.0498,
-1.12915,1.05591,
-1.12457,1.04828,
-1.1261,1.04828,
-1.12457,1.05133,
-1.12152,1.06049,
-1.12152,1.05591,
-1.11694,1.0498,
-1.10931,1.05133,
-1.10931,1.05591,
-1.10474,1.05286,
-1.10168,1.0498,
-1.10321,1.0498,
-1.10321,1.05286,
-1.10321,1.05133,
-1.09711,1.05286,
-1.09711,1.05286,
-1.09863,1.05286,
-1.09558,1.05133,
-1.09558,1.05286,
-1.09558,1.0498,
-1.09253,1.05438,
-1.08948,1.05133,
-1.08337,1.05286,
-1.08337,1.05438,
-1.08185,1.05743,
-1.07574,1.0498,
-1.0788,1.05133,
-1.08185,1.05438,
-1.08337,1.05591,
-1.0849,1.05743,
-1.091,1.05438,
-1.09406,1.04828,
-1.09863,1.05286,
-1.10321,1.04523,
-1.10779,1.07117,
-1.11694,1.05286,
-1.12152,1.0498,
-1.12915,1.05286,
-1.13373,1.05591,
-1.14136,1.05743,
-1.14441,1.05591,
-1.14594,1.0498,
-1.15356,1.04828,
-1.15662,1.05438,
-1.16272,1.05591,
-1.1673,1.05743,
-1.17645,1.05438,
-1.17798,1.0498,
-1.18408,1.05591,
-1.19019,1.05591,
-1.19324,1.0498,
-1.20087,1.0498,
-1.2085,1.05438,
-1.21613,1.05591,
-1.22681,1.05591,
-1.23596,1.05286,
-1.25122,1.0498,
-1.25732,1.05133,
-1.26953,1.05286,
-1.28174,1.05286,
-1.29395,1.05133,
-1.30463,1.0498,
-1.31836,1.05286,
-1.33057,1.05743,
-1.3443,1.05896,
-1.35498,1.05438,
-1.36871,1.05286,
-1.3855,1.04675,
-1.39313,1.05286,
-1.40839,1.05591,
-1.42517,1.05743,
-1.43585,1.04675,
-1.44806,1.05133,
-1.45569,1.05591,
-1.46484,1.05286,
-1.48163,1.05133,
-1.49231,1.04523,
-1.50299,1.05438,
-1.51215,1.05438,
-1.5213,1.05438,
-1.5274,1.05286,
-1.53351,1.04828,
-1.53961,1.0498,
-1.55334,1.05286,
-1.5625,1.05286,
-1.57318,1.05591,
-1.58081,1.0498,
-1.58997,1.0498,
-1.6037,1.05438,
-1.61896,1.05286,
-1.63269,1.05286,
-1.6449,1.0498,
-1.65558,1.05133,
-1.66779,1.05438,
-1.67847,1.05286,
-1.69067,1.05133,
-1.6983,1.05133,
-1.70441,1.04828,
-1.71051,1.05133,
-1.71204,1.05438,
-1.70746,1.05438,
-1.70593,1.05286,
-1.69525,1.05133,
-1.6861,1.05286,
-1.67236,1.05438,
-1.6571,1.05286,
-1.63879,1.05133,
-1.61743,1.0498,
-1.59302,1.05438,
-1.5686,1.05896,
-1.54266,1.05133,
-1.51978,1.05438,
-1.48926,1.04828,
-1.46027,1.05591,
-1.43585,1.05286,
-1.40533,1.05286,
-1.38245,1.0498,
-1.34888,1.05286,
-1.32141,1.05286,
-1.29852,1.04218,
-1.26801,1.05286,
-1.24054,1.05133,
-1.21613,1.05438,
-1.19019,1.0498,
-1.16272,1.05286,
-1.13983,1.05438,
-1.11694,1.05133,
-1.09558,1.04828,
-1.07574,1.05133,
-1.05133,1.05591,
-1.02997,1.05286,
-1.01166,1.05133,
-0.990295,1.0498,
-0.975037,1.05286,
-0.958252,1.05591,
-0.941467,1.05438,
-0.924683,1.0498,
-0.909424,1.0437,
-0.892639,1.0498,
-0.883484,1.05743,
-0.871277,1.05286,
-0.856018,1.05286,
-0.845337,1.0498,
-0.834656,1.05133,
-0.820923,1.07117,
-0.814819,1.05438,
-0.804138,1.05133,
-0.794983,1.05438,
-0.785828,1.05286,
-0.776672,1.05743,
-0.770569,1.05743,
-0.765991,1.06964,
-0.761414,1.05438,
-0.752258,1.05286,
-0.747681,1.05743,
-0.746155,1.05438,
-0.743103,1.05133,
-0.740051,1.05286,
-0.741577,1.05438,
-0.743103,1.05438,
-0.741577,1.05591,
-0.741577,1.05286,
-0.737,1.05133,
-0.738525,1.05438,
-0.732422,1.05438,
-0.72937,1.05896,
-0.732422,1.05591,
-0.72937,1.04828,
-0.72937,1.05438,
-0.726318,1.05743,
-0.730896,1.05591,
-0.72937,1.05743,
-0.724792,1.05438,
-0.724792,1.05438,
-0.721741,1.05743,
-0.717163,1.05438,
-0.712585,1.05286,
-0.709534,1.05438,
-0.704956,1.05438,
-0.700378,1.05743,
-0.697327,1.05591,
-0.698853,1.05591,
-0.694275,1.05286,
-0.691223,1.05591,
-0.691223,1.05438,
-0.683594,1.05591,
-0.683594,1.05438,
-0.679016,1.05133,
-0.679016,1.05591,
-0.674438,1.06049,
-0.671387,1.05591,
-0.671387,1.0498,
-0.674438,1.05286,
-0.669861,1.05438,
-0.668335,1.05743,
-0.669861,1.05133,
-0.668335,1.05286,
-0.657654,1.04675,
-0.668335,1.05286,
-0.671387,1.05286,
-0.675964,1.05438,
-0.680542,1.05133,
-0.683594,1.05133,
-0.689697,1.05438,
-0.686646,1.05286,
-0.691223,1.05286,
-0.695801,1.0498,
-0.700378,1.05133,
-0.70343,1.04675,
-0.709534,1.05743,
-0.715637,1.05438,
-0.726318,1.05591,
-0.735474,1.0498,
-0.741577,1.05438,
-0.750732,1.06049,
-0.75531,1.05438,
-0.765991,1.04675,
-0.772095,1.05438,
-0.778198,1.05896,
-0.793457,1.05591,
-0.801086,1.05438,
-0.810242,1.05286,
-0.814819,1.05133,
-0.823975,1.05286,
-0.828552,1.05591,
-0.839233,1.05286,
-0.846863,1.0498,
-0.85907,1.05133,
-0.869751,1.05286,
-0.875854,1.05896,
-0.883484,1.05438,
-0.895691,1.04675,
-0.901794,1.05286,
-0.904846,1.05286,
-0.91095,1.05133,
-0.920105,1.05591,
-0.927734,1.04523,
-0.938416,1.0498,
-0.944519,1.05286,
-0.950623,1.05133,
-0.961304,1.05133,
-0.973511,1.04675,
-0.98877,1.05591,
-1.0025,1.05591,
-1.01471,1.05591,
-1.02386,1.05438,
-1.04065,1.0376,
-1.04828,1.0498,
-1.05591,1.0498,
-1.06812,1.05591,
-1.07422,1.05438,
-1.08032,1.04828,
-1.09406,1.0498,
-1.10168,1.05286,
-1.11237,1.06812,
-1.11847,1.05286,
-1.1322,1.04675,
-1.13678,1.04675,
-1.14746,1.05743,
-1.15051,1.05438,
-1.15662,1.05591,
-1.16119,1.04828,
-1.16119,1.03912,
-1.15814,1.05286,
-1.15204,1.05591,
-1.14899,1.05286,
-1.13831,1.04828,
-1.12457,1.0498,
-1.11237,1.05591,
-1.09406,1.05743,
-1.07727,1.05438,
-1.05438,1.0498,
-1.03302,1.05133,
-1.00861,1.05286,
-0.98877,1.05743,
-0.961304,1.05438,
-0.938416,1.04523,
-0.912476,1.05286,
-0.888062,1.05438,
-0.862122,1.05286,
-0.839233,1.0498,
-0.813293,1.04828,
-0.794983,1.05286,
-0.773621,1.05591,
-0.752258,1.05438,
-0.738525,1.05438,
-0.721741,1.0498,
-0.709534,1.05133,
-0.698853,1.05591,
-0.686646,1.05438,
-0.680542,1.05743,
-0.672913,1.05286,
-0.668335,1.04828,
-0.663757,1.05591,
-0.656128,1.05438,
-0.650024,1.05438,
-0.65155,1.04675,
-0.648499,1.05133,
-0.648499,1.05591,
-0.653076,1.05591,
-0.65918,1.05286,
-0.662231,1.0498,
-0.666809,1.04828,
-0.675964,1.05438,
-0.680542,1.05438,
-0.683594,1.05438,
-0.689697,1.04828,
-0.691223,1.04828,
-0.698853,1.05286,
-0.701904,1.05743,
-0.709534,1.05133,
-0.715637,1.0498,
-0.720215,1.0498,
-0.72937,1.05286,
-0.738525,1.05743,
-0.747681,1.05286,
-0.762939,1.04828,
-0.769043,1.0498,
-0.779724,1.05286,
-0.793457,1.0498,
-0.802612,1.0498,
-0.813293,1.05591,
-0.822449,1.0498,
-0.836182,1.05286,
-0.849915,1.05438,
-0.862122,1.05591,
-0.872803,1.0498,
-0.88501,1.0498,
-0.891113,1.05438,
-0.901794,1.05743,
-0.906372,1.05438,
-0.917053,1.04675,
-0.926208,1.04675,
-0.939941,1.05286,
-0.947571,1.05743,
-0.953674,1.05286,
-0.961304,1.0498,
-0.967407,1.0498,
-0.975037,1.05743,
-0.979614,1.05743,
-0.98114,1.05286,
-0.98877,1.05133,
-0.994873,1.05133,
-1.0025,1.05133,
-1.01013,1.05743,
-1.01624,1.05591,
-1.02539,1.05286,
-1.0376,1.05286,
-1.04523,1.05133,
-1.05438,1.05591,
-1.06354,1.05438,
-1.07117,1.0498,
-1.07727,1.04828,
-1.0849,1.05133,
-1.09253,1.05438,
-1.10474,1.05438,
-1.11389,1.04828,
-1.1261,1.0498,
-1.13678,1.05286,
-1.14441,1.05438,
-1.15662,1.05591,
-1.16119,1.04828,
-1.1734,1.0498,
-1.18256,1.05591,
-1.19019,1.05438,
-1.20239,1.05591,
-1.21307,1.0498,
-1.2207,1.05133,
-1.23291,1.05286,
-1.24054,1.05591,
-1.25275,1.05591,
-1.26343,1.0498,
-1.27411,1.04675,
-1.28632,1.05133,
-1.29242,1.05286,
-1.3092,1.05743,
-1.31836,1.0498,
-1.32599,1.0498,
-1.33667,1.05286,
-1.34583,1.05133,
-1.35956,1.05133,
-1.37177,1.04675,
-1.38855,1.05133,
-1.40228,1.05591,
-1.41754,1.05743,
-1.42975,1.05591,
-1.44196,1.05133,
-1.46027,1.0498,
-1.47247,1.05438,
-1.48773,1.05438,
-1.49994,1.05286,
-1.51062,1.05286,
-1.52435,1.05133,
-1.54114,1.05133,
-1.5564,1.05896,
-1.57013,1.05286,
-1.58081,1.04828,
-1.59912,1.0498,
-1.61133,1.05591,
-1.62506,1.05743,
-1.63879,1.05591,
-1.65863,1.04828,
-1.67999,1.04828,
-1.70135,1.05743,
-1.72119,1.05743,
-1.74255,1.05286,
-1.76392,1.05133,
-1.7807,1.05286,
-1.80054,1.05133,
-1.8158,1.05286,
-1.83411,1.05133,
-1.85242,1.0498,
-1.87073,1.0498,
-1.89056,1.05438,
-1.90277,1.05438,
-1.91956,1.05591,
-1.93634,1.05133,
-1.95007,1.04828,
-1.96533,1.05743,
-1.97906,1.05591,
-1.98975,1.05133,
-2.00195,1.04828,
-2.00806,1.05133,
-2.01569,1.05743,
-2.02179,1.05133,
-2.02637,1.05286,
-2.02179,1.05133,
-2.01569,1.05133,
-2.01569,1.05438,
-2.00653,1.05591,
-1.9989,1.05591,
-1.98517,1.05438,
-1.97449,1.0498,
-1.95923,1.05133,
-1.94397,1.05591,
-1.92108,1.05438,
-1.90277,1.0498,
-1.87988,1.0498,
-1.86157,1.05438,
-1.83868,1.05743,
-1.81427,1.05591,
-1.79443,1.04828,
-1.77155,1.04675,
-1.74866,1.05438,
-1.72729,1.05438,
-1.70135,1.05438,
-1.67999,1.05286,
-1.66321,1.05743,
-1.6449,1.05438,
-1.62964,1.05438,
-1.61133,1.05438,
-1.60217,1.04828,
-1.58997,1.04828,
-1.57623,1.05286,
-1.56097,1.05438,
-1.55334,1.05286,
-1.53961,1.05133,
-1.53198,1.05896,
-1.5213,1.04675,
-1.5152,1.05438,
-1.51062,1.05438,
-1.50757,1.05133,
-1.49841,1.0498,
-1.49689,1.05286,
-1.49689,1.05591,
-1.49536,1.05133,
-1.49689,1.0498,
-1.49841,1.05286,
-1.50146,1.05133,
-1.49841,1.05591,
-1.49689,1.05438,
-1.50452,1.05438,
-1.50146,1.05133,
-1.50452,1.0498,
-1.5152,1.05591,
-1.51825,1.05743,
-1.52588,1.05133,
-1.53503,1.05438,
-1.53961,1.05133,
-1.54572,1.05896,
-1.55334,1.05133,
-1.56097,1.04828,
-1.57013,1.05133,
-1.57623,1.05286,
-1.58539,1.05591,
-1.59607,1.05438,
-1.60217,1.05286,
-1.60828,1.05286,
-1.61743,1.05286,
-1.62659,1.05438,
-1.63574,1.05591,
-1.64032,1.05133,
-1.6449,1.04675,
-1.65558,1.05286,
-1.66016,1.05591,
-1.66626,1.05591,
-1.67084,1.05133,
-1.67694,1.0437,
-1.68152,1.05591,
-1.6922,1.05591,
-1.69678,1.05438,
-1.70593,1.05133,
-1.71356,1.0498,
-1.72119,1.05743,
-1.7334,1.05896,
-1.73798,1.04828,
-1.74408,1.05133,
-1.75171,1.05286,
-1.76086,1.05591,
-1.76544,1.05286,
-1.77612,1.05286,
-1.7807,1.05133,
-1.78528,1.0498,
-1.78986,1.05438,
-1.79596,1.05743,
-1.79749,1.05591,
-1.80511,1.05286,
-1.81274,1.05286,
-1.8158,1.05438,
-1.8219,1.05743,
-1.83105,1.05743,
-1.83716,1.04828,
-1.84631,1.04828,
-1.85394,1.05591,
-1.86462,1.05743,
-1.8692,1.05286,
-1.87988,1.05286,
-1.88751,1.05133,
-1.89667,1.05286,
-1.9043,1.05591,
-1.91345,1.05438,
-1.92413,1.05133,
-1.93787,1.05286,
-1.9455,1.05438,
-1.95465,1.05438,
-1.96533,1.05438,
-1.97296,1.0498,
-1.98059,1.04828,
-1.98822,1.05286,
-1.9928,1.05896,
-2.00348,1.05591,
-2.00958,1.05133,
-2.01569,1.04523,
-2.02332,1.05286,
-2.03247,1.05896,
-2.0401,1.05438,
-2.0462,1.0498,
-2.05841,1.05133,
-2.06757,1.05743,
-2.07367,1.05591,
-2.07977,1.05438,
-2.08893,1.05133,
-2.09503,1.05133,
-2.10114,1.04828,
-2.11029,1.05896,
-2.11182,1.05591,
-2.11945,1.05133,
-2.12708,1.05133,
-2.13776,1.05286,
-2.14386,1.06049,
-2.15454,1.05438,
-2.16217,1.0498,
-2.17285,1.04828,
-2.18048,1.05438,
-2.18964,1.05591,
-2.19727,1.05438,
-2.20795,1.0498,
-2.21863,1.05133,
-2.22931,1.05286,
-2.23389,1.05743,
-2.24915,1.05591,
-2.25983,1.0498,
-2.26746,1.05133,
-2.28119,1.05591,
-2.2934,1.05743,
-2.30865,1.05438,
-2.32544,1.05286,
-2.3407,1.05286,
-2.35138,1.05286,
-2.36206,1.05896,
-2.37579,1.05743,
-2.388,1.05438,
-2.40173,1.04828,
-2.41394,1.05133,
-2.4231,1.05743,
-2.4292,1.05743,
-2.43225,1.0498,
-2.4353,1.0437,
-2.43683,1.05896,
-2.43073,1.05743,
-2.42157,1.05286,
-2.41394,1.05133,
-2.40173,1.05133,
-2.38953,1.05438,
-2.37885,1.05743,
-2.36206,1.05591,
-2.34833,1.05286,
-2.33307,1.05286,
-2.31934,1.05591,
-2.30713,1.05896,
-2.28577,1.05591,
-2.27051,1.05133,
-2.25067,1.05286,
-2.23389,1.05591,
-2.211,1.06354,
-2.19269,1.05591,
-2.17743,1.05133,
-2.16064,1.05133,
-2.14386,1.05286,
-2.12708,1.05591,
-2.11334,1.05743,
-2.09503,1.05133,
-2.08435,1.05438,
-2.07214,1.05743,
-2.05536,1.05896,
-2.0462,1.05743,
-2.0401,1.05438,
-2.03552,1.0498,
-2.02332,1.0498,
-2.01569,1.05743,
-2.01416,1.05591,
-2.00653,1.05591,
-2.00195,1.0498,
-2.00195,1.05133,
-1.9928,1.05591,
-1.99127,1.05286,
-1.98822,1.05286,
-1.98364,1.05286,
-1.98212,1.05896,
-1.97906,1.05591,
-1.98059,1.05591,
-1.97754,1.05286,
-1.97754,1.05286,
-1.97754,1.05591,
-1.97296,1.05896,
-1.96991,1.05743,
-1.96686,1.05591,
-1.9577,1.0498,
-1.95007,1.05591,
-1.94397,1.06049,
-1.94092,1.05743,
-1.93329,1.05438,
-1.92413,1.05438,
-1.91345,1.05896,
-1.90582,1.06049,
-1.89362,1.05896,
-1.88446,1.05133,
