-1.28021,1.85242,
-1.26648,1.84631,
-1.25427,1.84479,
-1.24512,1.84631,
-1.23291,1.85394,
-1.22681,1.85242,
-1.21765,1.84937,
-1.2146,1.84479,
-1.21155,1.84631,
-1.21307,1.85089,
-1.21002,1.84631,
-1.21307,1.85089,
-1.21307,1.84631,
-1.21307,1.8631,
-1.21613,1.85242,
-1.21613,1.85242,
-1.21307,1.85242,
-1.2146,1.84937,
-1.2146,1.84937,
-1.2085,1.85394,
-1.20544,1.85394,
-1.20087,1.85089,
-1.19324,1.84479,
-1.18713,1.85394,
-1.18408,1.85394,
-1.1795,1.86005,
-1.17645,1.85394,
-1.17645,1.84937,
-1.1673,1.85547,
-1.1673,1.85547,
-1.1673,1.86157,
-1.16577,1.86005,
-1.16577,1.85547,
-1.16577,1.85547,
-1.16577,1.86005,
-1.16577,1.86005,
-1.1673,1.85699,
-1.1673,1.85394,
-1.16425,1.85394,
-1.16119,1.86157,
-1.15967,1.85699,
-1.15509,1.8631,
-1.15509,1.85242,
-1.14746,1.85547,
-1.13983,1.86157,
-1.1322,1.86462,
-1.13068,1.86157,
-1.12152,1.85699,
-1.11237,1.85699,
-1.10474,1.86615,
-1.09406,1.8631,
-1.08643,1.86157,
-1.07574,1.85699,
-1.07269,1.86005,
-1.05896,1.8631,
-1.0498,1.86768,
-1.0437,1.86157,
-1.0376,1.86005,
-1.02844,1.8631,
-1.01929,1.86615,
-1.01624,1.86615,
-1.00861,1.86615,
-1.00098,1.8631,
-0.991821,1.8631,
-0.982666,1.86615,
-0.976563,1.87073,
-0.965881,1.86768,
-0.9552,1.8631,
-0.953674,1.8631,
-0.946045,1.8692,
-0.93689,1.87378,
-0.933838,1.8692,
-0.924683,1.86615,
-0.921631,1.86615,
-0.915527,1.86768,
-0.909424,1.8692,
-0.909424,1.87225,
-0.901794,1.86462,
-0.900269,1.86768,
-0.898743,1.8692,
-0.897217,1.87073,
-0.898743,1.87073,
-0.895691,1.86615,
-0.892639,1.86462,
-0.900269,1.87378,
-0.90332,1.87225,
-0.906372,1.87073,
-0.909424,1.86462,
-0.912476,1.87073,
-0.918579,1.88141,
-0.921631,1.87531,
-0.930786,1.87378,
-0.933838,1.86768,
-0.939941,1.87378,
-0.946045,1.87531,
-0.949097,1.87683,
-0.956726,1.87531,
-0.958252,1.8692,
-0.965881,1.87073,
-0.971985,1.87378,
-0.973511,1.87531,
-0.976563,1.87531,
-0.984192,1.87073,
-0.985718,1.87378,
-0.991821,1.87531,
-0.999451,1.87988,
-1.0025,1.87683,
-1.00555,1.87378,
-1.00708,1.87531,
-1.01013,1.87988,
-1.01013,1.87378,
-1.01166,1.87988,
-1.01166,1.87073,
-1.01166,1.87531,
-1.0025,1.87836,
-0.994873,1.87073,
-0.984192,1.88293,
-0.973511,1.87683,
-0.965881,1.87683,
-0.9552,1.88141,
-0.946045,1.88293,
-0.942993,1.88293,
-0.941467,1.87531,
-0.938416,1.87683,
-0.93689,1.88446,
-0.932312,1.88446,
-0.935364,1.88293,
-0.93689,1.88141,
-0.938416,1.87683,
-0.941467,1.88446,
-0.942993,1.88446,
-0.942993,1.88293,
-0.944519,1.87988,
-0.942993,1.88141,
-0.944519,1.88446,
-0.949097,1.88599,
-0.950623,1.88599,
-0.956726,1.88446,
-0.964355,1.88141,
-0.970459,1.88446,
-0.970459,1.88599,
-0.98114,1.88293,
-0.985718,1.88293,
-0.98877,1.88446,
-0.985718,1.88599,
-0.984192,1.89056,
-0.968933,1.88599,
-0.953674,1.88141,
-0.93689,1.88446,
-0.915527,1.88446,
-0.886536,1.89514,
-0.862122,1.88904,
-0.830078,1.88446,
-0.794983,1.88599,
-0.761414,1.89362,
-0.720215,1.88751,
-0.692749,1.89362,
-0.653076,1.88446,
-0.616455,1.88904,
-0.579834,1.88904,
-0.546265,1.89514,
-0.520325,1.89056,
-0.486755,1.88599,
-0.45929,1.88599,
-0.430298,1.89514,
-0.404358,1.89362,
-0.386047,1.89056,
-0.363159,1.88751,
-0.346375,1.88599,
-0.326538,1.89514,
-0.314331,1.89972,
-0.305176,1.88904,
-0.296021,1.88751,
-0.292969,1.88751,
-0.291443,1.89514,
-0.289917,1.89819,
-0.291443,1.88751,
-0.288391,1.88904,
-0.288391,1.89056,
-0.291443,1.89819,
-0.286865,1.89667,
-0.288391,1.89056,
-0.285339,1.87988,
-0.288391,1.88904,
-0.286865,1.89667,
-0.286865,1.90125,
-0.283813,1.89056,
-0.285339,1.88599,
-0.288391,1.89056,
-0.289917,1.90887,
-0.291443,1.88904,
-0.294495,1.89514,
-0.291443,1.88904,
-0.297546,1.89514,
-0.299072,1.89667,
-0.300598,1.89514,
-0.300598,1.89972,
-0.306702,1.89056,
-0.308228,1.89056,
-0.320435,1.89667,
-0.331116,1.90125,
-0.340271,1.89972,
-0.354004,1.89056,
-0.361633,1.89056,
-0.376892,1.89514,
-0.393677,1.90125,
-0.40741,1.89056,
-0.427246,1.88904,
-0.445557,1.89362,
-0.465393,1.89819,
-0.486755,1.90125,
-0.502014,1.89819,
-0.523376,1.89362,
-0.541687,1.89362,
-0.558472,1.89819,
-0.578308,1.90125,
-0.59967,1.89972,
-0.610352,1.89667,
-0.628662,1.89514,
-0.645447,1.89667,
-0.65918,1.89972,
-0.671387,1.89819,
-0.683594,1.89056,
-0.700378,1.88904,
-0.71106,1.89819,
-0.720215,1.90277,
-0.733948,1.89819,
-0.741577,1.89362,
-0.749207,1.89514,
-0.758362,1.90125,
-0.767517,1.89972,
-0.775146,1.89972,
-0.776672,1.89056,
-0.779724,1.89819,
-0.784302,1.89972,
-0.787354,1.90125,
-0.787354,1.89972,
-0.784302,1.89667,
-0.779724,1.89514,
-0.778198,1.89972,
-0.770569,1.9043,
-0.761414,1.90125,
-0.753784,1.89362,
-0.741577,1.89667,
-0.732422,1.89972,
-0.721741,1.90125,
-0.708008,1.89819,
-0.700378,1.89667,
-0.68512,1.89667,
-0.674438,1.9043,
-0.668335,1.90582,
-0.660706,1.90125,
-0.657654,1.90125,
-0.65155,1.89819,
-0.645447,1.89819,
-0.642395,1.9043,
-0.637817,1.90277,
-0.640869,1.89972,
-0.637817,1.89362,
-0.639343,1.90125,
-0.639343,1.90735,
-0.642395,1.90277,
-0.65155,1.89819,
-0.660706,1.89972,
-0.672913,1.90277,
-0.683594,1.9104,
-0.692749,1.90125,
-0.694275,1.89819,
-0.701904,1.9043,
-0.709534,1.90277,
-0.717163,1.9043,
-0.726318,1.89819,
-0.735474,1.90277,
-0.746155,1.89972,
-0.75531,1.89819,
-0.764465,1.90735,
-0.773621,1.90582,
-0.784302,1.89972,
-0.793457,1.89819,
-0.804138,1.90277,
-0.813293,1.90887,
-0.827026,1.9043,
-0.830078,1.89819,
-0.843811,1.90125,
-0.852966,1.90277,
-0.862122,1.90582,
-0.871277,1.90277,
-0.878906,1.90277,
-0.888062,1.90277,
-0.892639,1.89972,
-0.900269,1.90887,
-0.907898,1.90582,
-0.917053,1.90277,
-0.927734,1.90582,
-0.93689,1.89972,
-0.952148,1.90582,
-0.965881,1.90277,
-0.979614,1.89972,
-0.996399,1.9043,
-1.01013,1.90125,
-1.02539,1.90735,
-1.04065,1.90277,
-1.05133,1.89972,
-1.06506,1.9104,
-1.08032,1.90277,
-1.09253,1.90887,
-1.10931,1.9043,
-1.12762,1.90125,
-1.14594,1.90277,
-1.17188,1.90582,
-1.18713,1.90582,
-1.21002,1.90582,
-1.22986,1.89972,
-1.25122,1.9165,
-1.27411,1.90277,
-1.28784,1.90735,
-1.30463,1.9043,
-1.32599,1.89819,
-1.33972,1.90125,
-1.35498,1.90582,
-1.36871,1.9165,
-1.38397,1.89819,
-1.39008,1.89972,
-1.39771,1.90125,
-1.39465,1.90735,
-1.39008,1.9104,
-1.38092,1.9043,
-1.36566,1.90125,
-1.34735,1.90125,
-1.31836,1.90125,
-1.29089,1.9104,
-1.26343,1.9043,
-1.23444,1.90125,
-1.19629,1.9043,
-1.1673,1.9043,
-1.13373,1.9104,
-1.10168,1.90125,
-1.06506,1.90125,
-1.0376,1.90277,
-1.01166,1.89972,
-0.984192,1.90582,
-0.961304,1.90125,
-0.946045,1.89972,
-0.926208,1.90125,
-0.906372,1.9043,
-0.891113,1.90887,
-0.87738,1.90735,
-0.869751,1.89972,
-0.854492,1.90125,
-0.840759,1.90125,
-0.83313,1.90582,
-0.822449,1.9043,
-0.810242,1.90125,
-0.801086,1.90125,
-0.796509,1.90582,
-0.788879,1.90735,
-0.784302,1.89972,
-0.784302,1.89972,
-0.78125,1.89972,
-0.775146,1.9043,
-0.770569,1.9043,
-0.767517,1.90277,
-0.764465,1.9043,
-0.752258,1.90277,
-0.746155,1.90582,
-0.737,1.90735,
-0.72937,1.9043,
-0.721741,1.89972,
-0.714111,1.89972,
-0.712585,1.9043,
-0.704956,1.90735,
-0.70343,1.90125,
-0.697327,1.89819,
-0.692749,1.90277,
-0.692749,1.90277,
-0.689697,1.90582,
-0.686646,1.90277,
-0.689697,1.89819,
-0.686646,1.90277,
-0.692749,1.9043,
-0.697327,1.9043,
-0.701904,1.90887,
-0.714111,1.89972,
-0.727844,1.89667,
-0.743103,1.90582,
-0.762939,1.90277,
-0.787354,1.90125,
-0.810242,1.89514,
-0.831604,1.89819,
-0.85144,1.90277,
-0.871277,1.90277,
-0.883484,1.90277,
-0.891113,1.89514,
-0.904846,1.89819,
-0.915527,1.89819,
-0.921631,1.90277,
-0.926208,1.89972,
-0.927734,1.9043,
-0.930786,1.89819,
-0.927734,1.89972,
-0.921631,1.90277,
-0.917053,1.90125,
-0.915527,1.89667,
-0.90332,1.89056,
-0.892639,1.89819,
-0.878906,1.90125,
-0.866699,1.90125,
-0.849915,1.89362,
-0.837708,1.89819,
-0.823975,1.89667,
-0.813293,1.89667,
-0.799561,1.90125,
-0.784302,1.89362,
-0.773621,1.89667,
-0.764465,1.89056,
-0.750732,1.89667,
-0.737,1.89972,
-0.727844,1.89667,
-0.714111,1.89514,
-0.70343,1.89667,
-0.697327,1.89667,
-0.686646,1.89514,
-0.675964,1.89056,
-0.666809,1.89056,
-0.65918,1.90125,
-0.650024,1.89514,
-0.643921,1.89056,
-0.636292,1.89362,
-0.630188,1.89056,
-0.622559,1.89514,
-0.610352,1.89972,
-0.601196,1.89667,
-0.595093,1.89362,
-0.58136,1.89056,
-0.576782,1.88904,
-0.567627,1.89819,
-0.564575,1.89056,
-0.558472,1.88904,
-0.552368,1.89514,
-0.544739,1.89667,
-0.535583,1.90125,
-0.534058,1.89667,
-0.524902,1.89056,
-0.511169,1.89056,
-0.502014,1.89362,
-0.488281,1.89667,
-0.476074,1.89667,
-0.462341,1.89056,
-0.456238,1.89362,
-0.445557,1.89819,
-0.437927,1.89819,
-0.428772,1.89514,
-0.418091,1.89056,
-0.415039,1.88904,
-0.402832,1.89819,
-0.393677,1.89819,
-0.389099,1.89819,
-0.386047,1.89514,
-0.375366,1.89514,
-0.366211,1.90125,
-0.361633,1.89972,
-0.357056,1.89972,
-0.35553,1.88751,
-0.349426,1.89056,
-0.3479,1.89514,
-0.346375,1.89362,
-0.346375,1.91193,
-0.340271,1.89056,
-0.3479,1.88751,
-0.341797,1.89514,
-0.343323,1.89819,
-0.350952,1.89514,
-0.35553,1.88446,
-0.363159,1.88904,
-0.364685,1.89056,
-0.375366,1.89667,
-0.389099,1.89362,
-0.398254,1.88751,
-0.40741,1.89362,
-0.419617,1.89667,
-0.428772,1.89362,
-0.434875,1.88904,
-0.436401,1.88599,
-0.439453,1.88751,
-0.43335,1.89667,
-0.424194,1.89362,
-0.411987,1.89514,
-0.396729,1.89056,
-0.384521,1.88446,
-0.363159,1.89514,
-0.3479,1.89667,
-0.32959,1.89667,
-0.308228,1.88751,
-0.291443,1.88446,
-0.270081,1.89819,
-0.259399,1.89362,
-0.245667,1.89514,
-0.247192,1.89056,
-0.242615,1.88599,
-0.236511,1.89514,
-0.227356,1.89362,
-0.212097,1.89514,
-0.193787,1.88751,
-0.177002,1.88599,
-0.151062,1.89056,
-0.125122,1.89514,
-0.0976563,1.89056,
-0.0732422,1.88599,
-0.0366211,1.88599,
-0.00305176,1.88904,
0.0305176,1.89362,
0.062561,1.89667,
0.0946045,1.88599,
0.131226,1.88446,
0.166321,1.89056,
0.195313,1.88751,
0.222778,1.89514,
0.248718,1.88599,
0.276184,1.88446,
0.296021,1.88751,
0.323486,1.88751,
0.340271,1.89514,
0.358582,1.88599,
0.37384,1.88141,
0.384521,1.88751,
0.395203,1.89056,
0.39978,1.88446,
0.404358,1.88904,
0.413513,1.88293,
0.422668,1.88904,
0.43335,1.88904,
0.444031,1.88599,
0.457764,1.88293,
0.468445,1.88446,
0.4776,1.88599,
0.486755,1.89056,
0.498962,1.89362,
0.509644,1.88751,
0.524902,1.88446,
0.531006,1.88751,
0.540161,1.89514,
0.544739,1.88751,
0.55542,1.88599,
0.563049,1.88446,
0.564575,1.89056,
0.564575,1.89362,
0.561523,1.88751,
0.55542,1.88751,
0.543213,1.88751,
0.531006,1.89056,
0.518799,1.88904,
0.500488,1.89056,
0.485229,1.88599,
0.463867,1.88446,
0.448608,1.89362,
0.427246,1.89056,
0.40741,1.89667,
0.392151,1.88751,
0.369263,1.88599,
0.357056,1.88904,
0.341797,1.89362,
0.325012,1.88904,
0.311279,1.88599,
0.299072,1.88751,
0.289917,1.89056,
0.283813,1.89362,
0.276184,1.88904,
0.268555,1.88751,
0.265503,1.89056,
0.260925,1.88446,
0.259399,1.89514,
0.257874,1.89056,
0.259399,1.89056,
0.263977,1.88751,
0.265503,1.88904,
0.268555,1.89667,
0.273132,1.89362,
0.279236,1.88446,
0.282288,1.88904,
0.280762,1.88599,
0.285339,1.89667,
0.282288,1.89056,
0.279236,1.88751,
0.276184,1.89056,
0.271606,1.88751,
0.267029,1.88599,
0.262451,1.88904,
0.256348,1.88446,
0.254822,1.87836,
0.248718,1.88751,
0.245667,1.88751,
0.236511,1.89056,
0.22583,1.88599,
0.218201,1.88446,
0.213623,1.88751,
0.202942,1.88904,
0.195313,1.89056,
0.18158,1.88293,
0.166321,1.88751,
0.157166,1.89056,
0.144958,1.89514,
0.134277,1.88751,
0.120544,1.89056,
0.109863,1.88446,
0.0915527,1.88751,
0.0732422,1.89056,
0.050354,1.88751,
0.0213623,1.88599,
-0.00610352,1.88751,
-0.0320435,1.88599,
-0.0595093,1.88751,
-0.0900269,1.87988,
-0.123596,1.88141,
-0.157166,1.88751,
-0.186157,1.88446,
-0.221252,1.88904,
-0.25177,1.88751,
-0.279236,1.88293,
-0.311279,1.88751,
-0.32959,1.88446,
-0.3479,1.88904,
-0.366211,1.88751,
-0.37384,1.88293,
-0.382996,1.88446,
-0.395203,1.88446,
-0.404358,1.88599,
-0.40741,1.88599,
-0.416565,1.88446,
-0.424194,1.88446,
-0.424194,1.88141,
-0.428772,1.88751,
-0.431824,1.88904,
-0.434875,1.88293,
-0.439453,1.88446,
-0.444031,1.88446,
-0.454712,1.89056,
-0.45929,1.88446,
-0.465393,1.88599,
-0.465393,1.88141,
-0.466919,1.88141,
-0.466919,1.89056,
-0.466919,1.88904,
-0.468445,1.88599,
-0.471497,1.88141,
-0.471497,1.88141,
-0.469971,1.89056,
-0.471497,1.88293,
-0.469971,1.87836,
-0.476074,1.87988,
-0.480652,1.88141,
-0.489807,1.88751,
-0.494385,1.88599,
-0.505066,1.87988,
-0.517273,1.88293,
-0.52948,1.87836,
-0.547791,1.88293,
-0.564575,1.88599,
-0.578308,1.87988,
-0.592041,1.88293,
-0.601196,1.88141,
-0.611877,1.88141,
-0.616455,1.88904,
-0.616455,1.88293,
-0.608826,1.87683,
-0.601196,1.87836,
-0.579834,1.88599,
-0.558472,1.88599,
-0.52948,1.88141,
-0.498962,1.88141,
-0.466919,1.88599,
-0.428772,1.88751,
-0.387573,1.88446,
-0.346375,1.87836,
-0.299072,1.88293,
-0.253296,1.88293,
-0.202942,1.87988,
-0.154114,1.88446,
-0.109863,1.88751,
-0.0534058,1.88141,
0,1.87988,
0.0473022,1.88599,
0.0946045,1.88599,
0.14801,1.88293,
0.189209,1.87683,
0.244141,1.88293,
0.291443,1.88751,
0.337219,1.88599,
0.37384,1.87988,
0.40741,1.88293,
0.440979,1.88293,
0.473022,1.88751,
0.502014,1.88446,
0.52948,1.87988,
0.553894,1.88446,
0.570679,1.88446,
0.592041,1.88141,
0.610352,1.88446,
0.628662,1.87988,
0.642395,1.87683,
0.65918,1.89056,
0.672913,1.89819,
0.68512,1.88751,
0.701904,1.88141,
0.709534,1.88141,
0.723267,1.88599,
0.737,1.89056,
0.747681,1.88599,
0.758362,1.88141,
0.773621,1.87378,
0.782776,1.88599,
0.796509,1.88904,
0.801086,1.88751,
0.80719,1.88141,
0.817871,1.88141,
0.83313,1.87378,
0.840759,1.88599,
0.845337,1.88446,
0.856018,1.87988,
0.868225,1.87836,
0.875854,1.88446,
0.880432,1.88751,
0.881958,1.88599,
0.883484,1.87836,
0.883484,1.87836,
0.878906,1.88141,
0.878906,1.88599,
0.872803,1.89056,
0.866699,1.88141,
0.865173,1.88446,
0.852966,1.88141,
0.840759,1.88599,
0.831604,1.89056,
0.814819,1.88141,
0.801086,1.88293,
0.78125,1.88446,
0.767517,1.88904,
0.756836,1.89056,
0.741577,1.88446,
0.724792,1.88446,
0.704956,1.88446,
0.697327,1.89056,
0.679016,1.89362,
0.662231,1.88599,
0.648499,1.88293,
0.630188,1.89056,
0.619507,1.89056,
0.602722,1.88904,
0.587463,1.88904,
0.569153,1.88446,
0.552368,1.88293,
0.534058,1.89056,
0.520325,1.89362,
0.50354,1.88751,
0.485229,1.88751,
0.463867,1.87531,
0.444031,1.89362,
0.427246,1.89362,
0.404358,1.88751,
0.382996,1.88751,
0.364685,1.88293,
0.341797,1.89056,
0.32196,1.88904,
0.296021,1.88446,
0.268555,1.88599,
0.238037,1.89056,
0.19989,1.88751,
0.154114,1.89514,
0.106812,1.88599,
0.0564575,1.88599,
0.00457764,1.88599,
-0.0549316,1.88751,
-0.115967,1.89056,
-0.175476,1.88446,
-0.238037,1.88141,
-0.299072,1.88599,
-0.360107,1.89056,
-0.424194,1.89056,
-0.474548,1.88751,
-0.52948,1.88599,
-0.582886,1.89056,
-0.631714,1.88904,
-0.674438,1.89362,
-0.717163,1.88751,
-0.75531,1.88751,
-0.796509,1.88599,
-0.830078,1.88904,
-0.866699,1.89514,
-0.895691,1.89362,
-0.930786,1.88446,
-0.953674,1.88751,
-0.976563,1.89362,
-0.999451,1.88751,
-1.02081,1.88446,
-1.04218,1.88446,
-1.06354,1.88599,
-1.08948,1.89056,
-1.11237,1.89362,
-1.1322,1.88904,
-1.15204,1.88904,
-1.1673,1.88751,
-1.18408,1.88751,
-1.19324,1.89514,
-1.21155,1.88904,
-1.22528,1.88751,
-1.23596,1.88904,
-1.25275,1.89514,
-1.26648,1.89819,
-1.27563,1.88904,
-1.28937,1.88293,
-1.30157,1.88904,
-1.31531,1.89362,
-1.33057,1.89514,
-1.3443,1.88751,
-1.35345,1.88599,
-1.36261,1.89514,
-1.37177,1.89362,
-1.38397,1.89667,
-1.3916,1.9043,
-1.39923,1.88599,
-1.41449,1.88904,
-1.42975,1.89514,
-1.44348,1.89514,
-1.45569,1.88751,
-1.4679,1.88599,
-1.47705,1.90582,
-1.49384,1.89362,
-1.50604,1.89819,
-1.5152,1.88904,
-1.52435,1.88904,
-1.52588,1.89056,
-1.5274,1.89667,
-1.5274,1.89819,
-1.52283,1.89514,
-1.51215,1.88599,
-1.49994,1.88599,
-1.48773,1.88751,
-1.46179,1.89972,
-1.43585,1.89362,
-1.40533,1.89056,
-1.36871,1.89362,
-1.32904,1.89667,
-1.28632,1.89819,
-1.24359,1.89362,
-1.20239,1.88904,
-1.15814,1.89819,
-1.11084,1.89514,
-1.06964,1.88293,
-1.02081,1.89056,
-0.979614,1.89362,
-0.932312,1.89667,
-0.886536,1.89667,
-0.849915,1.90125,
-0.808716,1.89667,
-0.770569,1.88904,
-0.730896,1.89362,
-0.698853,1.89972,
-0.660706,1.89667,
-0.630188,1.89514,
-0.59967,1.89056,
-0.567627,1.89514,
-0.540161,1.89819,
-0.518799,1.89667,
-0.498962,1.89362,
-0.479126,1.88751,
-0.465393,1.89514,
-0.45166,1.89819,
-0.434875,1.89972,
-0.42572,1.89514,
-0.410461,1.89362,
-0.401306,1.89514,
-0.390625,1.89667,
-0.376892,1.89819,
-0.367737,1.89514,
-0.354004,1.89056,
-0.340271,1.89362,
-0.328064,1.89667,
-0.317383,1.89972,
-0.308228,1.89514,
-0.297546,1.89056,
-0.289917,1.89819,
-0.280762,1.89819,
-0.267029,1.89819,
-0.257874,1.89362,
-0.250244,1.89056,
-0.239563,1.89362,
-0.234985,1.90125,
-0.227356,1.89514,
-0.221252,1.89667,
-0.215149,1.89362,
-0.213623,1.89362,
-0.210571,1.88904,
-0.201416,1.90125,
-0.198364,1.89667,
-0.196838,1.89667,
-0.196838,1.89667,
-0.198364,1.9043,
-0.19989,1.90125,
-0.204468,1.90125,
-0.215149,1.89362,
-0.216675,1.89972,
-0.224304,1.90125,
-0.234985,1.89972,
-0.245667,1.89819,
-0.259399,1.89819,
-0.268555,1.89667,
-0.280762,1.89819,
-0.291443,1.89819,
-0.305176,1.89667,
-0.318909,1.89667,
-0.325012,1.89667,
-0.335693,1.90277,
-0.343323,1.9043,
-0.354004,1.89972,
-0.35553,1.89362,
-0.361633,1.89972,
-0.363159,1.90125,
-0.367737,1.89667,
-0.369263,1.90125,
-0.372314,1.89667,
-0.375366,1.90125,
-0.379944,1.90277,
-0.384521,1.89972,
-0.386047,1.89972,
-0.387573,1.89667,
-0.387573,1.89972,
-0.389099,1.90125,
-0.395203,1.89972,
-0.393677,1.90125,
-0.390625,1.89819,
-0.398254,1.89972,
-0.39978,1.90125,
-0.402832,1.89819,
-0.40741,1.89972,
-0.415039,1.90277,
-0.418091,1.90125,
-0.421143,1.9043,
-0.430298,1.90277,
-0.434875,1.90125,
-0.440979,1.89819,
-0.45166,1.89972,
-0.45929,1.90125,
-0.469971,1.89972,
-0.479126,1.90277,
-0.489807,1.89819,
-0.500488,1.89972,
-0.514221,1.90582,
-0.52948,1.9043,
-0.538635,1.90277,
-0.558472,1.89972,
-0.569153,1.89972,
-0.582886,1.90277,
-0.598145,1.9043,
-0.613403,1.89972,
-0.630188,1.89667,
-0.645447,1.9043,
-0.666809,1.9043,
-0.680542,1.9043,
-0.698853,1.90582,
-0.71106,1.89972,
-0.724792,1.89819,
-0.741577,1.9043,
-0.761414,1.9043,
-0.776672,1.90125,
-0.790405,1.90125,
-0.810242,1.90125,
-0.822449,1.90582,
-0.837708,1.9043,
-0.846863,1.90125,
-0.85907,1.89819,
-0.869751,1.89972,
-0.878906,1.90582,
-0.897217,1.9043,
-0.901794,1.90125,
-0.914001,1.89972,
-0.921631,1.90125,
-0.932312,1.90277,
-0.939941,1.90735,
-0.949097,1.90277,
-0.953674,1.89514,
-0.958252,1.91803,
-0.959778,1.9043,
-0.967407,1.90735,
-0.967407,1.90277,
-0.976563,1.89972,
-0.975037,1.9043,
-0.98114,1.90735,
-0.984192,1.9043,
-0.987244,1.90125,
-0.987244,1.90277,
-0.985718,1.9043,
-0.979614,1.90582,
-0.975037,1.90582,
-0.965881,1.90735,
-0.950623,1.89362,
-0.935364,1.90125,
-0.914001,1.90735,
-0.895691,1.90887,
-0.875854,1.90277,
-0.848389,1.9043,
-0.820923,1.90887,
-0.787354,1.90887,
-0.764465,1.90735,
-0.730896,1.90277,
-0.700378,1.90125,
-0.660706,1.90125,
-0.63324,1.90887,
-0.598145,1.9104,
-0.561523,1.90582,
-0.511169,1.90277,
-0.473022,1.90582,
-0.427246,1.9104,
-0.375366,1.9104,
-0.323486,1.9043,
-0.271606,1.90582,
-0.216675,1.90582,
-0.157166,1.90582,
-0.0946045,1.91345,
-0.0320435,1.90582,
0.0274658,1.9043,
0.0930786,1.90887,
0.157166,1.91345,
0.221252,1.90887,
0.286865,1.90887,
0.349426,1.90582,
0.410461,1.90887,
0.469971,1.90887,
0.526428,1.91803,
0.584412,1.90277,
0.640869,1.90582,
0.695801,1.90582,
0.747681,1.90735,
0.796509,1.9104,
0.842285,1.9043,
0.888062,1.9043,
0.926208,1.9043,
0.968933,1.9104,
1.00861,1.9104,
1.04218,1.90582,
1.08032,1.90582,
1.10931,1.90887,
1.13983,1.89972,
1.16577,1.91345,
1.19324,1.90735,
1.21613,1.90735,
1.23444,1.9104,
1.25732,1.90735,
1.28021,1.91345,
1.29395,1.90735,
1.31378,1.90735,
1.32904,1.90735,
1.34888,1.90887,
1.36108,1.91498,
1.38092,1.90735,
1.39465,1.9043,
1.41144,1.90887,
1.4267,1.9104,
1.4389,1.9104,
1.45264,1.90887,
1.46179,1.90887,
1.47095,1.9104,
1.48163,1.91345,
1.48621,1.91345,
1.49231,1.90887,
1.49384,1.90887,
1.49536,1.9104,
1.49841,1.91193,
1.50299,1.91498,
1.50604,1.91193,
1.50757,1.90735,
1.50757,1.9104,
1.51062,1.91345,
1.51062,1.91498,
1.50909,1.90887,
1.50909,1.90887,
1.51062,1.91193,
1.51978,1.91193,
1.51978,1.91498,
1.52283,1.9104,
1.52588,1.9104,
1.5274,1.91193,
1.53198,1.91193,
1.53503,1.91498,
1.53351,1.90582,
1.53656,1.90887,
1.54419,1.9104,
1.54724,1.91193,
1.55334,1.91193,
1.5564,1.90735,
1.55792,1.9043,
1.56555,1.91193,
1.57013,1.91345,
1.57471,1.91498,
1.58386,1.90582,
1.58997,1.90735,
1.5976,1.90582,
1.59607,1.91345,
1.60522,1.91345,
1.61285,1.9104,
1.61896,1.92413,
1.62659,1.90582,
1.62811,1.91193,
1.63422,1.91345,
1.63574,1.9104,
1.64185,1.90887,
1.651,1.90887,
1.65405,1.92261,
1.65863,1.91498,
1.66168,1.90735,
1.66321,1.90887,
1.66931,1.90735,
1.67084,1.91345,
1.67236,1.91345,
1.67236,1.90735,
1.67389,1.90887,
1.67542,1.9104,
1.67389,1.91498,
1.67389,1.91498,
1.66931,1.90582,
1.66321,1.91345,
1.66168,1.90582,
1.65558,1.91345,
1.65558,1.91803,
1.65405,1.90887,
1.64795,1.9043,
1.64642,1.9104,
1.63727,1.9104,
1.63116,1.91345,
1.62354,1.90887,
1.62048,1.90582,
1.61285,1.90887,
1.60828,1.90582,
1.5976,1.91345,
1.57623,1.90582,
1.56097,1.90582,
1.53961,1.9043,
1.51672,1.91193,
1.49841,1.91345,
1.4801,1.91956,
1.45874,1.90735,
1.44043,1.90887,
1.42212,1.91193,
1.40228,1.91498,
1.38092,1.9043,
1.35498,1.90735,
1.32904,1.9104,
1.30768,1.90887,
1.28021,1.9104,
1.25275,1.90887,
1.22223,1.90887,
1.19629,1.90887,
1.16882,1.9104,
1.14288,1.91498,
1.11084,1.90887,
1.08337,1.90735,
1.05133,1.90735,
1.01624,1.9104,
0.987244,1.9165,
0.952148,1.90735,
0.924683,1.90277,
0.888062,1.90582,
0.857544,1.90277,
0.819397,1.90277,
0.787354,1.9043,
0.750732,1.9043,
0.715637,1.90887,
0.68512,1.9043,
0.654602,1.91193,
0.624084,1.9043,
0.592041,1.90277,
0.563049,1.89819,
0.535583,1.90582,
0.509644,1.90887,
0.491333,1.90582,
0.468445,1.89972,
0.453186,1.89972,
0.43335,1.90582,
0.416565,1.9043,
0.393677,1.90125,
0.379944,1.89819,
0.366211,1.89819,
0.350952,1.90582,
0.335693,1.9043,
0.32196,1.90125,
0.309753,1.89362,
0.296021,1.89819,
0.279236,1.89972,
0.270081,1.90582,
0.257874,1.90277,
0.250244,1.89667,
0.245667,1.89972,
0.238037,1.90125,
0.234985,1.9043,
0.233459,1.90125,
0.231934,1.89667,
0.242615,1.90125,
0.253296,1.90125,
0.265503,1.89819,
0.279236,1.89514,
0.302124,1.89819,
0.323486,1.89362,
0.3479,1.89819,
0.375366,1.89972,
0.404358,1.89972,
0.437927,1.89819,
0.471497,1.89056,
0.502014,1.89362,
0.534058,1.89819,
0.561523,1.89972,
0.588989,1.89819,
0.613403,1.89819,
0.643921,1.90125,
0.666809,1.89667,
0.683594,1.89362,
0.700378,1.89514,
0.708008,1.89667,
0.715637,1.90277,
0.723267,1.89819,
0.715637,1.89819,
0.709534,1.89514,
0.694275,1.89819,
0.67749,1.89667,
0.660706,1.89667,
0.639343,1.89972,
0.608826,1.89667,
0.578308,1.89819,
0.547791,1.89819,
0.517273,1.90277,
0.483704,1.90125,
0.444031,1.88904,
0.413513,1.89667,
0.378418,1.89819,
0.350952,1.89667,
0.325012,1.90125,
0.299072,1.89056,
0.273132,1.89819,
0.25177,1.89819,
0.22583,1.89514,
0.202942,1.89819,
0.18158,1.89514,
0.15564,1.89514,
0.135803,1.89819,
0.111389,1.89667,
0.0915527,1.89819,
0.0671387,1.89362,
0.0427246,1.89514,
0.0228882,1.90125,
0.00152588,1.89819,
-0.0183105,1.89362,
-0.038147,1.89056,
-0.0549316,1.89667,
-0.0778198,1.91345,
-0.100708,1.89362,
-0.125122,1.89667,
-0.14801,1.89056,
-0.169373,1.89056,
-0.196838,1.89056,
-0.221252,1.89514,
-0.248718,1.89362,
-0.274658,1.88904,
-0.302124,1.89362,
-0.328064,1.88904,
-0.357056,1.89972,
-0.386047,1.89362,
-0.411987,1.88599,
-0.442505,1.89056,
-0.466919,1.89514,
-0.494385,1.90887,
-0.521851,1.89362,
-0.547791,1.88751,
-0.570679,1.88904,
-0.596619,1.89514,
-0.614929,1.88904,
-0.639343,1.89514,
-0.665283,1.88599,
-0.691223,1.88599,
-0.715637,1.89056,
-0.741577,1.89667,
-0.759888,1.89362,
-0.779724,1.88599,
-0.799561,1.88599,
-0.813293,1.88904,
-0.830078,1.88904,
-0.85144,1.88904,
-0.87738,1.88446,
-0.900269,1.88446,
-0.921631,1.88904,
-0.942993,1.89362,
-0.965881,1.88446,
-0.987244,1.88293,
-1.00708,1.88446,
-1.02692,1.89362,
-1.05133,1.88904,
-1.08337,1.88751,
-1.11084,1.88599,
-1.14136,1.88599,
-1.1734,1.88446,
-1.19934,1.88904,
-1.23444,1.88904,
-1.25885,1.87988,
-1.29089,1.88293,
-1.32141,1.88751,
-1.35345,1.88904,
-1.38245,1.88751,
-1.41602,1.87988,
-1.4389,1.88141,
-1.474,1.88751,
-1.50604,1.88751,
-1.53503,1.88446,
-1.56403,1.87988,
-1.5976,1.87988,
-1.63422,1.88293,
-1.66931,1.88446,
-1.70593,1.88599,
-1.7395,1.88141,
-1.77765,1.87988,
-1.81122,1.88446,
-1.84479,1.88599,
-1.87988,1.87988,
-1.91956,1.87683,
-1.95313,1.87836,
-1.98669,1.88599,
-2.01874,1.88446,
-2.05231,1.87988,
-2.08435,1.87988,
-2.11792,1.87531,
-2.14691,1.88141,
-2.18048,1.88293,
-2.21252,1.88446,
-2.23999,1.87836,
-2.26746,1.87531,
-2.2995,1.88141,
-2.32849,1.88293,
-2.35748,1.88141,
-2.38953,1.86615,
-2.42004,1.87683,
-2.44751,1.88141,
-2.47955,1.88293,
-2.50244,1.87988,
-2.53296,1.8692,
-2.56653,1.87836,
-2.59399,1.87531,
-2.62299,1.88141,
-2.64893,1.88141,
-2.67487,1.87225,
-2.70081,1.87683,
-2.72827,1.87683,
-2.75421,1.87836,
-2.78015,1.88446,
-2.80914,1.87073,
-2.83356,1.87225,
-2.85797,1.87683,
-2.88239,1.87988,
-2.90222,1.87988,
-2.92816,1.87073,
-2.94495,1.87225,
-2.97241,1.87988,
-2.99377,1.87683,
-3.01361,1.87531,
-3.03802,1.87683,
-3.05634,1.88446,
-3.0777,1.87531,
-3.09296,1.87531,
-3.10822,1.87378,
-3.12653,1.87073,
-3.14026,1.8692,
-3.14789,1.87225,
-3.15247,1.87531,
-3.15399,1.87225,
-3.14941,1.86768,
-3.13873,1.8692,
-3.12805,1.87531,
-3.11432,1.87988,
-3.09143,1.87378,
-3.06702,1.86615,
-3.0365,1.86768,
-3.00446,1.8692,
-2.96936,1.87073,
-2.93579,1.87225,
-2.89612,1.8692,
-2.8595,1.8692,
-2.82288,1.87225,
-2.7832,1.87378,
-2.74658,1.87225,
-2.70844,1.8692,
-2.67029,1.86615,
-2.63367,1.87225,
-2.60162,1.87531,
-2.56805,1.8692,
-2.54669,1.86768,
-2.5177,1.8631,
-2.49176,1.87378,
-2.47345,1.87225,
-2.45514,1.86768,
-2.4353,1.86768,
-2.41852,1.86615,
-2.40326,1.87073,
-2.3941,1.87225,
-2.38647,1.86462,
-2.3819,1.86157,
-2.38037,1.8631,
-2.37579,1.86615,
-2.37579,1.86768,
-2.37427,1.87836,
-2.37732,1.86462,
-2.38342,1.86462,
-2.38647,1.86615,
-2.388,1.87073,
-2.3941,1.86768,
-2.40173,1.8631,
-2.40631,1.8631,
-2.41241,1.86768,
-2.42462,1.87073,
-2.43073,1.86462,
-2.43988,1.86005,
-2.45056,1.86157,
-2.45972,1.86462,
-2.47345,1.8631,
-2.48413,1.86462,
-2.49481,1.86462,
-2.50549,1.86005,
-2.52075,1.86615,
-2.53448,1.86615,
-2.54974,1.86615,
-2.56195,1.85547,
-2.57721,1.86005,
-2.59247,1.8631,
-2.61078,1.86462,
-2.62604,1.86462,
-2.64893,1.86005,
-2.66418,1.85699,
-2.67944,1.86462,
-2.69775,1.86768,
-2.71454,1.86157,
-2.72675,1.85547,
-2.74353,1.85699,
-2.75574,1.85699,
-2.76642,1.86462,
-2.78168,1.86157,
-2.79236,1.86005,
-2.80304,1.85242,
-2.81525,1.85699,
-2.82593,1.86157,
-2.83051,1.86157,
-2.84119,1.85242,
-2.85034,1.85547,
-2.86255,1.85699,
-2.86865,1.86462,
-2.87628,1.86157,
-2.88086,1.85394,
-2.88544,1.85394,
-2.89307,1.85547,
-2.89307,1.86462,
-2.89612,1.85547,
-2.89612,1.85394,
-2.9007,1.85547,
-2.90222,1.85547,
-2.90527,1.86005,
-2.90527,1.86005,
-2.90833,1.85089,
-2.91138,1.85089,
-2.9129,1.85547,
-2.91901,1.86615,
-2.92664,1.85699,
-2.93274,1.85242,
-2.94037,1.85089,
-2.94495,1.85547,
-2.9541,1.86157,
-2.96326,1.85242,
-2.96783,1.85242,
-2.98157,1.84937,
-2.9892,1.85242,
-3.0014,1.85699,
-3.01056,1.85394,
-3.02277,1.85089,
-3.03192,1.84784,
-3.0426,1.85089,
-3.05786,1.85394,
-3.07007,1.85242,
-3.08533,1.84937,
-3.09753,1.84631,
-3.11737,1.84479,
-3.12805,1.86005,
-3.14026,1.85242,
-3.15399,1.84784,
-3.16772,1.84479,
-3.17993,1.85242,
-3.19366,1.85242,
-3.20435,1.84937,
-3.21808,1.84479,
-3.23334,1.84631,
-3.24402,1.85089,
-3.25317,1.85547,
-3.26843,1.84937,
-3.27454,1.84479,
-3.28827,1.84631,
-3.29742,1.84784,
-3.30658,1.85242,
-3.32336,1.85242,
-3.3371,1.84631,
-3.35083,1.84326,
-3.35999,1.84631,
-3.37677,1.85089,
-3.38898,1.84937,
-3.40118,1.84174,
-3.41644,1.84326,
-3.42712,1.84479,
-3.44391,1.85242,
-3.45764,1.84326,
-3.47443,1.84326,
-3.48663,1.84174,
-3.49426,1.84784,
-3.51257,1.84784,
-3.53088,1.84784,
-3.54614,1.84174,
-3.56445,1.84021,
-3.57819,1.84631,
-3.5965,1.84784,
-3.61328,1.84631,
-3.62701,1.84326,
-3.6377,1.84021,
-3.65295,1.84784,
-3.66058,1.84937,
-3.67126,1.83563,
-3.685,1.84631,
-3.69568,1.84174,
-3.71094,1.84326,
-3.7262,1.84479,
-3.73688,1.84784,
-3.75671,1.83716,
-3.77197,1.84937,
-3.78418,1.84326,
-3.80096,1.84631,
-3.81012,1.84326,
-3.82233,1.84174,
-3.83148,1.84021,
-3.83911,1.84021,
-3.84674,1.84479,
-3.85284,1.84326,
-3.84674,1.83258,
-3.84216,1.84174,
-3.83301,1.84479,
-3.82233,1.84479,
-3.80096,1.84326,
-3.77808,1.84174,
-3.75366,1.83716,
-3.72314,1.83716,
-3.68652,1.84784,
-3.65143,1.84174,
-3.61786,1.83563,
-3.57361,1.83868,
-3.52783,1.84326,
-3.48969,1.85089,
-3.45459,1.83868,
-3.41797,1.83411,
-3.38287,1.83716,
-3.35236,1.83868,
-3.32031,1.84479,
-3.28827,1.84174,
-3.26385,1.83563,
-3.23944,1.84021,
-3.22113,1.84021,
-3.20435,1.84326,
-3.18604,1.84326,
-3.17078,1.83563,
-3.15704,1.83868,
-3.14636,1.84021,
-3.14026,1.84174,
-3.13568,1.84174,
-3.1311,1.83411,
-3.1311,1.83868,
-3.12805,1.84174,
-3.1311,1.84174,
-3.1311,1.83716,
-3.13721,1.83105,
-3.14026,1.83563,
-3.14941,1.83868,
-3.15552,1.84174,
-3.16772,1.83716,
-3.17688,1.83105,
-3.18604,1.83563,
-3.20129,1.83563,
-3.21045,1.84021,
-3.22418,1.83716,
-3.24097,1.83868,
-3.25623,1.83716,
-3.27301,1.83563,
-3.28522,1.83868,
-3.30505,1.83411,
-3.31879,1.83258,
-3.3371,1.83105,
-3.35388,1.83563,
-3.37067,1.83868,
-3.39203,1.83716,
-3.41339,1.83411,
-3.43323,1.83258,
-3.44696,1.83716,
-3.46527,1.83868,
-3.48511,1.83716,
-3.508,1.83258,
-3.52631,1.83105,
-3.54462,1.83563,
-3.56293,1.83716,
-3.57971,1.83563,
-3.59039,1.828,
-3.60107,1.82343,
-3.61328,1.83258,
-3.62244,1.83563,
-3.63464,1.83258,
-3.64227,1.828,
-3.65448,1.83258,
-3.65906,1.83563,
-3.66516,1.82953,
-3.67584,1.83105,
-3.68347,1.82953,
-3.68958,1.82953,
-3.70026,1.83105,
-3.70331,1.83411,
-3.70789,1.83105,
-3.71552,1.82953,
-3.71704,1.828,
-3.72314,1.83258,
-3.72467,1.83563,
-3.72772,1.83105,
-3.73077,1.82343,
-3.73535,1.8219,
-3.73383,1.82953,
-3.7384,1.83716,
-3.7384,1.82953,
-3.7384,1.82343,
-3.74146,1.828,
-3.74298,1.82953,
-3.74603,1.83105,
-3.74908,1.83258,
-3.74908,1.82495,
-3.75519,1.828,
-3.75671,1.828,
-3.76129,1.82343,
-3.76129,1.82953,
-3.7674,1.84021,
-3.77197,1.81732,
-3.77808,1.828,
-3.79028,1.82495,
-3.79791,1.82343,
-3.80096,1.82343,
-3.80859,1.82037,
-3.8208,1.82495,
-3.82538,1.82343,
-3.83453,1.81122,
-3.83911,1.8219,
-3.84827,1.81885,
-3.8559,1.82495,
-3.86505,1.8219,
-3.87268,1.81885,
-3.88184,1.81885,
-3.88336,1.83563,
-3.88794,1.8219,
-3.89252,1.82343,
-3.89709,1.8219,
-3.89862,1.82037,
-3.9032,1.8158,
-3.90167,1.81885,
-3.90472,1.82343,
-3.90778,1.83563,
-3.90472,1.81732,
-3.90625,1.8158,
-3.90625,1.81732,
-3.90625,1.8219,
-3.9093,1.8158,
-3.91235,1.81427,
-3.91388,1.81732,
-3.91388,1.81885,
-3.91541,1.8219,
-3.91693,1.81427,
-3.91235,1.8158,
-3.9093,1.81274,
-3.90472,1.81732,
-3.90015,1.81885,
-3.89252,1.82037,
-3.88947,1.81732,
-3.88184,1.80511,
-3.87726,1.81732,
-3.87421,1.82037,
-3.87268,1.81732,
-3.86963,1.81274,
-3.8681,1.80969,
-3.86658,1.82037,
-3.86658,1.81732,
-3.8681,1.81732,
-3.8681,1.81427,
-3.86963,1.81274,
-3.87421,1.81885,
-3.87573,1.81885,
-3.87878,1.80664,
-3.88336,1.80969,
-3.88336,1.81427,
-3.89252,1.80969,
-3.89099,1.81732,
-3.89252,1.8158,
-3.89709,1.81427,
-3.89557,1.80969,
-3.90167,1.81732,
-3.90015,1.82037,
-3.90015,1.81274,
-3.89709,1.81122,
-3.89099,1.81274,
-3.88641,1.81427,
-3.87421,1.8158,
-3.86353,1.81274,
-3.83759,1.80817,
-3.81165,1.81122,
-3.78418,1.81122,
-3.74908,1.81122,
-3.70941,1.81427,
-3.66974,1.80817,
-3.62701,1.81122,
-3.58429,1.81427,
-3.53546,1.81122,
-3.49731,1.8158,
-3.45764,1.81122,
-3.41644,1.80511,
-3.37982,1.81274,
-3.34473,1.81274,
-3.30963,1.81427,
-3.27759,1.80969,
-3.25165,1.80969,
-3.22571,1.81732,
-3.20282,1.8158,
-3.17688,1.81122,
-3.15399,1.80817,
-3.13263,1.80969,
-3.11584,1.8158,
-3.09906,1.81427,
-3.08228,1.81122,
-3.06854,1.80969,
-3.05481,1.80664,
-3.04108,1.80969,
-3.0304,1.81122,
-3.01666,1.81274,
-3.00446,1.80664,
-2.99835,1.80664,
-2.98462,1.80969,
-2.97546,1.81274,
-2.97089,1.80817,
-2.96326,1.80359,
-2.95563,1.80511,
-2.95563,1.81122,
-2.95105,1.81274,
-2.95105,1.80817,
-2.95258,1.80664,
-2.95258,1.80359,
-2.95868,1.81122,
-2.96173,1.80969,
-2.96936,1.80664,
-2.97852,1.80054,
-2.98615,1.80054,
-3.00293,1.81122,
-3.01971,1.80969,
-3.0304,1.81122,
-3.04565,1.80206,
-3.05939,1.80206,
-3.07465,1.80817,
-3.09143,1.80664,
-3.11127,1.80969,
-3.12653,1.80511,
-3.14636,1.79901,
-3.1601,1.80969,
-3.17535,1.80664,
-3.19061,1.80511,
-3.2074,1.80206,
-3.22418,1.80054,
-3.23792,1.80817,
-3.2486,1.80664,
-3.2608,1.80817,
-3.27148,1.80206,
-3.28522,1.80359,
-3.29437,1.80511,
-3.30658,1.80511,
-3.31268,1.80511,
-3.31573,1.80206,
-3.32031,1.79901,
-3.32184,1.80664,
-3.32184,1.80511,
-3.32336,1.80511,
-3.32336,1.79901,
-3.32489,1.79749,
-3.32336,1.80817,
-3.32184,1.80511,
-3.32184,1.79901,
-3.31879,1.79443,
-3.31726,1.79443,
-3.31421,1.79901,
-3.30811,1.80206,
-3.30353,1.80054,
-3.29895,1.79138,
-3.29132,1.79443,
-3.28522,1.79749,
-3.28064,1.79596,
-3.27454,1.79901,
-3.26538,1.79749,
-3.25165,1.79596,
-3.24097,1.80206,
-3.22723,1.79901,
-3.21808,1.80511,
-3.21198,1.80054,
-3.20435,1.79901,
-3.19672,1.80359,
-3.18756,1.80511,
-3.17993,1.80054,
-3.17078,1.80359,
-3.1662,1.80206,
-3.1601,1.80054,
-3.1601,1.80206,
-3.15704,1.80359,
-3.15247,1.80054,
-3.15094,1.80054,
-3.15552,1.79596,
-3.15552,1.80511,
-3.1601,1.80359,
-3.1662,1.79901,
-3.1723,1.80054,
-3.18146,1.79901,
-3.19519,1.80206,
-3.2135,1.80359,
-3.23334,1.79749,
-3.2547,1.79901,
-3.27911,1.80206,
-3.30505,1.80359,
-3.33252,1.80206,
-3.37067,1.79749,
-3.40271,1.80054,
-3.44086,1.79749,
-3.47595,1.80206,
-3.5141,1.79596,
-3.54462,1.79901,
-3.57819,1.79749,
-3.60413,1.79749,
-3.63617,1.80206,
-3.66974,1.80359,
-3.69873,1.79596,
-3.72467,1.79901,
-3.75214,1.79749,
-3.77808,1.79901,
-3.79791,1.80206,
-3.82233,1.80054,
-3.83606,1.79749,
-3.85284,1.79901,
-3.87115,1.80054,
-3.88336,1.80054,
-3.90167,1.79443,
-3.91541,1.79901,
-3.93372,1.79443,
-3.94745,1.79749,
-3.95966,1.79749,
-3.97339,1.79443,
-3.99017,1.79596,
-4.00696,1.79596,
-4.02374,1.79596,
-4.0329,1.79749,
-4.04205,1.79749,
-4.05273,1.79749,
-4.06036,1.79596,
-4.06952,1.79749,
-4.07867,1.79443,
-4.09241,1.79596,
-4.09698,1.79596,
-4.10919,1.79749,
-4.11682,1.79596,
-4.12903,1.79596,
-4.13818,1.79138,
-4.15039,1.79596,
-4.15802,1.79596,
-4.1687,1.79901,
-4.17633,1.79749,
-4.18701,1.79138,
-4.19769,1.79443,
-4.2038,1.79749,
-4.2099,1.79749,
-4.2099,1.79596,
-4.21143,1.79443,
-4.21143,1.79443,
-4.2099,1.79443,
-4.2038,1.79901,
-4.18549,1.79596,
-4.17023,1.79443,
-4.14429,1.79138,
-4.11682,1.78986,
-4.08325,1.80054,
-4.04816,1.79596,
-4.00848,1.79138,
-3.97034,1.79138,
-3.92914,1.79138,
-3.88336,1.79749,
-3.83911,1.79443,
-3.79181,1.78986,
-3.75061,1.79138,
-3.70789,1.79443,
-3.66669,1.79443,
-3.62396,1.79443,
-3.58582,1.78986,
-3.54462,1.78986,
-3.508,1.79138,
-3.479,1.79749,
-3.45001,1.79749,
-3.42102,1.78833,
-3.39966,1.79443,
-3.3783,1.78833,
-3.35693,1.79596,
-3.34167,1.79443,
-3.32794,1.79138,
-3.31726,1.78986,
-3.30658,1.78986,
-3.29285,1.79901,
-3.28522,1.79749,
-3.27454,1.79443,
-3.26385,1.79138,
-3.25623,1.78833,
-3.25317,1.79749,
-3.24707,1.79596,
-3.24097,1.78528,
-3.23486,1.79443,
-3.22571,1.78833,
-3.21503,1.79596,
-3.21045,1.79749,
-3.20435,1.79443,
-3.19672,1.78528,
-3.20282,1.78375,
-3.19977,1.78986,
-3.20282,1.79749,
-3.20587,1.78375,
-3.21198,1.78833,
-3.2135,1.78528,
-3.21198,1.79749,
-3.21808,1.79596,
-3.21808,1.78986,
-3.22418,1.78833,
-3.22418,1.78375,
-3.22876,1.79901,
-3.22876,1.79596,
-3.23334,1.78833,
-3.23486,1.79443,
-3.24097,1.79138,
-3.24707,1.79596,
-3.2547,1.79596,
-3.26385,1.79138,
-3.27454,1.79596,
-3.28674,1.78833,
-3.30353,1.79749,
-3.31879,1.79443,
-3.33099,1.7868,
-3.3493,1.78986,
-3.36456,1.79138,
-3.37982,1.79596,
-3.39508,1.78986,
-3.41034,1.7868,
-3.42407,1.78986,
-3.4317,1.80206,
-3.45001,1.79901,
-3.45917,1.79443,
-3.4668,1.78986,
-3.479,1.78528,
-3.48969,1.78986,
-3.49579,1.79749,
-3.50342,1.79443,
-3.5141,1.78833,
-3.5141,1.78833,
-3.51868,1.78986,
-3.5202,1.79138,
-3.52325,1.79138,
-3.52173,1.78986,
-3.52783,1.78833,
-3.52631,1.79138,
-3.52173,1.79443,
-3.52478,1.79443,
-3.52478,1.78833,
-3.52325,1.7868,
-3.51868,1.78833,
-3.51715,1.79443,
-3.51715,1.79596,
-3.5202,1.79138,
-3.5202,1.78833,
-3.5202,1.78986,
-3.52173,1.79443,
-3.52173,1.79596,
-3.51868,1.78986,
-3.51715,1.78833,
-3.51868,1.7868,
-3.52173,1.79138,
-3.52173,1.79749,
-3.52325,1.78986,
-3.52631,1.78833,
-3.52783,1.77765,
-3.53241,1.79443,
-3.53546,1.79138,
-3.54462,1.78833,
-3.54462,1.78833,
-3.54767,1.78986,
-3.55225,1.78986,
-3.55682,1.79596,
-3.56293,1.79443,
-3.5675,1.78375,
-3.57513,1.79138,
-3.58734,1.79138,
-3.59955,1.78986,
-3.60565,1.79443,
-3.61633,1.79138,
-3.62854,1.79443,
-3.63617,1.78986,
-3.64685,1.79596,
-3.65448,1.7868,
-3.66669,1.78528,
-3.67432,1.78986,
-3.68347,1.79596,
-3.69415,1.78986,
-3.70331,1.79138,
-3.71704,1.7868,
-3.72772,1.78986,
-3.73535,1.79443,
-3.74603,1.79443,
-3.75519,1.78986,
-3.7674,1.7868,
-3.77808,1.78986,
-3.78571,1.80359,
-3.79791,1.79596,
-3.80707,1.79443,
-3.81775,1.79138,
-3.82843,1.79443,
-3.83301,1.79901,
-3.84216,1.79901,
-3.85284,1.79138,
-3.862,1.78986,
-3.86505,1.79443,
-3.87573,1.79901,
-3.88184,1.79901,
-3.88947,1.79443,
-3.89252,1.78528,
-3.89862,1.79596,
-3.90472,1.79901,
-3.90625,1.79901,
-3.90778,1.79749,
-3.91083,1.79443,
-3.91083,1.79443,
-3.91235,1.79596,
-3.90625,1.80054,
-3.9032,1.79749,
-3.89709,1.79596,
-3.88794,1.79749,
-3.88031,1.79749,
-3.86963,1.80359,
-3.85742,1.79901,
-3.83759,1.79443,
-3.82233,1.79901,
-3.79944,1.80206,
-3.77502,1.80511,
-3.75519,1.79443,
-3.72772,1.79596,
-3.69263,1.79749,
-3.65601,1.80054,
-3.6087,1.80511,
-3.5614,1.80054,
-3.51257,1.79749,
-3.45612,1.79749,
-3.40118,1.80054,
-3.34778,1.80206,
-3.29132,1.80054,
-3.23486,1.79596,
-3.17688,1.79901,
-3.1189,1.80206,
-3.06396,1.80359,
-3.01056,1.79901,
-2.96021,1.79901,
-2.91138,1.80054,
-2.86713,1.80359,
-2.8183,1.80359,
-2.78015,1.80206,
-2.73895,1.78986,
-2.70538,1.80359,
-2.67792,1.80359,
-2.65045,1.81122,
-2.62451,1.79596,
-2.60315,1.79749,
-2.58789,1.80511,
-2.57416,1.80359,
-2.565,1.80359,
-2.565,1.80054,
-2.56042,1.79901,
-2.56348,1.79901,
-2.57263,1.80664,
-2.58179,1.80054,
-2.59705,1.80054,
-2.61688,1.79901,
-2.63519,1.80054,
-2.65808,1.80054,
-2.67029,1.80359,
-2.69165,1.80206,
-2.71149,1.79443,
-2.7298,1.79901,
-2.74963,1.80359,
-2.76947,1.80359,
-2.78778,1.80206,
-2.80762,1.79901,
-2.82288,1.79901,
-2.84271,1.80206,
-2.86102,1.80664,
-2.87781,1.79901,
-2.89612,1.79749,
-2.90985,1.80206,
-2.92816,1.80817,
-2.94189,1.80511,
-2.96326,1.79901,
-2.97699,1.79749,
-2.99835,1.80054,
-3.00751,1.80511,
-3.02734,1.80817,
-3.04565,1.80206,
-3.05939,1.79901,
-3.07312,1.80054,
-3.08533,1.80511,
-3.09753,1.80511,
-3.10364,1.80206,
-3.11432,1.79749,
-3.12195,1.80206,
-3.12347,1.80511,
-3.125,1.80664,
-3.1311,1.80511,
-3.13568,1.79596,
-3.13568,1.79901,
-3.14026,1.80664,
-3.14026,1.80511,
-3.13873,1.80359,
-3.14178,1.79138,
-3.14331,1.80664,
-3.14789,1.80511,
-3.14484,1.80359,
-3.14026,1.80511,
-3.13721,1.79901,
-3.13263,1.80206,
-3.12805,1.80664,
-3.125,1.80817,
-3.1189,1.80511,
-3.11279,1.79901,
-3.10669,1.80054,
-3.10364,1.80664,
-3.10059,1.80664,
-3.09906,1.80359,
-3.09753,1.79901,
-3.09296,1.80511,
-3.09143,1.81122,
-3.09753,1.82343,
-3.09601,1.80359,
-3.09906,1.80359,
-3.10059,1.80054,
-3.10669,1.80206,
-3.10364,1.80664,
-3.10516,1.80054,
-3.10974,1.80054,
-3.11127,1.80359,
-3.11432,1.80817,
-3.12347,1.81122,
-3.12805,1.80206,
-3.13568,1.79749,
-3.14178,1.80359,
-3.14941,1.80969,
-3.15704,1.80664,
-3.1601,1.80511,
-3.16772,1.80206,
-3.17383,1.80664,
-3.17688,1.80817,
-3.17841,1.80206,
-3.17993,1.80664,
-3.17688,1.80206,
-3.17688,1.80359,
-3.17535,1.80969,
-3.17383,1.80664,
-3.17688,1.80664,
-3.17841,1.80359,
-3.17688,1.80969,
-3.17993,1.81274,
-3.17993,1.80969,
-3.18451,1.80511,
-3.18604,1.80359,
-3.18756,1.80664,
-3.19061,1.81122,
-3.20129,1.80511,
-3.2074,1.80664,
-3.21655,1.80359,
-3.22418,1.80511,
-3.23639,1.80969,
-3.24249,1.80664,
-3.2486,1.80664,
-3.25623,1.80359,
-3.26538,1.80664,
-3.27454,1.81122,
-3.28369,1.80969,
-3.29132,1.80817,
-3.29895,1.79901,
-3.30963,1.80664,
-3.31879,1.80817,
-3.32642,1.80817,
-3.34015,1.80511,
-3.34778,1.80206,
-3.35846,1.80969,
-3.36151,1.81427,
-3.37372,1.80511,
-3.37982,1.80817,
-3.38593,1.80359,
-3.38898,1.80664,
-3.39508,1.81122,
-3.40881,1.80969,
-3.41644,1.80817,
-3.4256,1.80206,
-3.43933,1.80817,
-3.44696,1.80817,
-3.45764,1.80817,
-3.46832,1.80511,
-3.48053,1.80206,
-3.49274,1.80054,
-3.50494,1.81427,
-3.5141,1.81427,
-3.52478,1.80359,
-3.53241,1.80511,
-3.54004,1.80817,
-3.55072,1.81274,
-3.5614,1.80969,
-3.56445,1.80664,
-3.5614,1.80511,
-3.55988,1.80664,
-3.54919,1.80817,
-3.53851,1.80969,
-3.5202,1.80511,
-3.50037,1.80511,
-3.47137,1.80664,
-3.44086,1.81122,
-3.40576,1.81427,
-3.36456,1.80817,
-3.31879,1.80206,
-3.27759,1.80969,
-3.23486,1.80817,
-3.18451,1.80817,
-3.14331,1.80664,
-3.0899,1.80359,
-3.0426,1.80817,
-2.99377,1.81122,
-2.948,1.81122,
-2.90222,1.80664,
-2.86102,1.80511,
-2.82288,1.80817,
-2.77863,1.81274,
-2.74353,1.81274,
-2.71301,1.80817,
-2.68555,1.80359,
-2.65808,1.80664,
-2.63214,1.81122,
-2.60468,1.81274,
-2.58789,1.80359,
-2.56805,1.81885,
-2.55127,1.80969,
-2.53754,1.81122,
-2.52533,1.80969,
-2.51923,1.80664,
-2.51312,1.80817,
-2.50397,1.80664,
-2.50092,1.80511,
-2.50244,1.81122,
-2.50244,1.80664,
-2.50397,1.80664,
-2.50702,1.80664,
-2.5116,1.81122,
-2.51617,1.81427,
-2.52228,1.80817,
-2.52228,1.80054,
-2.52533,1.80817,
-2.53296,1.80969,
-2.53754,1.80817,
-2.54211,1.80664,
-2.5528,1.80206,
-2.55585,1.80664,
-2.565,1.80817,
-2.56805,1.80969,
-2.56958,1.80817,
-2.57721,1.80511,
-2.58636,1.80511,
-2.58484,1.81122,
-2.59247,1.80664,
-2.59705,1.80817,
-2.60315,1.80664,
-2.6062,1.80817,
-2.6123,1.81274,
-2.61536,1.8158,
-2.62299,1.80359,
-2.62451,1.80511,
-2.62756,1.80817,
-2.63672,1.81274,
-2.6413,1.80969,
-2.64587,1.79443,
-2.65656,1.80969,
-2.66113,1.80969,
-2.66724,1.80664,
-2.67487,1.81274,
-2.68097,1.80511,
-2.69165,1.79901,
-2.69928,1.80664,
-2.70691,1.80206,
-2.71454,1.81122,
-2.72217,1.80817,
-2.72827,1.80359,
-2.7359,1.80817,
-2.74506,1.80817,
-2.75421,1.80817,
-2.75574,1.80511,
-2.76184,1.80511,
-2.76489,1.80664,
-2.76794,1.80969,
-2.77405,1.80969,
-2.7771,1.80817,
-2.77557,1.80359,
-2.77557,1.80511,
-2.77557,1.81274,
-2.77405,1.8158,
-2.77405,1.80664,
-2.77252,1.80206,
-2.77557,1.80511,
-2.76794,1.81122,
-2.76489,1.81122,
-2.75726,1.80359,
-2.75269,1.80206,
-2.74658,1.80817,
-2.742,1.81427,
-2.73895,1.81732,
-2.73438,1.80511,
-2.73132,1.80969,
-2.72522,1.80359,
-2.72522,1.828,
-2.72217,1.8158,
-2.72064,1.81122,
-2.72369,1.80817,
-2.72217,1.80511,
-2.72369,1.80817,
-2.72827,1.81122,
-2.72827,1.80664,
-2.73438,1.80511,
-2.74048,1.80511,
-2.74658,1.80969,
-2.75574,1.80969,
-2.76031,1.80359,
-2.76794,1.80511,
-2.77252,1.80664,
-2.78168,1.80969,
-2.79694,1.81122,
-2.80151,1.80054,
-2.80914,1.80359,
-2.8183,1.80969,
-2.83051,1.81122,
-2.84424,1.81274,
-2.85492,1.80817,
-2.86255,1.80511,
-2.87628,1.80359,
-2.88239,1.80969,
-2.89154,1.81427,
-2.89917,1.80664,
-2.90985,1.80359,
-2.91595,1.80664,
-2.92816,1.81274,
-2.93427,1.81274,
-2.93732,1.80511,
-2.94647,1.80817,
-2.9541,1.80664,
-2.95868,1.80969,
-2.96783,1.81274,
-2.96936,1.80511,
-2.97699,1.80359,
-2.98309,1.80664,
-2.9892,1.80969,
-2.99683,1.81122,
-3.00598,1.80664,
-3.01208,1.80664,
-3.01666,1.80817,
-3.02887,1.81274,
-3.03345,1.81427,
-3.03802,1.80969,
-3.05023,1.80817,
-3.05481,1.81122,
-3.06702,1.81427,
-3.07312,1.81427,
-3.08075,1.80511,
-3.09143,1.80817,
-3.09906,1.80817,
-3.10822,1.81274,
-3.11432,1.8158,
-3.12195,1.81122,
-3.1311,1.80817,
-3.14026,1.80817,
-3.14331,1.81427,
-3.14941,1.81732,
-3.15857,1.81122,
-3.16925,1.80817,
-3.17688,1.80817,
-3.18298,1.81732,
-3.18756,1.81732,
-3.19061,1.80817,
-3.19061,1.81122,
-3.19061,1.80969,
-3.18756,1.8158,
-3.17993,1.80817,
-3.17078,1.81122,
-3.14789,1.81122,
-3.1311,1.81122,
-3.10059,1.80969,
-3.07007,1.82037,
-3.03497,1.81122,
-3.00293,1.80817,
-2.96021,1.80664,
-2.91748,1.8158,
-2.87323,1.82037,
-2.82898,1.81274,
-2.78625,1.80664,
-2.74353,1.81122,
-2.69775,1.81427,
-2.65503,1.81427,
-2.61078,1.8158,
-2.56958,1.81122,
-2.52686,1.81427,
-2.48566,1.81427,
-2.45361,1.8158,
-2.41699,1.81274,
-2.38953,1.81274,
-2.36053,1.81274,
-2.33459,1.81427,
-2.31323,1.8158,
-2.29492,1.81732,
-2.27356,1.81274,
-2.26135,1.81122,
-2.24609,1.81885,
-2.23694,1.81732,
-2.22626,1.81122,
-2.22015,1.80817,
-2.21558,1.81427,
-2.211,1.8158,
-2.20947,1.8158,
-2.20642,1.8158,
-2.20184,1.81427,
-2.20337,1.81274,
-2.20337,1.81732,
-2.20795,1.8158,
-2.211,1.81885,
-2.21405,1.81427,
-2.21863,1.81732,
-2.22321,1.82037,
-2.22931,1.82037,
-2.23694,1.82037,
-2.23999,1.8158,
-2.24915,1.8158,
-2.25677,1.81732,
-2.26288,1.81885,
-2.26746,1.8158,
-2.27509,1.81885,
-2.28271,1.82037,
-2.29034,1.8158,
-2.2995,1.8158,
-2.31018,1.81885,
-2.31781,1.8219,
-2.32849,1.81122,
-2.33917,1.81885,
-2.35138,1.81885,
-2.35901,1.82343,
-2.37427,1.81122,
-2.38037,1.81732,
-2.39105,1.82343,
-2.40021,1.8219,
-2.40936,1.8219,
-2.4231,1.81427,
-2.4353,1.81885,
-2.44446,1.828,
-2.45361,1.82495,
-2.46277,1.82343,
-2.4704,1.81732,
-2.48413,1.82037,
-2.49176,1.82343,
-2.49481,1.82495,
-2.49634,1.83258,
-2.50092,1.8158,
-2.50244,1.8219,
-2.50397,1.8219,
-2.50397,1.84174,
-2.50549,1.8219,
-2.50244,1.82037,
-2.50244,1.82343,
-2.50244,1.82953,
-2.50244,1.828,
-2.50092,1.82495,
-2.50702,1.82343,
-2.50549,1.82495,
-2.51312,1.828,
-2.51465,1.82495,
-2.5177,1.828,
-2.52075,1.8219,
-2.5238,1.82953,
-2.52686,1.828,
-2.52991,1.81427,
-2.52991,1.82953,
-2.53448,1.82495,
-2.53448,1.82037,
-2.53296,1.82953,
-2.54059,1.83258,
-2.54364,1.83411,
-2.55127,1.8219,
-2.55585,1.82343,
-2.56195,1.83411,
-2.565,1.83105,
-2.57111,1.83105,
-2.58179,1.828,
-2.58179,1.83105,
-2.59094,1.83105,
-2.59552,1.83105,
-2.60162,1.83411,
-2.60925,1.82953,
-2.61078,1.82953,
-2.61993,1.82953,
-2.62909,1.83105,
-2.63062,1.82953,
-2.63977,1.82953,
-2.64587,1.82953,
-2.65808,1.83716,
-2.66266,1.83411,
-2.67334,1.83105,
-2.67944,1.8219,
-2.69775,1.83258,
-2.70538,1.83411,
-2.71759,1.83563,
-2.7298,1.83105,
-2.742,1.828,
-2.75421,1.83563,
-2.76337,1.83563,
-2.77557,1.83411,
-2.78778,1.83563,
-2.79846,1.83411,
-2.80762,1.83105,
-2.81525,1.83258,
-2.82745,1.83411,
-2.83966,1.82953,
-2.85187,1.82953,
-2.86255,1.82953,
-2.86865,1.83563,
-2.87323,1.83411,
-2.87781,1.83716,
-2.88086,1.83105,
-2.88544,1.84937,
-2.89307,1.83716,
-2.89764,1.83716,
-2.90222,1.83105,
-2.9068,1.83563,
-2.90833,1.83411,
-2.90985,1.83868,
-2.91595,1.84021,
-2.91595,1.83258,
-2.92053,1.83563,
-2.92511,1.83563,
-2.92664,1.84021,
-2.92816,1.84021,
-2.92816,1.83716,
-2.92969,1.83411,
-2.92511,1.83563,
-2.92664,1.84021,
-2.92969,1.84326,
-2.92816,1.83868,
-2.93427,1.83258,
-2.93579,1.83868,
-2.93884,1.83716,
-2.94342,1.84021,
-2.94952,1.83868,
-2.94952,1.83411,
-2.95105,1.83563,
-2.948,1.84021,
-2.94495,1.84021,
-2.93121,1.84479,
-2.91748,1.83411,
-2.89917,1.83716,
-2.87323,1.84174,
-2.84424,1.84479,
-2.81677,1.84174,
-2.78015,1.83716,
-2.74353,1.83105,
-2.70233,1.84326,
-2.66266,1.84326,
-2.61841,1.84021,
-2.57111,1.83563,
-2.5238,1.83716,
-2.47345,1.84326,
-2.42615,1.84631,
-2.3819,1.84326,
-2.3407,1.83716,
-2.29645,1.84021,
-2.25983,1.84174,
-2.22321,1.84784,
-2.18506,1.84326,
-2.15302,1.84021,
-2.12555,1.84021,
-2.09503,1.84326,
-2.07062,1.84784,
-2.04315,1.84174,
-2.02484,1.83716,
-2.00958,1.83716,
-1.99127,1.84479,
-1.97906,1.84479,
-1.96686,1.84326,
-1.95618,1.83868,
-1.94855,1.83716,
-1.94397,1.84326,
-1.93939,1.84479,
-1.93634,1.84631,
-1.93329,1.84326,
-1.93634,1.83716,
-1.94092,1.84479,
-1.93939,1.84631,
-1.94244,1.84937,
-1.9455,1.84174,
-1.95007,1.84021,
-1.95618,1.84631,
-1.96228,1.84784,
-1.96838,1.84021,
-1.97449,1.84174,
-1.98059,1.84174,
-1.98822,1.84631,
-1.99738,1.84479,
-2.00348,1.84631,
-2.00958,1.84326,
-2.01721,1.84174,
-2.02789,1.84631,
-2.0401,1.84937,
-2.04926,1.85089,
-2.05688,1.83868,
-2.07214,1.84174,
-2.07977,1.84937,
-2.09351,1.85089,
-2.10571,1.84631,
-2.11792,1.84174,
-2.1286,1.84479,
-2.14233,1.84784,
-2.15302,1.84937,
-2.16827,1.84784,
-2.17896,1.84326,
-2.19269,1.84479,
-2.20337,1.84631,
-2.21252,1.84631,
-2.22321,1.84937,
-2.23236,1.84174,
-2.23999,1.84021,
-2.24609,1.84631,
-2.25372,1.85242,
-2.26135,1.84937,
-2.2644,1.84174,
-2.27509,1.84326,
-2.28119,1.85089,
-2.28577,1.85089,
-2.29034,1.84479,
-2.29187,1.84326,
-2.29034,1.84479,
-2.28882,1.84631,
-2.28424,1.84937,
-2.28424,1.84937,
-2.28577,1.84631,
-2.28577,1.84479,
-2.28271,1.84784,
-2.27966,1.84479,
-2.27661,1.86615,
-2.27966,1.84479,
-2.28271,1.84784,
-2.28577,1.84784,
-2.28271,1.85699,
-2.28577,1.84937,
-2.28271,1.84326,
-2.28271,1.84631,
-2.28424,1.84937,
-2.29034,1.84937,
-2.29492,1.84937,
-2.30103,1.84479,
-2.30103,1.84784,
-2.30865,1.84784,
-2.31171,1.85242,
-2.31781,1.85242,
-2.32544,1.84326,
-2.33002,1.84631,
-2.33917,1.84784,
-2.34528,1.85089,
-2.35748,1.85242,
-2.36664,1.84631,
-2.37732,1.84479,
-2.3941,1.85394,
-2.40173,1.85394,
-2.41547,1.84937,
-2.43225,1.84631,
-2.44904,1.84784,
-2.46429,1.84784,
-2.4826,1.85242,
-2.49939,1.85089,
-2.5177,1.84479,
-2.53143,1.84784,
-2.54822,1.84784,
-2.56195,1.85242,
-2.57416,1.84784,
-2.58484,1.84631,
-2.59857,1.84784,
-2.60468,1.84784,
-2.61536,1.85394,
-2.62299,1.85089,
-2.63062,1.84479,
-2.6413,1.84174,
-2.6535,1.84784,
-2.65503,1.85394,
-2.66571,1.84937,
-2.67487,1.85089,
-2.68402,1.84784,
-2.6947,1.84784,
-2.70691,1.85242,
-2.71301,1.84937,
-2.72522,1.84631,
-2.73438,1.84479,
-2.742,1.84479,
-2.74963,1.85394,
-2.76184,1.85242,
-2.771,1.84631,
-2.78015,1.84479,
-2.79083,1.85089,
-2.79999,1.85394,
-2.80762,1.84937,
-2.81525,1.84479,
-2.82593,1.84479,
-2.83661,1.84631,
-2.84271,1.85394,
-2.85492,1.85242,
-2.86407,1.84784,
-2.86865,1.84326,
-2.88239,1.85089,
-2.89001,1.85394,
-2.9007,1.85089,
-2.91595,1.84937,
-2.93121,1.84784,
-2.94342,1.85089,
-2.9541,1.85547,
-2.96326,1.84937,
-2.96631,1.84479,
-2.97546,1.84784,
-2.97699,1.84784,
-2.98309,1.85699,
-2.98004,1.85089,
-2.97546,1.84631,
-2.96631,1.84784,
-2.94952,1.85089,
-2.93121,1.85089,
-2.90527,1.84937,
-2.87781,1.84784,
-2.84576,1.84937,
-2.81219,1.84937,
-2.771,1.85089,
-2.72675,1.85089,
-2.68707,1.84631,
-2.63977,1.84174,
-2.59247,1.85242,
-2.54822,1.85547,
-2.49939,1.85089,
-2.45209,1.84631,
-2.41241,1.84784,
-2.37122,1.85089,
-2.33612,1.85547,
-2.2995,1.85699,
-2.26746,1.84631,
-2.23846,1.84784,
-2.21405,1.85089,
-2.18964,1.85242,
-2.17133,1.84937,
-2.15607,1.84631,
-2.14081,1.84631,
-2.12708,1.84784,
-2.11792,1.85547,
-2.11182,1.84479,
-2.10419,1.84631,
-2.10266,1.84479,
-2.09656,1.85089,
-2.09045,1.85699,
-2.08435,1.84631,
-2.07977,1.84479,
-2.0752,1.84784,
-2.0752,1.84631,
-2.07062,1.84937,
-2.06909,1.84784,
-2.06604,1.84479,
-2.06451,1.85089,
-2.06146,1.84326,
-2.05994,1.85242,
-2.06146,1.85242,
-2.06604,1.84174,
-2.06909,1.84479,
-2.07367,1.84631,
-2.07367,1.85242,
-2.07672,1.85089,
-2.08282,1.84326,
-2.08588,1.84479,
-2.08893,1.84784,
-2.09045,1.85089,
-2.09351,1.84784,
-2.09961,1.84326,
-2.10571,1.84784,
-2.10876,1.84631,
-2.11487,1.85089,
-2.1225,1.84631,
-2.1286,1.84631,
-2.1347,1.84631,
-2.13776,1.84479,
-2.13928,1.85089,
-2.14081,1.84784,
-2.14233,1.85394,
-2.14539,1.84479,
-2.14844,1.84937,
-2.14844,1.85089,
-2.15149,1.84631,
-2.15149,1.84174,
-2.15149,1.84479,
-2.15149,1.84631,
-2.15302,1.84937,
-2.14996,1.84631,
-2.14996,1.84326,
-2.14844,1.84479,
-2.14691,1.84631,
-2.14844,1.85089,
-2.14539,1.84479,
-2.14233,1.84174,
-2.14081,1.84021,
-2.14081,1.84631,
-2.13776,1.84631,
-2.1347,1.84479,
-2.12708,1.84174,
-2.12708,1.84326,
-2.12555,1.84784,
-2.12402,1.85089,
-2.12402,1.84784,
-2.12097,1.84021,
-2.11639,1.84326,
-2.11487,1.84326,
-2.11945,1.84937,
-2.11639,1.84479,
-2.11639,1.84021,
-2.11792,1.84784,
-2.11945,1.84631,
-2.11945,1.84937,
-2.11945,1.84326,
-2.1225,1.83868,
-2.12097,1.83868,
-2.12097,1.84174,
-2.12555,1.85089,
-2.1286,1.84479,
-2.1286,1.83868,
-2.13013,1.83868,
-2.13623,1.84479,
-2.13776,1.84326,
-2.14539,1.84174,
-2.14996,1.83716,
-2.15454,1.84326,
-2.15607,1.84326,
-2.1698,1.84631,
-2.1759,1.84479,
-2.18964,1.84174,
-2.19727,1.83868,
-2.20795,1.84326,
-2.21558,1.84631,
-2.22931,1.84174,
-2.24304,1.83411,
-2.25525,1.83105,
-2.27356,1.84479,
-2.28424,1.84631,
-2.2934,1.84174,
-2.31171,1.83258,
-2.31934,1.84021,
-2.33459,1.84174,
-2.3468,1.8631,
-2.35901,1.84326,
-2.36969,1.83868,
-2.38037,1.83868,
-2.39258,1.84174,
-2.39868,1.84326,
-2.40936,1.84021,
-2.41547,1.83563,
-2.4231,1.83716,
-2.43225,1.83868,
-2.44293,1.84326,
-2.45056,1.84021,
-2.46124,1.83563,
-2.46277,1.83868,
-2.46735,1.83868,
-2.4704,1.83716,
-2.47803,1.84021,
-2.47955,1.83716,
-2.48108,1.83716,
-2.49023,1.83868,
-2.49023,1.84631,
-2.49481,1.83868,
-2.49481,1.83563,
-2.49329,1.83411,
-2.49481,1.84021,
-2.49481,1.84326,
-2.49481,1.84174,
-2.49786,1.83258,
-2.49634,1.83716,
-2.49939,1.84021,
-2.49939,1.84021,
-2.50092,1.83411,
-2.50397,1.83411,
-2.50702,1.83411,
-2.50549,1.83563,
-2.50244,1.84021,
-2.50244,1.83716,
-2.50397,1.83716,
-2.50244,1.83716,
-2.50244,1.83868,
-2.50549,1.84021,
-2.50397,1.83716,
-2.50244,1.83258,
-2.49939,1.83411,
-2.48871,1.83716,
-2.4704,1.84631,
-2.45819,1.83716,
-2.43988,1.83105,
-2.41089,1.83716,
-2.37885,1.83411,
-2.34222,1.83716,
-2.30255,1.84021,
-2.2644,1.82343,
-2.22626,1.82953,
-2.17743,1.83868,
-2.13623,1.83411,
-2.09351,1.84326,
-2.0462,1.82953,
-2.00348,1.828,
-1.9577,1.83716,
-1.9165,1.83563,
-1.87683,1.83105,
-1.84021,1.82953,
-1.80359,1.83105,
-1.77155,1.83868,
-1.7395,1.83105,
-1.71356,1.82953,
-1.69067,1.83411,
-1.66626,1.83258,
-1.64948,1.83563,
-1.63422,1.83411,
-1.62659,1.82953,
-1.61285,1.83258,
-1.60522,1.83105,
-1.59454,1.83258,
-1.59454,1.83716,
-1.59302,1.83411,
-1.58997,1.82953,
-1.59302,1.83105,
-1.5976,1.83105,
-1.59912,1.83258,
-1.60217,1.83105,
-1.60828,1.83105,
-1.61285,1.83411,
-1.62048,1.83411,
-1.62659,1.83105,
-1.63269,1.83105,
-1.63727,1.83105,
-1.6449,1.828,
-1.65253,1.83258,
-1.65863,1.82953,
-1.66321,1.83563,
-1.66931,1.828,
-1.67542,1.828,
-1.68304,1.83258,
-1.69067,1.83411,
-1.6983,1.83411,
-1.70593,1.828,
-1.70898,1.8219,
-1.71509,1.83258,
-1.72424,1.83105,
-1.73187,1.82953,
-1.74103,1.828,
-1.75476,1.82343,
-1.76086,1.82953,
-1.76697,1.82953,
-1.77307,1.828,
-1.78375,1.82495,
-1.79291,1.82343,
-1.80206,1.82953,
-1.81122,1.83258,
-1.8158,1.83411,
-1.828,1.8219,
-1.83868,1.82037,
-1.84326,1.83411,
-1.85089,1.828,
-1.85394,1.82953,
-1.85547,1.8219,
-1.8631,1.82343,
-1.86615,1.828,
-1.8692,1.82495,
-1.86462,1.82953,
-1.86768,1.8219,
-1.87073,1.81885,
-1.87531,1.82495,
-1.87836,1.82953,
-1.87683,1.82343,
-1.88141,1.82343,
-1.87988,1.82037,
-1.88141,1.828,
-1.88446,1.82343,
-1.88599,1.82037,
-1.88904,1.8219,
-1.88904,1.81732,
-1.89667,1.82953,
-1.90125,1.83105,
-1.90582,1.82495,
-1.9104,1.82037,
-1.91498,1.82343,
-1.92261,1.83258,
-1.92719,1.8219,
-1.93176,1.82343,
-1.93787,1.81885,
-1.94244,1.81885,
-1.94397,1.82343,
-1.9455,1.828,
-1.95007,1.8219,
-1.95465,1.81885,
-1.96381,1.8158,
-1.96686,1.82037,
-1.96838,1.82495,
-1.97144,1.82343,
-1.97754,1.81427,
-1.97601,1.82037,
-1.98669,1.8219,
-1.99585,1.82343,
-1.99738,1.82343,
-2.00806,1.81885,
-2.01111,1.80969,
-2.01874,1.82037,
-2.02637,1.82343,
-2.03857,1.82495,
-2.04773,1.8158,
-2.05841,1.8158,
-2.06757,1.8219,
-2.07977,1.81885,
-2.09198,1.82037,
-2.10419,1.81885,
-2.11639,1.8158,
-2.1286,1.82037,
-2.14081,1.82037,
-2.15302,1.82037,
-2.1698,1.81732,
-2.18201,1.8158,
-2.19421,1.8158,
-2.20642,1.8219,
-2.21405,1.81732,
-2.22931,1.81427,
-2.24152,1.81274,
-2.24457,1.8158,
-2.25677,1.82037,
-2.26593,1.81885,
-2.27509,1.81427,
-2.28577,1.83258,
-2.29797,1.81732,
-2.31018,1.81427,
-2.31934,1.82037,
-2.32086,1.80664,
-2.32697,1.8158,
-2.32544,1.8158,
-2.32544,1.81732,
-2.31934,1.81732,
-2.31018,1.8158,
-2.30103,1.81274,
-2.29187,1.81885,
-2.27966,1.81885,
-2.27051,1.8158,
-2.25677,1.81274,
-2.24915,1.81274,
-2.23694,1.81732,
-2.23083,1.81732,
-2.21863,1.8158,
-2.21558,1.81274,
-2.20795,1.8158,
-2.2049,1.81122,
-2.19727,1.81427,
-2.19574,1.81274,
-2.19574,1.81274,
-2.19269,1.81274,
-2.19116,1.81274,
-2.19574,1.81732,
-2.19574,1.8158,
-2.19727,1.81122,
-2.19879,1.81274,
-2.19727,1.81122,
-2.18964,1.81427,
-2.18353,1.82953,
-2.1698,1.81427,
-2.14996,1.81274,
-2.13013,1.81427,
-2.10876,1.8158,
-2.08588,1.81274,
-2.05383,1.81122,
-2.02332,1.81122,
-1.98669,1.80817,
-1.94855,1.80969,
-1.9104,1.8158,
-1.87378,1.81122,
-1.83258,1.80969,
-1.79138,1.81122,
-1.74408,1.81427,
-1.71051,1.80969,
-1.67236,1.80817,
-1.64185,1.81274,
-1.61133,1.81122,
-1.58081,1.81274,
-1.55945,1.80969,
-1.54114,1.80969,
-1.51978,1.80969,
-1.50146,1.80664,
-1.48926,1.81427,
-1.48315,1.80817,
-1.47705,1.80511,
-1.46942,1.80511,
-1.46637,1.80664,
-1.46332,1.81732,
-1.46484,1.80969,
-1.47247,1.80664,
-1.47705,1.80817,
-1.48163,1.80511,
-1.48773,1.80664,
-1.49689,1.80817,
-1.50757,1.80511,
-1.51825,1.80817,
-1.52588,1.80511,
-1.53961,1.81122,
-1.55487,1.80817,
-1.5625,1.80664,
-1.57471,1.80359,
-1.58386,1.80664,
-1.58844,1.80969,
-1.5976,1.80817,
-1.60675,1.80359,
-1.61438,1.80511,
-1.62659,1.80817,
-1.63422,1.80969,
-1.6449,1.80511,
-1.65558,1.80206,
-1.66321,1.80511,
-1.67236,1.80511,
-1.67542,1.80969,
-1.68915,1.80817,
-1.6983,1.80511,
-1.70593,1.80206,
-1.71661,1.80206,
-1.72577,1.80969,
-1.73035,1.80664,
-1.7395,1.80206,
-1.74713,1.80206,
-1.75629,1.80817,
-1.76086,1.80664,
-1.76697,1.80817,
-1.77002,1.80206,
-1.77765,1.80359,
-1.77765,1.80359,
-1.78375,1.80054,
-1.78223,1.80359,
-1.7807,1.80206,
-1.7807,1.80511,
-1.77917,1.80511,
-1.77612,1.80664,
-1.77917,1.80511,
-1.77612,1.80054,
-1.77307,1.79901,
-1.76697,1.80054,
-1.76239,1.80511,
-1.76392,1.80206,
-1.75781,1.80054,
-1.75476,1.79901,
-1.75018,1.82343,
-1.74866,1.80206,
-1.74561,1.80511,
-1.73798,1.79901,
-1.7334,1.80054,
-1.72729,1.79901,
-1.71814,1.80359,
-1.71204,1.80054,
-1.71051,1.79443,
-1.70441,1.79138,
-1.69678,1.79901,
-1.69525,1.80206,
-1.68915,1.80206,
-1.69067,1.79596,
-1.6861,1.80054,
-1.68762,1.80054,
-1.68915,1.80206,
-1.68762,1.80206,
-1.68915,1.79749,
-1.68304,1.80359,
-1.68762,1.79138,
-1.69067,1.80359,
-1.69525,1.78833,
-1.6983,1.79443,
-1.70288,1.79443,
-1.70593,1.79443,
-1.71356,1.80359,
-1.72272,1.80511,
-1.72424,1.79596,
-1.73035,1.79138,
-1.73798,1.79443,
-1.74561,1.80359,
-1.75476,1.79749,
-1.76392,1.79443,
-1.77002,1.80054,
-1.7746,1.79901,
-1.78375,1.80054,
-1.79749,1.79596,
-1.80511,1.79443,
-1.8158,1.79596,
-1.82648,1.79596,
-1.83716,1.80054,
-1.84784,1.80054,
-1.85547,1.79596,
-1.86615,1.79901,
-1.87531,1.79138,
-1.88599,1.78986,
-1.89362,1.79596,
-1.90582,1.78986,
-1.90735,1.79138,
-1.92108,1.78986,
-1.93176,1.79749,
-1.93787,1.79443,
-1.94702,1.79138,
-1.9577,1.79443,
-1.97144,1.79443,
-1.98212,1.79749,
-1.99127,1.79901,
-2.00348,1.79596,
-2.01569,1.78986,
-2.02179,1.79443,
-2.03552,1.79443,
-2.04773,1.80054,
-2.05841,1.79138,
-2.07062,1.78986,
-2.07977,1.78986,
-2.09198,1.79749,
-2.10266,1.79901,
-2.11029,1.79138,
-2.11945,1.78986,
-2.1286,1.78833,
-2.13623,1.79749,
-2.14844,1.79443,
-2.15759,1.79443,
-2.16522,1.78375,
-2.17285,1.7868,
-2.18506,1.79749,
-2.19269,1.79749,
-2.19269,1.78986,
-2.19421,1.78986,
-2.19116,1.78833,
-2.18201,1.79749,
-2.1698,1.79596,
-2.15302,1.78833,
-2.13318,1.78833,
-2.10419,1.78833,
-2.08435,1.79138,
-2.0462,1.79138,
-2.01721,1.78833,
-1.98059,1.78986,
-1.94244,1.77765,
-1.90277,1.78986,
-1.8631,1.79138,
-1.81732,1.78833,
-1.7746,1.7868,
-1.7334,1.78833,
-1.68915,1.79596,
-1.65405,1.79443,
-1.61285,1.7868,
-1.58539,1.78528,
-1.54572,1.78833,
-1.51825,1.79138,
-1.49078,1.78986,
-1.46027,1.78833,
-1.43127,1.77917,
-1.40686,1.78833,
-1.38092,1.78223,
-1.36108,1.79138,
-1.33972,1.78986,
-1.32599,1.7868,
-1.31073,1.78375,
-1.29395,1.79138,
-1.28326,1.7868,
-1.27411,1.78223,
-1.26495,1.78375,
-1.26038,1.78375,
-1.25885,1.78986,
-1.26038,1.78833,
-1.26038,1.78223,
-1.26343,1.78223,
-1.26495,1.78375,
-1.26801,1.78375,
-1.27106,1.78833,
-1.28021,1.7868,
-1.28326,1.78528,
-1.28632,1.78528,
-1.28937,1.78528,
-1.29242,1.79443,
-1.30005,1.78528,
-1.30463,1.78223,
-1.3092,1.78528,
-1.31378,1.7868,
-1.32294,1.78833,
-1.33057,1.78375,
-1.33514,1.78223,
-1.3443,1.78528,
-1.35193,1.78375,
-1.35803,1.78528,
-1.36414,1.78223,
-1.37329,1.7807,
-1.38092,1.78375,
-1.38855,1.78528,
-1.39313,1.7868,
-1.39923,1.7868,
-1.40533,1.77765,
-1.41144,1.7807,
-1.41602,1.78833,
-1.41754,1.78833,
-1.41907,1.78223,
-1.42365,1.77612,
-1.43127,1.7807,
-1.43433,1.7868,
-1.43738,1.7868,
-1.44043,1.78223,
-1.44196,1.77765,
-1.4389,1.77917,
-1.43585,1.7807,
-1.4328,1.7807,
-1.43127,1.7807,
-1.4267,1.77917,
-1.42212,1.77765,
-1.42059,1.78223,
-1.42059,1.7868,
-1.41907,1.78223,
-1.41754,1.7746,
-1.41907,1.77917,
-1.41602,1.78375,
-1.41602,1.78528,
-1.42212,1.77917,
-1.42212,1.7807,
-1.42975,1.78223,
-1.42975,1.78375,
-1.43738,1.78375,
-1.44196,1.7807,
-1.44348,1.77765,
-1.45569,1.77612,
-1.45874,1.7807,
-1.46484,1.78528,
-1.47095,1.78223,
-1.474,1.7746,
-1.4801,1.7746,
-1.48163,1.78223,
-1.48468,1.78223,
-1.48163,1.77765,
-1.48468,1.7746,
-1.48621,1.77765,
-1.49078,1.7807,
-1.49231,1.78528,
-1.49078,1.77765,
-1.49231,1.7746,
-1.49384,1.7746,
-1.49841,1.77612,
-1.50146,1.78223,
-1.50452,1.77765,
-1.51062,1.77155,
-1.51978,1.7746,
-1.52435,1.77917,
-1.52893,1.78223,
-1.53961,1.77612,
-1.54877,1.77307,
-1.5564,1.77612,
-1.56708,1.77917,
-1.57928,1.77917,
-1.58997,1.7746,
-1.59912,1.77307,
-1.61133,1.77307,
-1.62354,1.77917,
-1.63269,1.7807,
-1.6449,1.77917,
-1.6571,1.77002,
-1.67084,1.77307,
-1.68152,1.77765,
-1.69525,1.7807,
-1.70593,1.77612,
-1.71814,1.76697,
-1.73492,1.7746,
-1.74713,1.79596,
-1.76392,1.77765,
-1.77917,1.77155,
-1.80054,1.77002,
-1.81885,1.77612,
-1.83868,1.77917,
-1.85394,1.77917,
-1.87836,1.76544,
-1.90125,1.77155,
-1.9165,1.7746,
-1.93329,1.77765,
-1.9455,1.77307,
-1.96838,1.77307,
-1.98517,1.77002,
-2.005,1.77307,
-2.01569,1.77765,
-2.034,1.77612,
-2.04926,1.77307,
-2.05841,1.76239,
-2.07062,1.77612,
-2.07977,1.77765,
-2.09045,1.7746,
-2.09045,1.77155,
-2.0813,1.77155,
-2.0752,1.77155,
-2.05383,1.77612,
-2.02637,1.77917,
-1.9928,1.7746,
-1.95465,1.77155,
-1.91193,1.77307,
-1.86768,1.77612,
-1.81274,1.77155,
-1.75781,1.77002,
-1.70593,1.76849,
-1.64642,1.77307,
-1.58997,1.77612,
-1.54114,1.77002,
-1.49231,1.77155,
-1.44043,1.76697,
-1.39771,1.78375,
-1.35193,1.77155,
-1.3092,1.77765,
-1.26343,1.77002,
-1.22528,1.76849,
-1.18561,1.77307,
-1.15204,1.77612,
-1.11847,1.78833,
-1.08795,1.76544,
-1.05896,1.76849,
-1.03607,1.77155,
-1.01471,1.77307,
-0.991821,1.77307,
-0.976563,1.76849,
-0.959778,1.77307,
-0.949097,1.76849,
-0.938416,1.77307,
-0.927734,1.7746,
-0.920105,1.76849,
-0.912476,1.76697,
-0.901794,1.77002,
-0.898743,1.77307,
-0.891113,1.77307,
-0.881958,1.76697,
-0.87738,1.76697,
-0.878906,1.76697,
-0.872803,1.7746,
-0.869751,1.77155,
-0.866699,1.76697,
-0.862122,1.76544,
-0.857544,1.77002,
-0.854492,1.77307,
-0.854492,1.77155,
-0.852966,1.76544,
-0.849915,1.76544,
-0.848389,1.77155,
-0.852966,1.77002,
-0.856018,1.77307,
-0.863647,1.76697,
-0.869751,1.76697,
-0.874329,1.78223,
-0.878906,1.77002,
-0.888062,1.7746,
-0.892639,1.77002,
-0.90332,1.76392,
-0.912476,1.76544,
-0.920105,1.77307,
-0.930786,1.7807,
-0.938416,1.75629,
-0.949097,1.76697,
-0.956726,1.7746,
-0.967407,1.77612,
-0.98114,1.77002,
-0.98877,1.76849,
-1.0025,1.76697,
-1.00708,1.76849,
-1.01776,1.77307,
-1.02386,1.77307,
-1.02844,1.77155,
-1.02844,1.76544,
-1.03455,1.76239,
-1.03302,1.77155,
-1.03302,1.77307,
-1.02692,1.76697,
-1.02234,1.76239,
-1.01776,1.76849,
-1.01776,1.77307,
-1.00861,1.76849,
-1.00403,1.76544,
-1.00098,1.76697,
-0.996399,1.76544,
-0.991821,1.76849,
-0.990295,1.77002,
-0.984192,1.76086,
-0.984192,1.76697,
-0.987244,1.76544,
-0.987244,1.77002,
-0.987244,1.7746,
-0.985718,1.76544,
-0.990295,1.76239,
-0.987244,1.76697,
-0.993347,1.77307,
-0.996399,1.77307,
-0.999451,1.77002,
-1.00861,1.76392,
-1.01929,1.77002,
-1.02692,1.77002,
-1.04065,1.76697,
-1.04828,1.76239,
-1.06201,1.76392,
-1.07269,1.76544,
-1.08337,1.76697,
-1.09863,1.76849,
-1.10931,1.76544,
-1.12,1.76849,
-1.13373,1.76392,
-1.13831,1.76849,
-1.14899,1.77155,
-1.15967,1.76086,
-1.1673,1.76544,
-1.1795,1.76392,
-1.19324,1.77002,
-1.19629,1.76697,
-1.21307,1.76392,
-1.21918,1.76849,
-1.22833,1.76697,
-1.24054,1.77155,
-1.24359,1.76849,
-1.25275,1.76697,
-1.2619,1.76697,
-1.26953,1.76849,
-1.27716,1.77002,
-1.28632,1.77155,
-1.297,1.76392,
-1.30005,1.76239,
-1.3092,1.76697,
-1.31836,1.76849,
-1.32904,1.76849,
-1.33514,1.76544,
-1.34888,1.76392,
-1.36261,1.77155,
-1.36719,1.77155,
-1.37482,1.76849,
-1.38397,1.76849,
-1.39313,1.76544,
-1.39465,1.76239,
-1.40381,1.78528,
-1.41602,1.76697,
-1.42517,1.76849,
-1.4328,1.76239,
-1.44806,1.76697,
-1.45721,1.77155,
-1.46637,1.7746,
-1.48163,1.76697,
-1.49231,1.75629,
-1.50146,1.76849,
-1.51215,1.77002,
-1.52435,1.77002,
-1.53656,1.76697,
-1.54572,1.76849,
-1.55334,1.77002,
-1.5625,1.78223,
-1.56555,1.77155,
-1.5625,1.76544,
-1.5564,1.77002,
-1.54877,1.77155,
-1.53046,1.7746,
-1.51062,1.77155,
-1.48163,1.76544,
-1.45721,1.76697,
-1.42517,1.76544,
-1.3916,1.76849,
-1.36108,1.77002,
-1.32294,1.76697,
-1.28479,1.77002,
-1.24664,1.77002,
-1.2085,1.78223,
-1.17035,1.77307,
-1.13068,1.76544,
-1.09863,1.76697,
-1.06049,1.76392,
-1.02844,1.77155,
-0.996399,1.77307,
-0.961304,1.76849,
-0.93689,1.76697,
-0.904846,1.76392,
-0.87738,1.77155,
-0.852966,1.77307,
-0.828552,1.76697,
-0.804138,1.77002,
-0.779724,1.77002,
-0.761414,1.77155,
-0.741577,1.78833,
-0.727844,1.76544,
-0.71106,1.77155,
-0.695801,1.77155,
-0.682068,1.77307,
-0.669861,1.7746,
-0.657654,1.76697,
-0.643921,1.77155,
-0.636292,1.76697,
-0.624084,1.77002,
-0.617981,1.77612,
-0.614929,1.76544,
-0.608826,1.76544,
-0.604248,1.77155,
-0.601196,1.77612,
-0.59967,1.77612,
-0.59967,1.76697,
-0.601196,1.76849,
-0.604248,1.77155,
-0.6073,1.77155,
-0.611877,1.77307,
-0.622559,1.76697,
-0.627136,1.77002,
-0.634766,1.76544,
-0.640869,1.77307,
-0.65155,1.77612,
-0.662231,1.76239,
-0.672913,1.77002,
-0.686646,1.76849,
-0.700378,1.77307,
-0.717163,1.77612,
-0.72937,1.76392,
-0.746155,1.76849,
-0.759888,1.76697,
-0.776672,1.7746,
-0.793457,1.7807,
-0.80719,1.76697,
-0.822449,1.77155,
-0.834656,1.77155,
-0.840759,1.77307,
-0.856018,1.77612,
-0.866699,1.77002,
-0.874329,1.76849,
-0.878906,1.77307,
-0.881958,1.7746,
-0.886536,1.7807,
-0.889587,1.77307,
-0.888062,1.77002,
-0.881958,1.7746,
-0.875854,1.77307,
-0.875854,1.77612,
-0.871277,1.77002,
-0.866699,1.76849,
-0.857544,1.77307,
-0.85144,1.77765,
-0.843811,1.77612,
-0.840759,1.77307,
-0.831604,1.77155,
-0.823975,1.76849,
-0.813293,1.7746,
-0.80719,1.7807,
-0.799561,1.77307,
-0.788879,1.77155,
-0.782776,1.77002,
-0.776672,1.77765,
-0.767517,1.7746,
-0.765991,1.76697,
-0.762939,1.7746,
-0.753784,1.77155,
-0.752258,1.77307,
-0.749207,1.77917,
-0.746155,1.77002,
-0.749207,1.7746,
-0.746155,1.77155,
-0.746155,1.76697,
-0.743103,1.77765,
-0.741577,1.77307,
-0.741577,1.77155,
-0.741577,1.77155,
-0.743103,1.77612,
-0.740051,1.77765,
-0.740051,1.7746,
-0.741577,1.77002,
-0.740051,1.77155,
-0.738525,1.7746,
-0.740051,1.77307,
-0.744629,1.77307,
-0.744629,1.7746,
-0.746155,1.77155,
-0.747681,1.77765,
-0.750732,1.7746,
-0.758362,1.77612,
-0.758362,1.76849,
-0.769043,1.77155,
-0.773621,1.77765,
-0.782776,1.7746,
-0.788879,1.79138,
-0.796509,1.77002,
-0.808716,1.77002,
-0.817871,1.77917,
-0.828552,1.77917,
-0.836182,1.77155,
-0.846863,1.77002,
-0.862122,1.77307,
-0.874329,1.77612,
-0.88501,1.7807,
-0.897217,1.77307,
-0.909424,1.7746,
-0.923157,1.77155,
-0.935364,1.7746,
-0.953674,1.7807,
-0.964355,1.77307,
-0.98114,1.76849,
-0.991821,1.77765,
-1.00555,1.77765,
-1.01929,1.77612,
-1.03455,1.77765,
-1.04675,1.77307,
-1.05896,1.7807,
-1.06964,1.7807,
-1.08337,1.77307,
-1.09253,1.77765,
-1.10321,1.76849,
-1.11389,1.77155,
-1.12,1.77765,
-1.12762,1.77765,
-1.1322,1.77765,
-1.14288,1.7746,
-1.14746,1.77307,
-1.15051,1.77002,
-1.15662,1.7746,
-1.14594,1.7746,
-1.13983,1.77765,
-1.12152,1.77155,
-1.10474,1.77917,
-1.08032,1.77612,
-1.04675,1.7746,
-1.01318,1.77002,
-0.975037,1.79138,
-0.932312,1.77765,
-0.88501,1.7746,
-0.839233,1.77612,
-0.794983,1.7746,
-0.747681,1.77765,
-0.701904,1.77765,
-0.65918,1.77917,
-0.614929,1.77612,
-0.57373,1.7746,
-0.534058,1.7746,
-0.488281,1.77765,
-0.45166,1.77765,
-0.418091,1.77917,
-0.389099,1.77612,
-0.357056,1.77612,
-0.32959,1.77917,
-0.306702,1.77765,
-0.288391,1.77917,
-0.265503,1.77307,
-0.248718,1.77155,
-0.230408,1.77765,
-0.216675,1.77917,
-0.202942,1.77765,
-0.190735,1.77155,
-0.18158,1.7746,
-0.175476,1.77612,
-0.170898,1.77917,
-0.167847,1.77002,
-0.166321,1.77307,
-0.163269,1.7746,
-0.163269,1.7807,
-0.160217,1.7807,
-0.157166,1.77612,
-0.157166,1.77307,
-0.157166,1.7746,
-0.158691,1.77765,
-0.157166,1.77917,
-0.15564,1.77612,
-0.154114,1.7746,
-0.157166,1.7746,
-0.15564,1.7807,
-0.158691,1.77612,
-0.158691,1.77765,
-0.158691,1.7746,
-0.167847,1.77612,
-0.170898,1.7746,
-0.175476,1.77612,
-0.184631,1.77612,
-0.189209,1.7746,
-0.189209,1.77612,
-0.196838,1.77612,
-0.198364,1.77917,
-0.19989,1.7807,
-0.205994,1.77155,
-0.213623,1.7746,
-0.218201,1.77917,
-0.22583,1.77765,
-0.231934,1.77917,
-0.239563,1.77765,
-0.242615,1.77307,
-0.239563,1.7807,
-0.248718,1.7807,
-0.247192,1.77612,
-0.256348,1.77612,
-0.253296,1.7746,
-0.257874,1.77612,
-0.253296,1.77765,
-0.253296,1.77765,
-0.253296,1.77765,
-0.247192,1.7746,
-0.250244,1.77917,
-0.253296,1.78375,
-0.25177,1.78223,
-0.256348,1.77307,
-0.25177,1.77612,
-0.254822,1.77917,
-0.25177,1.77765,
-0.250244,1.77917,
-0.248718,1.77612,
-0.248718,1.77917,
-0.247192,1.77612,
-0.244141,1.77917,
-0.247192,1.77917,
-0.245667,1.77307,
-0.247192,1.7746,
-0.247192,1.77917,
-0.250244,1.77765,
-0.257874,1.78223,
-0.260925,1.77155,
-0.263977,1.77765,
-0.268555,1.7807,
-0.273132,1.77917,
-0.285339,1.77917,
-0.288391,1.7746,
-0.297546,1.77612,
-0.30365,1.77917,
-0.314331,1.77765,
-0.326538,1.77765,
-0.334167,1.77612,
-0.338745,1.77307,
-0.350952,1.77765,
-0.358582,1.77612,
-0.369263,1.77917,
-0.379944,1.77307,
-0.392151,1.77765,
-0.402832,1.77917,
-0.418091,1.78223,
-0.431824,1.7807,
-0.450134,1.77307,
-0.468445,1.77765,
-0.488281,1.77917,
-0.505066,1.77765,
-0.527954,1.7807,
-0.549316,1.7746,
-0.566101,1.7746,
-0.587463,1.77765,
-0.608826,1.78223,
-0.62561,1.7807,
-0.646973,1.77612,
-0.665283,1.7746,
-0.683594,1.78223,
-0.701904,1.7807,
-0.720215,1.78223,
-0.737,1.77155,
-0.752258,1.7746,
-0.765991,1.78223,
-0.779724,1.77917,
-0.796509,1.77917,
-0.810242,1.77765,
-0.823975,1.77307,
-0.83313,1.77612,
-0.845337,1.7807,
-0.863647,1.7807,
-0.872803,1.77612,
-0.886536,1.77612,
-0.897217,1.77612,
-0.907898,1.78223,
-0.917053,1.77765,
-0.926208,1.77002,
-0.935364,1.77307,
-0.944519,1.78375,
-0.9552,1.78375,
-0.965881,1.77765,
-0.978088,1.77612,
-0.98877,1.77612,
-1.0025,1.78223,
-1.01318,1.78223,
-1.03302,1.77612,
-1.04523,1.77307,
-1.05133,1.77155,
-1.06506,1.7868,
-1.07727,1.77765,
-1.08948,1.77917,
-1.10168,1.7746,
-1.11542,1.7746,
-1.12152,1.7807,
-1.1322,1.77917,
-1.13831,1.79901,
-1.13983,1.77155,
-1.14441,1.77307,
-1.13983,1.77917,
-1.13068,1.77917,
-1.12152,1.77917,
-1.10931,1.77155,
-1.08185,1.77612,
-1.05896,1.7746,
-1.02386,1.7807,
-0.984192,1.77917,
-0.946045,1.77307,
-0.900269,1.7746,
-0.856018,1.77765,
-0.804138,1.78223,
-0.753784,1.77307,
-0.704956,1.77307,
-0.65155,1.7746,
-0.602722,1.7746,
-0.556946,1.77612,
-0.505066,1.77917,
-0.462341,1.7746,
-0.408936,1.77765,
-0.370789,1.77765,
-0.331116,1.78375,
-0.294495,1.78223,
-0.262451,1.77612,
-0.231934,1.77307,
-0.205994,1.77917,
-0.183105,1.7807,
-0.15564,1.77612,
-0.137329,1.7746,
-0.117493,1.77612,
-0.100708,1.77765,
-0.0823975,1.77917,
-0.0747681,1.77917,
-0.0610352,1.77612,
-0.0488281,1.77307,
-0.038147,1.77307,
-0.0244141,1.7807,
-0.0167847,1.77765,
-0.00915527,1.77307,
0.00152588,1.77307,
0.00305176,1.77765,
0.0106812,1.78223,
0.0137329,1.77765,
0.0152588,1.7746,
0.0183105,1.77307,
0.0213623,1.77765,
0.0198364,1.7807,
0.0183105,1.77765,
0.0167847,1.77155,
0.0167847,1.77612,
0.0167847,1.7746,
0.0152588,1.78223,
0.00915527,1.77612,
0.00152588,1.77307,
-0.00457764,1.77002,
-0.00915527,1.7746,
-0.0137329,1.7807,
-0.0198364,1.77612,
-0.0274658,1.77612,
-0.0366211,1.7746,
-0.0473022,1.77765,
-0.0518799,1.7807,
-0.0640869,1.77307,
-0.0762939,1.77765,
-0.0869751,1.77307,
-0.0991821,1.77765,
-0.108337,1.7807,
-0.119019,1.77917,
-0.1297,1.77765,
-0.141907,1.77155,
-0.151062,1.77917,
-0.161743,1.78375,
-0.17395,1.7746,
-0.183105,1.77307,
-0.192261,1.77155,
-0.198364,1.77612,
-0.209045,1.7807,
-0.213623,1.78223,
-0.221252,1.7746,
-0.230408,1.7746,
-0.233459,1.77612,
-0.238037,1.77612,
-0.245667,1.7746,
-0.248718,1.77155,
-0.248718,1.77002,
-0.248718,1.77917,
-0.256348,1.77765,
-0.257874,1.77612,
-0.256348,1.76849,
-0.259399,1.77002,
-0.259399,1.77765,
-0.256348,1.77765,
-0.256348,1.7746,
-0.256348,1.77307,
-0.254822,1.77002,
-0.257874,1.77612,
-0.265503,1.77917,
-0.268555,1.77612,
-0.271606,1.77612,
-0.283813,1.77612,
-0.289917,1.77002,
-0.294495,1.77765,
-0.299072,1.77612,
-0.306702,1.77307,
-0.314331,1.77002,
-0.325012,1.77765,
-0.334167,1.77917,
-0.346375,1.77765,
-0.360107,1.77002,
-0.376892,1.77307,
-0.389099,1.77002,
-0.401306,1.7746,
-0.416565,1.7746,
-0.431824,1.77155,
-0.450134,1.77002,
-0.468445,1.77307,
-0.489807,1.77765,
-0.50354,1.77765,
-0.521851,1.76849,
-0.537109,1.77612,
-0.553894,1.78375,
-0.575256,1.77612,
-0.595093,1.77307,
-0.610352,1.77002,
-0.627136,1.77155,
-0.642395,1.77612,
-0.660706,1.77765,
-0.674438,1.77307,
-0.691223,1.77307,
-0.704956,1.77612,
-0.717163,1.77612,
-0.732422,1.77612,
-0.744629,1.77307,
-0.761414,1.77155,
-0.775146,1.76849,
-0.785828,1.77765,
-0.799561,1.7807,
-0.810242,1.77307,
-0.822449,1.76849,
-0.839233,1.77002,
-0.848389,1.77307,
-0.862122,1.77765,
-0.874329,1.77307,
-0.891113,1.77155,
-0.90332,1.77002,
-0.921631,1.77307,
-0.93689,1.77612,
-0.953674,1.77612,
-0.971985,1.76849,
-0.987244,1.77002,
-1.00555,1.77307,
-1.02081,1.77765,
-1.04218,1.77307,
-1.05743,1.76544,
-1.07574,1.77155,
-1.091,1.76697,
-1.10626,1.7746,
-1.12152,1.77002,
-1.13831,1.76697,
-1.15356,1.77002,
-1.17035,1.77155,
-1.18103,1.7746,
-1.19629,1.76849,
-1.21002,1.76849,
-1.22681,1.77002,
-1.23596,1.77002,
-1.24664,1.77612,
-1.2619,1.77155,
-1.27106,1.76697,
-1.28326,1.77002,
-1.297,1.76849,
-1.31226,1.77612,
-1.32294,1.77307,
-1.33362,1.76697,
-1.34277,1.76697,
-1.34277,1.76849,
-1.3443,1.77307,
-1.33972,1.77155,
-1.33057,1.76544,
-1.31683,1.76849,
-1.297,1.77002,
-1.26801,1.77307,
-1.24054,1.77002,
-1.20087,1.76544,
-1.16577,1.76544,
-1.12305,1.77155,
-1.08185,1.77155,
-1.03302,1.77002,
-0.982666,1.76697,
-0.935364,1.76697,
-0.88501,1.77307,
-0.837708,1.77307,
-0.784302,1.77002,
-0.744629,1.76544,
-0.698853,1.76544,
-0.653076,1.76544,
-0.613403,1.77155,
-0.57373,1.76849,
-0.531006,1.77002,
-0.497437,1.76544,
-0.466919,1.76849,
-0.439453,1.7746,
-0.410461,1.77155,
-0.389099,1.76392,
-0.366211,1.78375,
-0.35553,1.76697,
-0.334167,1.77307,
-0.325012,1.77307,
-0.314331,1.76392,
-0.300598,1.76849,
-0.294495,1.76849,
-0.286865,1.77002,
-0.283813,1.76697,
-0.279236,1.76544,
-0.274658,1.76392,
-0.271606,1.76697,
-0.271606,1.77155,
-0.268555,1.76849,
-0.265503,1.76239,
-0.263977,1.76392,
-0.265503,1.77002,
-0.268555,1.77307,
-0.270081,1.76544,
-0.274658,1.76544,
-0.283813,1.76697,
-0.286865,1.77002,
-0.291443,1.77002,
-0.296021,1.76697,
-0.30365,1.76544,
-0.312805,1.76544,
-0.320435,1.76544,
-0.334167,1.77002,
-0.343323,1.76697,
-0.357056,1.76239,
-0.369263,1.76544,
-0.382996,1.76086,
-0.393677,1.77155,
-0.40741,1.76544,
-0.421143,1.75781,
-0.430298,1.76239,
-0.445557,1.76239,
-0.465393,1.76239,
-0.479126,1.76239,
-0.492859,1.76239,
-0.508118,1.76544,
-0.518799,1.76392,
-0.531006,1.76697,
-0.540161,1.76239,
-0.546265,1.76239,
-0.558472,1.76086,
-0.563049,1.76544,
-0.570679,1.76697,
-0.578308,1.76544,
-0.587463,1.76086,
-0.590515,1.75781,
-0.596619,1.76697,
-0.598145,1.76544,
-0.604248,1.76392,
-0.608826,1.76086,
-0.616455,1.75781,
-0.617981,1.76849,
-0.624084,1.76697,
-0.627136,1.76697,
-0.628662,1.76392,
-0.636292,1.75781,
-0.640869,1.76392,
-0.645447,1.76849,
-0.650024,1.76239,
-0.648499,1.76086,
-0.653076,1.76239,
-0.65918,1.76239,
-0.662231,1.76392,
-0.663757,1.76239,
-0.668335,1.75629,
-0.674438,1.75781,
-0.67749,1.76239,
-0.680542,1.76239,
-0.68512,1.76239,
-0.686646,1.75629,
-0.695801,1.76239,
-0.70343,1.76239,
-0.708008,1.76697,
-0.715637,1.76392,
-0.721741,1.75781,
-0.724792,1.75323,
-0.737,1.76239,
-0.746155,1.76239,
-0.758362,1.76392,
-0.772095,1.75781,
-0.787354,1.75781,
-0.798035,1.76239,
-0.811768,1.76239,
-0.822449,1.75629,
-0.837708,1.76086,
-0.846863,1.75629,
-0.862122,1.76086,
-0.880432,1.76239,
-0.895691,1.76086,
-0.91095,1.76086,
-0.924683,1.76086,
-0.946045,1.75781,
-0.965881,1.76086,
-0.982666,1.76239,
-0.994873,1.75476,
-1.01624,1.75476,
-1.03455,1.76086,
-1.0498,1.76544,
-1.06964,1.75629,
-1.08795,1.76849,
-1.10779,1.76086,
-1.1261,1.75781,
-1.14288,1.75629,
-1.15662,1.75781,
-1.1734,1.74713,
-1.18713,1.75629,
-1.20544,1.76086,
-1.2207,1.75781,
-1.23749,1.76392,
-1.25122,1.75629,
-1.26953,1.75323,
-1.28174,1.75629,
-1.29242,1.76086,
-1.30615,1.75781,
-1.32446,1.74866,
-1.3443,1.75171,
-1.36261,1.76239,
-1.37939,1.76239,
-1.40076,1.75171,
-1.41602,1.75171,
-1.42975,1.75171,
-1.44653,1.74561,
-1.46332,1.75629,
-1.4801,1.75781,
-1.49994,1.75629,
-1.51672,1.75018,
-1.52893,1.75629,
-1.54266,1.75781,
-1.5625,1.75781,
-1.57928,1.75171,
-1.5976,1.75018,
-1.61896,1.75629,
-1.63269,1.75629,
-1.64185,1.76392,
-1.66321,1.74866,
-1.68304,1.75323,
-1.70441,1.75781,
-1.71814,1.75171,
-1.73187,1.76239,
-1.74561,1.75171,
-1.75934,1.74713,
-1.76849,1.75476,
-1.77307,1.75476,
-1.7746,1.75476,
-1.77307,1.75476,
-1.76697,1.74866,
-1.75629,1.76697,
-1.74103,1.75781,
-1.72272,1.75323,
-1.6983,1.74866,
-1.67084,1.74866,
-1.63727,1.75323,
-1.60217,1.75171,
-1.56555,1.75171,
-1.52435,1.74866,
-1.48315,1.75018,
-1.43738,1.75171,
-1.39008,1.75476,
-1.34277,1.75171,
-1.29547,1.75018,
-1.24817,1.74713,
-1.2085,1.75476,
-1.16425,1.75476,
-1.12152,1.75476,
-1.08643,1.74866,
-1.05133,1.74866,
-1.01929,1.75629,
-0.996399,1.75171,
-0.976563,1.75018,
-0.9552,1.75018,
-0.93689,1.75171,
-0.921631,1.75629,
-0.909424,1.75476,
-0.901794,1.76086,
-0.891113,1.74561,
-0.88501,1.74713,
-0.880432,1.75171,
-0.875854,1.75629,
-0.868225,1.75323,
-0.871277,1.75018,
-0.868225,1.74866,
-0.866699,1.75323,
-0.871277,1.75629,
-0.874329,1.75323,
-0.874329,1.75018,
-0.878906,1.74713,
-0.883484,1.75171,
-0.88501,1.75171,
-0.889587,1.75018,
-0.891113,1.74866,
-0.895691,1.74713,
-0.904846,1.74866,
-0.914001,1.75323,
-0.917053,1.75171,
-0.926208,1.74713,
-0.932312,1.74866,
-0.941467,1.75171,
-0.946045,1.75476,
-0.959778,1.75018,
-0.971985,1.74408,
-0.98114,1.74866,
-0.993347,1.75171,
-1.00708,1.74866,
-1.01624,1.75476,
-1.0376,1.74561,
-1.0498,1.74866,
-1.05896,1.75018,
-1.07269,1.75171,
-1.0849,1.75476,
-1.09253,1.74561,
-1.09863,1.74561,
-1.10931,1.74866,
-1.11847,1.74713,
-1.12762,1.75018,
-1.13678,1.74408,
-1.14288,1.75018,
-1.14441,1.74713,
-1.15051,1.74866,
-1.16119,1.74713,
-1.16425,1.74561,
-1.17493,1.74713,
-1.18408,1.74713,
-1.18561,1.74866,
-1.19019,1.75018,
-1.19324,1.74713,
-1.20087,1.74713,
-1.20544,1.74561,
-1.20697,1.75018,
-1.20697,1.74866,
-1.21307,1.74255,
-1.2146,1.74561,
-1.21765,1.74255,
-1.22528,1.74866,
-1.23291,1.75018,
-1.24054,1.74255,
-1.24817,1.74561,
-1.25275,1.74561,
-1.25885,1.75018,
-1.26801,1.75018,
-1.28021,1.74408,
-1.28326,1.74103,
-1.29547,1.74713,
-1.30157,1.74866,
-1.31378,1.74866,
-1.32141,1.74103,
-1.33209,1.74103,
-1.3443,1.74408,
-1.35345,1.74561,
-1.36108,1.74408,
-1.37177,1.74103,
-1.37329,1.74713,
-1.37787,1.74561,
-1.38855,1.75171,
-1.39465,1.74561,
-1.41449,1.74866,
-1.4267,1.74408,
-1.44806,1.74255,
-1.46027,1.75171,
-1.474,1.74561,
-1.49078,1.7395,
-1.50757,1.74255,
-1.52283,1.74255,
-1.53961,1.75018,
-1.55487,1.74255,
-1.57013,1.73798,
-1.58386,1.74103,
-1.59912,1.74561,
-1.61743,1.74713,
-1.63116,1.74103,
-1.64642,1.74255,
-1.66168,1.74408,
-1.67847,1.74255,
-1.69373,1.74713,
-1.70898,1.74713,
-1.72729,1.74255,
-1.74255,1.7395,
-1.75934,1.74408,
-1.77765,1.74866,
-1.79443,1.74713,
-1.81122,1.74255,
-1.82953,1.74255,
-1.84479,1.74561,
-1.86768,1.74561,
-1.88293,1.74408,
-1.9043,1.74408,
-1.92871,1.7395,
-1.9455,1.74103,
-1.96381,1.74713,
-1.98059,1.74408,
-2.00043,1.74408,
-2.01569,1.73798,
-2.034,1.73798,
-2.05078,1.74713,
-2.06451,1.74408,
-2.0813,1.7395,
-2.09656,1.73798,
-2.11487,1.7395,
-2.1347,1.74561,
-2.14844,1.74408,
-2.16827,1.73798,
-2.18811,1.74255,
-2.20337,1.74103,
-2.21863,1.7395,
-2.23389,1.74561,
-2.2522,1.74103,
-2.26746,1.73645,
-2.27966,1.7395,
-2.28882,1.74103,
-2.2995,1.74408,
-2.31476,1.7395,
-2.32239,1.73798,
-2.32849,1.7395,
-2.33307,1.74103,
-2.3407,1.74103,
-2.34222,1.73798,
-2.33917,1.73798,
-2.32849,1.74103,
-2.31171,1.74408,
-2.29645,1.74103,
-2.26746,1.7395,
-2.24304,1.74103,
-2.211,1.7395,
-2.17743,1.74561,
-2.1347,1.74255,
-2.09503,1.74255,
-2.05231,1.7395,
-2.00806,1.74255,
-1.96533,1.74561,
-1.92413,1.74408,
-1.88141,1.73798,
-1.83716,1.73798,
-1.79749,1.74103,
-1.75781,1.74713,
-1.71814,1.74255,
-1.68762,1.73645,
-1.6571,1.7395,
-1.62659,1.73492,
-1.60065,1.7395,
-1.57471,1.73798,
-1.55182,1.7334,
-1.53503,1.73492,
-1.51672,1.7395,
-1.49994,1.74103,
-1.48468,1.74408,
-1.47095,1.73645,
-1.45874,1.73187,
-1.44348,1.7395,
-1.4389,1.74255,
-1.42975,1.74255,
-1.42517,1.73492,
-1.42212,1.7334,
-1.42517,1.7395,
-1.42822,1.74103,
-1.42975,1.73798,
-1.43433,1.73798,
-1.43433,1.73492,
-1.44348,1.73187,
-1.45111,1.73645,
-1.45569,1.7395,
-1.46179,1.73645,
-1.46942,1.7334,
-1.4801,1.73645,
-1.49231,1.74255,
-1.49689,1.7395,
-1.50604,1.73645,
-1.51672,1.7334,
-1.52893,1.73645,
-1.53809,1.7395,
-1.55334,1.7395,
-1.5686,1.7334,
-1.58691,1.73492,
-1.6037,1.73492,
-1.62354,1.73187,
-1.64032,1.73645,
-1.66626,1.73492,
-1.68915,1.73187,
-1.71204,1.73492,
-1.74103,1.73645,
-1.76544,1.74103,
-1.78986,1.7334,
-1.80969,1.73035,
-1.83716,1.73492,
-1.85852,1.7395,
-1.87683,1.73798,
-1.9043,1.7334,
-1.92871,1.7334,
-1.95313,1.73645,
-1.98059,1.73798,
-2.00958,1.73645,
-2.034,1.73492,
-2.05536,1.7334,
-2.0752,1.73035,
-2.09045,1.73798,
-2.11182,1.73645,
-2.1225,1.73798,
-2.13623,1.73187,
-2.14539,1.72882,
-2.15607,1.73798,
-2.16217,1.7395,
-2.17285,1.73187,
-2.18048,1.72882,
-2.18811,1.73187,
-2.19421,1.73492,
-2.19879,1.73492,
-2.20337,1.73187,
-2.211,1.73187,
-2.21558,1.73187,
-2.22015,1.7334,
-2.22321,1.7395,
-2.23236,1.7334,
-2.23694,1.72882,
-2.23999,1.73187,
-2.24152,1.73645,
-2.23999,1.73798,
-2.24152,1.73187,
-2.24915,1.72424,
-2.24915,1.73492,
-2.25067,1.73187,
-2.25372,1.73492,
-2.25067,1.72424,
-2.25983,1.72882,
-2.2583,1.73492,
-2.25983,1.73492,
-2.26135,1.73492,
-2.2644,1.7334,
-2.26746,1.72882,
-2.27661,1.7395,
-2.27814,1.73492,
-2.28424,1.73645,
-2.29187,1.7334,
-2.29645,1.73035,
-2.30713,1.72882,
-2.31476,1.73645,
-2.32239,1.72882,
-2.33612,1.72882,
-2.34833,1.72119,
-2.35291,1.73187,
-2.36664,1.7334,
-2.37732,1.7334,
-2.38647,1.73035,
-2.40021,1.72729,
-2.40936,1.72729,
-2.4231,1.71967,
-2.43225,1.73187,
-2.44293,1.73035,
-2.45209,1.72272,
-2.45972,1.73035,
-2.47498,1.73035,
-2.48566,1.73798,
-2.49786,1.73035,
-2.51465,1.72119,
-2.52838,1.72729,
-2.53906,1.7334,
-2.5528,1.73187,
-2.5589,1.73035,
-2.57111,1.72119,
-2.58026,1.73035,
-2.59094,1.73187,
-2.6001,1.73035,
-2.60773,1.72882,
-2.62604,1.72882,
-2.63367,1.72729,
-2.64893,1.73492,
-2.65198,1.73187,
-2.66418,1.73035,
-2.67639,1.72882,
-2.6886,1.72424,
-2.69928,1.7334,
-2.70996,1.7334,
-2.72217,1.72424,
-2.73438,1.72882,
-2.742,1.73035,
-2.75421,1.72272,
-2.76184,1.72729,
-2.7771,1.72424,
-2.78778,1.72272,
-2.80304,1.72882,
-2.82135,1.72882,
-2.83661,1.7334,
-2.84729,1.73035,
-2.86255,1.72272,
-2.8717,1.72882,
-2.88086,1.73035,
-2.89307,1.73798,
-2.90527,1.72882,
-2.91901,1.71967,
-2.93274,1.72119,
-2.948,1.73035,
-2.9541,1.72272,
-2.96478,1.72729,
-2.97089,1.72424,
-2.97546,1.72729,
-2.97852,1.73187,
-2.97546,1.73035,
-2.96783,1.72729,
-2.95563,1.71661,
-2.94037,1.72119,
-2.9129,1.72882,
-2.89001,1.72882,
-2.8656,1.72882,
-2.83051,1.72119,
-2.79846,1.72424,
-2.76489,1.73187,
-2.7298,1.73187,
-2.69623,1.72272,
-2.66113,1.72119,
-2.62146,1.72119,
-2.58636,1.72424,
-2.5528,1.73035,
-2.5177,1.72424,
-2.49176,1.72272,
-2.46124,1.72272,
-2.43378,1.72729,
-2.41394,1.73035,
-2.3941,1.72729,
-2.37732,1.71814,
-2.36206,1.72729,
-2.35596,1.73035,
-2.34528,1.72424,
-2.34222,1.72882,
-2.33154,1.72119,
-2.33002,1.72729,
-2.32391,1.73187,
-2.32239,1.72729,
-2.32239,1.72882,
-2.32391,1.71967,
-2.32697,1.72424,
-2.33154,1.72882,
-2.33612,1.72882,
-2.34528,1.72882,
-2.35443,1.72119,
-2.36511,1.71814,
-2.37579,1.73035,
-2.38647,1.72729,
-2.39868,1.72272,
-2.40936,1.72272,
-2.4231,1.72729,
-2.43988,1.73187,
-2.45514,1.73035,
-2.46582,1.72272,
-2.47803,1.72119,
-2.48871,1.72272,
-2.50397,1.72882,
-2.51617,1.72729,
-2.52991,1.72424,
-2.54059,1.71967,
-2.55432,1.72729,
-2.56958,1.72882,
-2.57721,1.73035,
-2.59552,1.72424,
-2.60773,1.71814,
-2.62451,1.72272,
-2.63977,1.72882,
-2.65808,1.73035,
-2.67181,1.72119,
-2.6886,1.72119,
-2.70233,1.72424,
-2.71454,1.73187,
-2.7298,1.72729,
-2.742,1.72882,
-2.75726,1.72119,
-2.76489,1.72272,
-2.78168,1.72882,
-2.79388,1.72882,
-2.80609,1.72119,
-2.82135,1.71967,
-2.83051,1.71967,
-2.83966,1.73035,
-2.84729,1.72882,
-2.85187,1.71356,
-2.86407,1.72272,
-2.86865,1.72729,
-2.86713,1.73187,
-2.86865,1.72424,
-2.86713,1.72729,
-2.8717,1.72424,
-2.87476,1.72424,
-2.87476,1.72424,
-2.87476,1.73187,
-2.87781,1.72882,
-2.87933,1.72424,
-2.88239,1.72729,
-2.88544,1.72729,
-2.89154,1.72729,
-2.89307,1.72424,
-2.89459,1.72119,
-2.89459,1.72424,
-2.89612,1.72729,
-2.89917,1.73187,
-2.9007,1.72424,
-2.89917,1.72272,
-2.90833,1.72272,
-2.91595,1.73035,
-2.92816,1.72424,
-2.93579,1.72424,
-2.95105,1.72272,
-2.96173,1.73187,
-2.96936,1.73035,
-2.97852,1.72729,
-2.9892,1.72729,
-3.00598,1.72272,
-3.01208,1.71814,
-3.02124,1.7334,
-3.02887,1.72729,
-3.03955,1.72424,
-3.05176,1.72272,
-3.05786,1.72729,
-3.07007,1.7334,
-3.07922,1.73035,
-3.08685,1.72119,
-3.09296,1.72424,
-3.10211,1.72729,
-3.10822,1.72272,
-3.11584,1.73035,
-3.12195,1.72424,
-3.13416,1.72882,
-3.13873,1.72424,
-3.14941,1.72729,
-3.15704,1.7334,
-3.16925,1.72424,
-3.17688,1.72119,
-3.19061,1.72729,
-3.20892,1.73187,
-3.22571,1.73035,
-3.24402,1.72424,
-3.2608,1.72424,
-3.27606,1.73187,
-3.29132,1.72882,
-3.30658,1.73035,
-3.32336,1.72729,
-3.3432,1.72119,
-3.35999,1.72729,
-3.37677,1.73187,
-3.39203,1.7334,
-3.40881,1.73035,
-3.41797,1.72272,
-3.43323,1.72729,
-3.44543,1.72882,
-3.45459,1.73035,
-3.4668,1.72119,
-3.47748,1.72119,
-3.48206,1.73035,
-3.48816,1.73187,
-3.49579,1.7334,
-3.50189,1.73035,
-3.51257,1.73035,
-3.51868,1.72882,
-3.52631,1.72119,
-3.53699,1.7334,
-3.54767,1.72424,
-3.55377,1.72729,
-3.56445,1.72729,
-3.57056,1.73035,
-3.58124,1.73645,
-3.59192,1.72882,
-3.59344,1.72424,
-3.6026,1.73035,
-3.61328,1.73187,
-3.62091,1.73187,
-3.62854,1.72729,
-3.64227,1.72882,
-3.64838,1.73187,
-3.65601,1.7334,
-3.66211,1.73492,
-3.67279,1.73187,
-3.685,1.72882,
-3.68805,1.72882,
-3.69568,1.73187,
-3.69873,1.7334,
-3.70026,1.73035,
-3.70026,1.72882,
-3.68958,1.73492,
-3.67584,1.73798,
-3.65906,1.73492,
-3.63922,1.72882,
-3.61176,1.72882,
-3.57513,1.73035,
-3.54004,1.73035,
-3.50189,1.7334,
-3.45612,1.7334,
-3.41339,1.73492,
-3.35846,1.73035,
-3.30963,1.73492,
-3.25928,1.7395,
-3.2074,1.7334,
-3.1601,1.72882,
-3.11279,1.7334,
-3.06854,1.73492,
-3.0304,1.73798,
-2.99072,1.73035,
-2.95563,1.73187,
-2.92358,1.73645,
-2.89154,1.73492,
-2.8656,1.73798,
-2.84424,1.73035,
-2.82593,1.7334,
-2.80762,1.7334,
-2.79388,1.73798,
-2.78625,1.74103,
-2.78168,1.73492,
-2.77405,1.73492,
-2.771,1.73492,
-2.76794,1.73798,
-2.76947,1.74103,
-2.771,1.73187,
-2.77863,1.7334,
-2.78778,1.73187,
-2.79541,1.73645,
-2.80304,1.74103,
-2.81372,1.72729,
-2.82288,1.73645,
-2.83356,1.73187,
-2.84271,1.73492,
-2.85034,1.74103,
-2.86407,1.72119,
-2.8717,1.7395,
-2.89001,1.73492,
-2.89459,1.73798,
-2.90375,1.74103,
-2.91138,1.73187,
-2.92511,1.73187,
-2.93427,1.7334,
-2.94189,1.7395,
-2.948,1.74561,
-2.96021,1.73187,
-2.97089,1.73492,
-2.97394,1.73798,
-2.98462,1.7395,
-2.9892,1.74103,
-2.99377,1.73492,
-2.99835,1.73187,
-2.99835,1.7334,
-3.0014,1.73798,
-3.00293,1.74408,
-3.00446,1.7395,
-3.00446,1.7334,
-2.99988,1.74866,
-3.00293,1.74255,
-2.99988,1.74408,
-3.0014,1.73492,
-2.99835,1.73645,
-2.99835,1.73645,
-2.99835,1.74103,
-2.99988,1.74103,
-2.99683,1.73492,
-2.9953,1.73645,
-2.99377,1.73798,
-2.98767,1.74103,
-2.98309,1.74103,
-2.98615,1.73798,
-2.98309,1.73798,
-2.98157,1.73187,
-2.98004,1.75781,
-2.97852,1.74561,
-2.98004,1.73798,
-2.98309,1.73187,
-2.98157,1.73645,
-2.98309,1.73645,
-2.98309,1.74561,
-2.98615,1.74713,
-2.98462,1.72882,
-2.98767,1.7395,
-2.98767,1.74103,
-2.99377,1.73798,
-2.99377,1.74103,
-2.9892,1.73798,
-2.99377,1.73492,
-2.99683,1.75476,
-2.99835,1.74255,
-3.00446,1.74408,
-3.01056,1.73492,
-3.00903,1.73645,
-3.01208,1.74561,
-3.01514,1.74408,
-3.01514,1.73798,
-3.01819,1.7395,
-3.02124,1.74103,
-3.02734,1.74103,
-3.03192,1.74408,
-3.03497,1.74103,
-3.04565,1.74103,
-3.05328,1.7395,
-3.05634,1.73798,
-3.06702,1.74408,
-3.07312,1.7395,
-3.0777,1.73492,
-3.08533,1.74103,
-3.09296,1.74103,
-3.10669,1.75781,
-3.11584,1.73798,
-3.125,1.73492,
-3.13568,1.74103,
-3.14484,1.74103,
-3.1601,1.7395,
-3.16772,1.74103,
-3.17841,1.74103,
-3.18909,1.7395,
-3.20129,1.74255,
-3.20892,1.74255,
-3.22113,1.74408,
-3.23639,1.74103,
-3.25012,1.73645,
-3.26233,1.74408,
-3.27759,1.7395,
-3.28827,1.74255,
-3.30353,1.7395,
-3.31268,1.74255,
-3.32489,1.74408,
-3.33862,1.74255,
-3.34473,1.74103,
-3.35693,1.74103,
-3.36304,1.74408,
-3.37372,1.7395,
-3.3844,1.74255,
-3.3905,1.74561,
-3.39508,1.7395,
-3.40881,1.74255,
-3.41949,1.74255,
-3.4256,1.74561,
-3.4317,1.74408,
-3.43933,1.73645,
-3.44696,1.74103,
-3.45459,1.74408,
-3.46375,1.74103,
-3.46832,1.74255,
-3.47595,1.74103,
-3.48511,1.74408,
-3.48511,1.74408,
-3.48511,1.74103,
-3.48969,1.74255,
-3.49274,1.7395,
-3.49884,1.74255,
-3.50037,1.74408,
-3.50037,1.74561,
-3.50952,1.74561,
-3.5141,1.7395,
-3.52631,1.74255,
-3.53394,1.74561,
-3.54004,1.73492,
-3.54462,1.74408,
-3.55072,1.73798,
-3.5553,1.74561,
-3.5553,1.74561,
-3.55682,1.74255,
-3.55377,1.74255,
-3.55072,1.7334,
-3.53546,1.74103,
-3.52783,1.74255,
-3.51257,1.74561,
-3.49121,1.74561,
-3.46527,1.73798,
-3.43628,1.7395,
-3.40576,1.74561,
-3.37524,1.74713,
-3.34625,1.74408,
-3.31268,1.73645,
-3.27606,1.74408,
-3.23792,1.74561,
-3.20435,1.74408,
-3.17383,1.74408,
-3.14484,1.73798,
-3.11737,1.74561,
-3.0899,1.74408,
-3.06854,1.74561,
-3.04413,1.74713,
-3.02124,1.73798,
-3.00446,1.74103,
-2.98767,1.74561,
-2.97546,1.74561,
-2.96326,1.74713,
-2.95563,1.7395,
-2.95258,1.74408,
-2.948,1.74561,
-2.94495,1.74561,
-2.94647,1.7395,
-2.95105,1.7395,
-2.9541,1.74408,
-2.96478,1.74255,
-2.97394,1.74408,
-2.98462,1.74408,
-3.0014,1.74255,
-3.01056,1.74103,
-3.02429,1.74408,
-3.03802,1.74713,
-3.05023,1.74561,
-3.06396,1.7395,
-3.07312,1.74255,
-3.08075,1.74255,
-3.0899,1.74713,
-3.10059,1.74408,
-3.11127,1.74255,
-3.11279,1.74255,
-3.12195,1.74408,
-3.1311,1.74713,
-3.14484,1.74561,
-3.15399,1.7395,
-3.1662,1.74408,
-3.17535,1.74713,
-3.18146,1.74713,
-3.19672,1.74713,
-3.20435,1.74408,
-3.20892,1.7395,
-3.2135,1.74561,
-3.22418,1.74103,
-3.22876,1.74408,
-3.23792,1.74408,
-3.24707,1.74408,
-3.25165,1.74866,
-3.2608,1.74561,
-3.27148,1.74103,
-3.27759,1.7395,
-3.28217,1.74103,
-3.28674,1.74255,
-3.28674,1.74713,
-3.28827,1.74561,
-3.27911,1.74103,
-3.27911,1.74103,
-3.27454,1.74255,
-3.27148,1.74713,
-3.26843,1.74561,
-3.25928,1.73492,
-3.25623,1.74103,
-3.24249,1.74408,
-3.24097,1.74408,
-3.22723,1.74713,
-3.2196,1.73798,
-3.21045,1.74408,
-3.20282,1.74561,
-3.19366,1.74713,
-3.18756,1.75781,
-3.17993,1.73798,
-3.17688,1.74408,
-3.17078,1.74561,
-3.1662,1.74713,
-3.16162,1.74561,
-3.16467,1.74255,
-3.1601,1.74255,
-3.16467,1.73645,
-3.16162,1.74408,
-3.16162,1.74561,
-3.16467,1.73645,
-3.16467,1.7395,
-3.16925,1.74561,
-3.17535,1.74713,
-3.17993,1.74408,
-3.18451,1.74103,
-3.19214,1.73798,
-3.19061,1.74103,
-3.19977,1.74408,
-3.20587,1.74561,
-3.21503,1.7395,
-3.22113,1.73187,
-3.23334,1.74561,
-3.23944,1.74713,
-3.25012,1.74561,
-3.25928,1.73798,
-3.27301,1.73798,
-3.27911,1.73798,
-3.2959,1.74408,
-3.30505,1.74561,
-3.31573,1.73798,
-3.32489,1.73798,
-3.33405,1.74408,
-3.3432,1.74255,
-3.3493,1.74255,
-3.35541,1.73645,
-3.36456,1.7395,
-3.37372,1.74255,
-3.37982,1.74561,
-3.38745,1.74713,
-3.39355,1.7395,
-3.40271,1.74103,
-3.41187,1.74561,
-3.41797,1.74561,
-3.42865,1.74408,
-3.44543,1.74103,
-3.45306,1.74255,
-3.4668,1.74255,
-3.47748,1.74255,
-3.48969,1.74255,
-3.50189,1.74255,
-3.51715,1.7395,
-3.52936,1.7395,
-3.54004,1.74561,
-3.55377,1.74255,
-3.56598,1.73798,
-3.57819,1.73492,
-3.58887,1.74103,
-3.59955,1.75018,
-3.60718,1.74255,
-3.61481,1.73645,
-3.61938,1.73798,
-3.62549,1.74408,
-3.63312,1.75323,
-3.64075,1.74255,
-3.6438,1.74255,
-3.6499,1.74103,
-3.65753,1.7395,
-3.65906,1.74408,
-3.65753,1.74408,
-3.65753,1.74103,
-3.65906,1.73645,
-3.65601,1.74103,
-3.65448,1.74255,
-3.6499,1.74103,
-3.64227,1.74255,
-3.63312,1.73798,
-3.63007,1.74561,
-3.61938,1.74408,
-3.60413,1.7395,
-3.58582,1.73798,
-3.5614,1.73645,
-3.54309,1.74408,
-3.51563,1.74408,
-3.48511,1.74255,
-3.44696,1.74103,
-3.40881,1.7334,
-3.36761,1.74255,
-3.32642,1.74713,
-3.28369,1.7395,
-3.23792,1.73187,
-3.19366,1.73798,
-3.14941,1.75018,
-3.10516,1.75018,
-3.06702,1.74255,
-3.0304,1.73492,
-2.99377,1.73798,
-2.96021,1.74255,
-2.92053,1.74408,
-2.88239,1.74255,
-2.85645,1.73645,
-2.82745,1.7395,
-2.80304,1.7395,
-2.77863,1.74561,
-2.76184,1.74255,
-2.74353,1.73798,
-2.72827,1.73645,
-2.71301,1.74255,
-2.70386,1.74255,
-2.69623,1.7395,
-2.69012,1.73492,
-2.68555,1.73645,
-2.68402,1.73492,
-2.67639,1.74408,
-2.67487,1.73798,
-2.67792,1.73645,
-2.68097,1.73798,
-2.68707,1.73798,
-2.69318,1.74255,
-2.69623,1.74103,
-2.70081,1.73798,
-2.70386,1.73645,
-2.70996,1.7395,
-2.71759,1.73645,
-2.72064,1.74103,
-2.72522,1.73798,
-2.72675,1.7334,
-2.73438,1.7395,
-2.73743,1.74408,
-2.74506,1.74103,
-2.75421,1.75323,
-2.75726,1.74103,
-2.76337,1.7395,
-2.771,1.74103,
-2.7771,1.74408,
-2.7771,1.73492,
-2.78168,1.7395,
-2.79083,1.7395,
-2.79694,1.74408,
-2.80457,1.7395,
-2.80914,1.73187,
-2.81372,1.73187,
-2.82288,1.73798,
-2.82745,1.74866,
-2.83508,1.73798,
-2.83356,1.73645,
-2.83508,1.73645,
-2.83508,1.74255,
-2.84119,1.74408,
-2.83813,1.73645,
-2.84424,1.73798,
-2.84424,1.7334,
-2.84729,1.73645,
-2.84576,1.74408,
-2.84729,1.73798,
-2.84729,1.73492,
-2.85034,1.73645,
-2.85492,1.73645,
-2.85492,1.74255,
-2.85187,1.7395,
-2.8595,1.73187,
-2.85187,1.73492,
-2.84882,1.7395,
-2.84729,1.74866,
-2.84729,1.7395,
-2.84271,1.73492,
-2.83813,1.74103,
-2.83508,1.73798,
-2.83508,1.74103,
-2.83051,1.73798,
-2.83203,1.73492,
-2.83661,1.73645,
-2.83203,1.73645,
-2.82745,1.74408,
-2.82593,1.74103,
-2.83203,1.73187,
-2.82898,1.73798,
-2.82898,1.73645,
-2.82745,1.74408,
-2.83356,1.73645,
-2.83508,1.73187,
-2.84119,1.73798,
-2.84729,1.7395,
-2.85187,1.74103,
-2.8595,1.73798,
-2.8656,1.73492,
-2.87476,1.73492,
-2.88239,1.73492,
-2.89154,1.7395,
-2.90222,1.72424,
-2.91138,1.73187,
-2.91748,1.73187,
-2.92358,1.73492,
-2.93732,1.74103,
-2.94037,1.73645,
-2.94495,1.72882,
-2.95105,1.72729,
-2.95868,1.72882,
-2.96478,1.74408,
-2.97241,1.73645,
-2.97546,1.73187,
-2.98157,1.7334,
-2.98615,1.73492,
-2.99683,1.73798,
-3.0014,1.73492,
-3.0014,1.72882,
-3.01208,1.73035,
-3.01819,1.7334,
-3.02429,1.7395,
-3.02887,1.73798,
-3.03345,1.73035,
-3.03955,1.73035,
-3.04871,1.7334,
-3.05939,1.74255,
-3.06854,1.73035,
-3.07922,1.72882,
-3.09296,1.73645,
-3.09906,1.7334,
-3.10822,1.73645,
-3.12042,1.7334,
-3.125,1.72882,
-3.13873,1.7334,
-3.14331,1.7334,
-3.15552,1.73798,
-3.1662,1.73798,
-3.17688,1.73035,
-3.19214,1.73035,
-3.20435,1.73035,
-3.21503,1.74103,
-3.22571,1.73187,
-3.23792,1.72882,
-3.24097,1.73035,
-3.2486,1.73187,
-3.25775,1.73492,
-3.26996,1.72882,
-3.27606,1.72882,
-3.28979,1.73187,
-3.29437,1.7334,
-3.302,1.73187,
-3.31116,1.7334,
-3.31726,1.72882,
-3.32642,1.72882,
-3.33862,1.73187,
-3.34625,1.73492,
-3.35846,1.73187,
-3.36304,1.72882,
-3.37067,1.72729,
-3.37372,1.7334,
-3.37524,1.73645,
-3.37677,1.73035,
-3.38287,1.72729,
-3.3844,1.73035,
-3.37982,1.7334,
-3.37372,1.73492,
-3.36609,1.72729,
-3.35083,1.73035,
-3.34015,1.72882,
-3.31879,1.72729,
-3.29132,1.7334,
-3.26233,1.73492,
-3.23334,1.72729,
-3.20435,1.71356,
-3.16772,1.72882,
-3.13721,1.73187,
-3.09601,1.73187,
-3.05481,1.72424,
-3.01971,1.72729,
-2.98004,1.73187,
-2.94189,1.72729,
-2.90375,1.7334,
-2.86865,1.72729,
-2.83813,1.72729,
-2.80457,1.73035,
-2.771,1.7334,
-2.74353,1.73187,
-2.72064,1.72729,
-2.69775,1.72424,
-2.67639,1.72729,
-2.66113,1.72729,
-2.64282,1.73035,
-2.62909,1.72272,
-2.62299,1.72272,
-2.60925,1.72882,
-2.60162,1.73035,
-2.59705,1.72729,
-2.59247,1.72729,
-2.59247,1.72424,
-2.58942,1.72882,
-2.58942,1.72729,
-2.59247,1.72882,
-2.59399,1.72729,
-2.59247,1.72119,
-2.59857,1.72272,
-2.60468,1.73035,
-2.61078,1.73035,
-2.61841,1.72119,
-2.62604,1.72119,
-2.63214,1.72272,
-2.63824,1.7334,
-2.64587,1.72272,
-2.64893,1.71814,
-2.65808,1.72119,
-2.66418,1.72882,
-2.67181,1.72272,
-2.67487,1.72424,
-2.68097,1.72119,
-2.69012,1.72424,
-2.69623,1.72729,
-2.70081,1.73035,
-2.70538,1.72272,
-2.70996,1.72272,
-2.71759,1.72119,
-2.72675,1.72272,
-2.73438,1.72424,
-2.73895,1.72424,
-2.74658,1.71967,
-2.75269,1.72272,
-2.76337,1.72882,
-2.76794,1.72882,
-2.7771,1.72119,
-2.78015,1.72272,
-2.79083,1.71967,
-2.79541,1.72729,
-2.80304,1.73035,
-2.80304,1.72424,
-2.80457,1.72119,
-2.80914,1.72119,
-2.81219,1.72729,
-2.81372,1.72119,
-2.81067,1.72424,
-2.80914,1.71509,
-2.80914,1.71661,
-2.80457,1.72424,
-2.80914,1.72272,
-2.80914,1.7334,
-2.81067,1.71814,
-2.80304,1.72272,
-2.80304,1.72272,
-2.79694,1.72119,
-2.79388,1.72729,
-2.79083,1.71967,
-2.79083,1.71814,
-2.78778,1.72119,
-2.78168,1.72119,
-2.77863,1.72729,
-2.7771,1.70593,
-2.77863,1.71661,
-2.77405,1.71661,
-2.77252,1.71967,
-2.77252,1.72119,
-2.77252,1.72119,
-2.771,1.71509,
-2.76794,1.72424,
-2.76794,1.72272,
-2.76642,1.72119,
-2.76337,1.71661,
-2.76489,1.71509,
-2.76947,1.72119,
-2.771,1.72424,
-2.77863,1.71967,
-2.78625,1.71967,
-2.79083,1.71661,
-2.79694,1.72424,
-2.80304,1.72729,
-2.81525,1.72119,
-2.82898,1.71814,
-2.83813,1.71509,
-2.84729,1.72272,
-2.85492,1.72119,
-2.86407,1.72272,
-2.8717,1.71356,
-2.87781,1.71509,
-2.88544,1.72119,
-2.89612,1.72119,
-2.89764,1.71967,
-2.90833,1.71814,
-2.91443,1.72424,
-2.91748,1.71967,
-2.92511,1.72272,
-2.92969,1.71814,
-2.93274,1.71356,
-2.93884,1.71356,
-2.94342,1.72119,
-2.94342,1.71967,
-2.94952,1.71661,
-2.95868,1.71814,
-2.95868,1.71356,
-2.96326,1.71661,
-2.96631,1.71967,
-2.96783,1.72272,
-2.97394,1.71661,
-2.98004,1.71509,
-2.98462,1.71814,
-2.9892,1.71967,
-2.99072,1.72272,
-2.99683,1.71204,
-3.00446,1.71661,
-3.00598,1.71509,
-3.01208,1.72272,
-3.01819,1.71967,
-3.02429,1.71509,
-3.02887,1.71509,
-3.03802,1.71967,
-3.04565,1.71509,
-3.05023,1.72119,
-3.05939,1.71356,
-3.06702,1.71204,
-3.07465,1.71509,
-3.07922,1.72272,
-3.08838,1.72119,
-3.08838,1.71814,
-3.09296,1.71204,
-3.10211,1.71661,
-3.10516,1.72272,
-3.11127,1.71661,
-3.11737,1.71051,
-3.12653,1.71204,
-3.13416,1.71814,
-3.14636,1.71967,
-3.15552,1.71356,
-3.16772,1.70746,
-3.17688,1.71661,
-3.18909,1.71509,
-3.19519,1.71814,
-3.20282,1.71967,
-3.21503,1.71509,
-3.21808,1.71509,
-3.21808,1.71509,
-3.2196,1.71967,
-3.2196,1.71661,
-3.21808,1.70898,
-3.2074,1.71661,
-3.19519,1.71356,
-3.17535,1.72119,
-3.15857,1.71356,
-3.13263,1.71814,
-3.10516,1.71356,
-3.07465,1.71509,
-3.04108,1.71356,
-3.00903,1.71661,
-2.97241,1.71204,
-2.93732,1.71661,
-2.89764,1.71356,
-2.86407,1.71814,
-2.82288,1.71661,
-2.78931,1.71509,
-2.74963,1.71356,
-2.71759,1.71356,
-2.68097,1.71509,
-2.65045,1.71204,
-2.61993,1.71356,
-2.59552,1.71204,
-2.57111,1.71356,
-2.5528,1.71814,
-2.53296,1.71204,
-2.5177,1.71661,
-2.50397,1.71204,
-2.49176,1.71204,
-2.4826,1.71814,
-2.47192,1.71509,
-2.46277,1.71356,
-2.45667,1.71661,
-2.45667,1.71204,
-2.45056,1.71967,
-2.44904,1.71509,
-2.44751,1.70746,
-2.44446,1.71204,
-2.44446,1.71356,
-2.44293,1.71509,
-2.44293,1.71356,
-2.44446,1.71204,
-2.43835,1.71204,
-2.43683,1.71204,
-2.43378,1.71661,
-2.43073,1.71661,
-2.42767,1.70898,
-2.42767,1.71051,
-2.4231,1.71051,
-2.42157,1.71661,
-2.41394,1.71509,
-2.41089,1.71356,
-2.40479,1.71204,
-2.39868,1.71661,
-2.39868,1.71967,
-2.40173,1.70898,
-2.3941,1.71356,
-2.39105,1.71204,
-2.3941,1.71356,
-2.39105,1.71661,
-2.3941,1.71204,
-2.39716,1.70898,
-2.40021,1.71204,
-2.40479,1.71051,
-2.41241,1.7334,
-2.41852,1.70441,
-2.42462,1.70746,
-2.43378,1.70593,
-2.43835,1.71204,
-2.44751,1.71814,
-2.45972,1.71356,
-2.46735,1.70898,
-2.47955,1.71204,
-2.47803,1.71204,
-2.48566,1.71509,
-2.49023,1.71356,
-2.49634,1.71051,
-2.49786,1.70898,
-2.50397,1.71051,
-2.50854,1.71661,
-2.51312,1.71967,
-2.51923,1.71051,
-2.5238,1.70441,
-2.52838,1.71051,
-2.52533,1.71814,
-2.52991,1.71356,
-2.52991,1.70593,
-2.52991,1.70898,
-2.52838,1.71356,
-2.52686,1.71661,
-2.52838,1.71204,
-2.52686,1.71356,
-2.52686,1.71051,
-2.52686,1.70746,
-2.52991,1.71661,
-2.52991,1.71204,
-2.53296,1.71051,
-2.53906,1.70746,
-2.53754,1.71356,
-2.54364,1.71051,
-2.55127,1.71204,
-2.55585,1.70898,
-2.55737,1.70898,
-2.56195,1.71051,
-2.56653,1.71204,
-2.56958,1.71051,
-2.57263,1.71204,
-2.57416,1.71051,
-2.57721,1.71051,
-2.58179,1.71051,
-2.58484,1.71509,
-2.58789,1.70746,
-2.59094,1.70593,
-2.59399,1.71051,
-2.59552,1.71356,
-2.60315,1.71509,
-2.60468,1.71051,
-2.6062,1.71051,
-2.61993,1.70898,
-2.62146,1.71814,
-2.63367,1.71051,
-2.63977,1.70898,
-2.63977,1.71051,
-2.64282,1.70898,
-2.64893,1.71661,
-2.65808,1.71509,
-2.66571,1.71204,
-2.67334,1.71204,
-2.68555,1.70746,
-2.69318,1.71051,
-2.70233,1.71204,
-2.70996,1.70746,
-2.71912,1.71051,
-2.73132,1.71356,
-2.73438,1.71356,
-2.74048,1.71356,
-2.74963,1.70898,
-2.75879,1.69983,
-2.76337,1.71204,
-2.77252,1.71204,
-2.77863,1.71509,
-2.78931,1.71356,
-2.79694,1.70898,
-2.80762,1.71051,
-2.81372,1.71356,
-2.82593,1.71814,
-2.82898,1.70898,
-2.84119,1.70746,
-2.85034,1.71356,
-2.8595,1.71509,
-2.86865,1.71509,
-2.87628,1.70746,
-2.88239,1.70898,
-2.89001,1.70898,
-2.89917,1.71509,
-2.90222,1.71051,
-2.91138,1.71051,
-2.9129,1.70746,
-2.91901,1.70898,
-2.92511,1.71356,
-2.92816,1.71509,
-2.93427,1.70898,
-2.93732,1.71356,
-2.94189,1.70746,
-2.94495,1.71814,
-2.95105,1.71356,
-2.96173,1.70898,
-2.96631,1.70746,
-2.97241,1.70593,
-2.98004,1.71509,
-2.98462,1.71661,
-2.9953,1.70593,
-3.00903,1.71204,
-3.01361,1.70898,
-3.02734,1.71051,
-3.0365,1.71509,
-3.03955,1.71051,
-3.0426,1.70441,
-3.04413,1.71509,
-3.04108,1.71509,
-3.03192,1.71509,
-3.02887,1.70746,
-3.01208,1.70441,
-2.99377,1.71204,
-2.97394,1.71509,
-2.95563,1.71509,
-2.93121,1.70746,
-2.9007,1.70441,
-2.86713,1.71051,
-2.83813,1.71356,
-2.79999,1.71204,
-2.76642,1.71204,
-2.73285,1.71051,
-2.69623,1.70593,
-2.65961,1.71204,
-2.62451,1.71356,
-2.59094,1.71051,
-2.56348,1.70746,
-2.53754,1.70898,
-2.51312,1.71509,
-2.49176,1.71509,
-2.47192,1.70898,
-2.45819,1.70593,
-2.44293,1.70746,
-2.42615,1.71204,
-2.41547,1.71204,
-2.40326,1.71051,
-2.40021,1.70593,
-2.39258,1.70898,
-2.38953,1.70898,
-2.38647,1.71509,
-2.38495,1.70898,
-2.388,1.70746,
-2.39105,1.70898,
-2.3941,1.71356,
-2.40021,1.71356,
-2.40479,1.71051,
-2.41089,1.70746,
-2.41394,1.70898,
-2.41699,1.71356,
-2.42157,1.71204,
-2.42767,1.70746,
-2.43225,1.70898,
-2.43683,1.71356,
-2.43988,1.71356,
-2.44293,1.71204,
-2.45056,1.71204,
-2.45514,1.70593,
-2.45514,1.70593,
-2.46429,1.71509,
-2.47345,1.70898,
-2.47955,1.70898,
-2.48108,1.70441,
-2.48871,1.70746,
-2.49634,1.71661,
-2.50244,1.71204,
-2.50854,1.70593,
-2.5116,1.70746,
-2.5177,1.71051,
-2.52075,1.71204,
-2.52075,1.71204,
-2.5238,1.70898,
-2.52533,1.71051,
-2.5238,1.70746,
-2.52838,1.71356,
-2.53143,1.71509,
-2.53601,1.70746,
-2.53601,1.70135,
-2.53601,1.70898,
-2.54211,1.71204,
-2.53601,1.71356,
-2.53601,1.70898,
-2.53448,1.70593,
-2.53601,1.71051,
-2.53296,1.71356,
-2.53448,1.70898,
-2.53601,1.70898,
-2.53143,1.70593,
-2.52991,1.70898,
-2.52838,1.71204,
-2.52686,1.71051,
-2.52686,1.71051,
-2.51923,1.70288,
-2.51465,1.70746,
-2.51312,1.71204,
-2.50702,1.71204,
-2.49786,1.70746,
-2.49481,1.70441,
-2.49176,1.70898,
-2.48871,1.71051,
-2.48718,1.71204,
-2.48566,1.70593,
-2.4826,1.70441,
-2.48413,1.70746,
-2.48413,1.71051,
-2.48108,1.71509,
-2.48108,1.70898,
-2.47955,1.70746,
-2.4826,1.70746,
-2.48413,1.70898,
-2.48566,1.71509,
-2.48566,1.70593,
-2.48718,1.70135,
-2.48871,1.70746,
-2.49329,1.71204,
-2.49023,1.71509,
-2.48566,1.70898,
-2.48718,1.70593,
-2.49329,1.71204,
-2.49481,1.70746,
-2.49481,1.71051,
-2.49329,1.70441,
-2.49786,1.70288,
-2.50092,1.70593,
-2.50397,1.70746,
-2.50397,1.71051,
-2.50854,1.70746,
-2.51465,1.70288,
-2.51923,1.70593,
-2.52533,1.71051,
-2.52686,1.71051,
-2.53448,1.70288,
-2.54059,1.70135,
-2.54364,1.70898,
-2.55127,1.71356,
-2.55432,1.71051,
-2.56195,1.70746,
-2.565,1.70746,
-2.57111,1.70746,
-2.58026,1.70898,
-2.58789,1.70746,
-2.59247,1.70593,
-2.6001,1.70441,
-2.61078,1.70898,
-2.62451,1.70593,
-2.63062,1.71204,
-2.6413,1.70288,
-2.65656,1.69678,
-2.66571,1.70746,
-2.67181,1.70898,
-2.68097,1.70441,
-2.69012,1.70593,
-2.6947,1.70593,
-2.70691,1.70441,
-2.71149,1.70898,
-2.71454,1.71051,
-2.72064,1.71051,
-2.72827,1.70135,
-2.73895,1.70288,
-2.74353,1.72119,
-2.74353,1.70441,
-2.74811,1.70593,
-2.75574,1.70441,
-2.75879,1.70593,
-2.76184,1.71051,
-2.76947,1.70746,
-2.7771,1.70288,
-2.78168,1.70135,
-2.78931,1.70441,
-2.79083,1.71204,
-2.79541,1.70746,
-2.80151,1.70593,
-2.79999,1.70441,
-2.80304,1.70593,
-2.80609,1.70746,
-2.80304,1.71051,
-2.79846,1.70898,
-2.78625,1.70288,
-2.77405,1.70593,
-2.75726,1.71204,
-2.7359,1.71204,
-2.70996,1.70593,
-2.68555,1.70441,
-2.6535,1.70593,
-2.61993,1.71204,
-2.58789,1.70898,
-2.54822,1.70441,
-2.5177,1.69983,
-2.47498,1.70441,
-2.4353,1.71051,
-2.39105,1.71051,
-2.35443,1.71204,
-2.32086,1.69983,
-2.28119,1.70441,
-2.24915,1.70898,
-2.21558,1.70746,
-2.18658,1.70441,
-2.15302,1.6983,
-2.12402,1.70288,
-2.09503,1.70898,
-2.07214,1.71204,
-2.0462,1.70593,
-2.02484,1.70288,
-2.00958,1.70593,
-1.99585,1.71356,
-1.98059,1.70898,
-1.97296,1.70441,
-1.96533,1.70593,
-1.95923,1.70441,
-1.95313,1.70746,
-1.9516,1.70746,
-1.94855,1.70288,
-1.94855,1.69983,
-1.9455,1.70288,
-1.9455,1.71051,
-1.94244,1.70898,
-1.93939,1.70441,
-1.93939,1.6983,
-1.93634,1.70746,
-1.93329,1.70746,
-1.93024,1.70746,
-1.93176,1.70288,
-1.93024,1.69983,
-1.92261,1.70441,
-1.92261,1.70593,
-1.91498,1.70746,
-1.9104,1.70288,
-1.90582,1.70593,
-1.90277,1.70288,
-1.89972,1.71051,
-1.89972,1.71051,
-1.89667,1.70135,
-1.89667,1.69983,
-1.89362,1.70593,
-1.89514,1.70898,
-1.88904,1.70746,
-1.89362,1.70441,
-1.89514,1.69983,
-1.88904,1.70288,
-1.89056,1.70593,
-1.88446,1.70593,
-1.88293,1.70288,
-1.88141,1.70441,
-1.88141,1.70135,
-1.88446,1.70898,
-1.88293,1.70746,
-1.87988,1.70441,
-1.87836,1.69983,
-1.87683,1.70441,
-1.87378,1.70288,
-1.8692,1.70593,
-1.86462,1.70288,
-1.8631,1.70135,
-1.85394,1.70593,
-1.84784,1.70593,
-1.83868,1.70593,
-1.83258,1.70288,
-1.82495,1.70135,
-1.8158,1.70135,
-1.81274,1.70593,
-1.80664,1.70441,
-1.80359,1.70288,
-1.79901,1.70441,
-1.78986,1.70288,
-1.7868,1.70288,
-1.7807,1.70441,
-1.7746,1.69678,
-1.77155,1.70288,
-1.76849,1.70288,
-1.76239,1.70593,
-1.76392,1.70898,
-1.76239,1.70593,
-1.76239,1.70593,
-1.76544,1.70135,
-1.76544,1.70441,
-1.76697,1.70746,
-1.77155,1.6983,
-1.77765,1.70135,
-1.78223,1.70288,
-1.79138,1.69983,
-1.79901,1.70593,
-1.80969,1.70593,
-1.8158,1.69983,
-1.8219,1.70288,
-1.828,1.70441,
-1.83563,1.70593,
-1.84479,1.69067,
-1.85089,1.70288,
-1.86157,1.6922,
-1.86615,1.69983,
-1.87531,1.70441,
-1.88599,1.6983,
-1.89362,1.6983,
-1.90735,1.70135,
-1.91345,1.70135,
-1.92261,1.72119,
-1.92719,1.70288,
-1.93939,1.6983,
-1.94855,1.69983,
-1.95923,1.70593,
-1.96991,1.70593,
-1.97754,1.70288,
-1.98822,1.70288,
-2.005,1.6983,
-2.01721,1.70593,
-2.03247,1.70746,
-2.04468,1.69983,
-2.05688,1.70288,
-2.0752,1.6983,
-2.08588,1.70593,
-2.09656,1.70288,
-2.10724,1.69983,
-2.11639,1.6983,
-2.12708,1.70135,
-2.13776,1.69983,
-2.14844,1.70746,
-2.15912,1.69983,
-2.16522,1.6983,
-2.17743,1.6983,
-2.18658,1.70441,
-2.19879,1.70593,
-2.211,1.6983,
-2.21252,1.69525,
-2.23236,1.70441,
-2.24609,1.70441,
-2.25372,1.70898,
-2.27051,1.69983,
-2.27814,1.69678,
-2.29187,1.69678,
-2.30713,1.70288,
-2.31934,1.70746,
-2.33002,1.6983,
-2.34528,1.6983,
-2.35748,1.6983,
-2.36816,1.70288,
-2.38037,1.70441,
-2.388,1.68915,
-2.39716,1.6983,
-2.41089,1.69678,
-2.41394,1.70441,
-2.42004,1.70441,
-2.42767,1.69678,
-2.43378,1.70135,
-2.44293,1.69678,
-2.45056,1.70288,
-2.45514,1.70593,
-2.45972,1.69678,
-2.45819,1.69678,
-2.45361,1.6983,
-2.45056,1.70135,
-2.43073,1.70746,
-2.41699,1.69678,
-2.39105,1.69525,
-2.36664,1.70135,
-2.34222,1.70135,
-2.31171,1.70441,
-2.27814,1.69525,
-2.24152,1.6922,
-2.2049,1.69983,
-2.1637,1.70288,
-2.12402,1.70135,
-2.08435,1.69678,
-2.04163,1.69678,
-2.00043,1.69525,
-1.95618,1.70135,
-1.91498,1.70288,
-1.87531,1.69678,
-1.83868,1.69525,
-1.80206,1.69983,
-1.76849,1.70441,
-1.73798,1.70135,
-1.70898,1.69678,
-1.67999,1.6983,
-1.65558,1.6922,
-1.63116,1.70135,
-1.61133,1.70288,
-1.59302,1.6922,
-1.57318,1.69983,
-1.56403,1.69525,
-1.55487,1.69983,
-1.54419,1.70441,
-1.53503,1.6983,
-1.53351,1.69067,
-1.52588,1.6922,
-1.52283,1.69678,
-1.51672,1.70746,
-1.50757,1.69983,
-1.50452,1.69525,
-1.50146,1.69678,
-1.49994,1.6983,
-1.49689,1.70135,
-1.49536,1.69678,
-1.49384,1.6922,
-1.49384,1.69067,
-1.49384,1.69983,
-1.49384,1.6983,
-1.49689,1.70441,
-1.49841,1.68304,
-1.49841,1.70898,
-1.49536,1.70288,
-1.49384,1.70441,
-1.48926,1.69525,
-1.48468,1.69067,
-1.48468,1.69067,
-1.48315,1.69678,
-1.48468,1.69678,
-1.48468,1.69525,
-1.48773,1.69067,
-1.48163,1.69525,
-1.48163,1.6983,
-1.48315,1.69678,
-1.48163,1.6983,
-1.47705,1.69525,
-1.4801,1.6983,
-1.48163,1.69983,
-1.48315,1.69983,
-1.48926,1.69525,
-1.49231,1.68762,
-1.49994,1.69525,
-1.50299,1.6922,
-1.50757,1.70135,
-1.50757,1.69525,
-1.5152,1.68762,
-1.51825,1.69525,
-1.51672,1.6983,
-1.51978,1.6922,
-1.52435,1.6983,
-1.53046,1.69067,
-1.52893,1.6922,
-1.52893,1.69525,
-1.53046,1.69678,
-1.53351,1.6983,
-1.53809,1.69067,
-1.53961,1.69067,
-1.53809,1.69678,
-1.54266,1.69678,
-1.54419,1.68915,
-1.54419,1.6922,
-1.54266,1.69525,
-1.54266,1.69678,
-1.53961,1.69525,
-1.53961,1.69525,
-1.54266,1.69525,
-1.53961,1.69067,
-1.54114,1.69067,
-1.54419,1.69067,
-1.54114,1.6922,
-1.54877,1.69067,
-1.54877,1.69067,
-1.54572,1.6922,
-1.54572,1.69678,
-1.54877,1.69525,
-1.5564,1.69067,
-1.56403,1.6922,
-1.56403,1.69067,
-1.57013,1.69067,
-1.57776,1.6922,
-1.57928,1.68915,
-1.58539,1.6922,
-1.58844,1.69067,
-1.59302,1.69525,
-1.59454,1.6922,
-1.5976,1.6861,
-1.60065,1.68915,
-1.5976,1.68915,
-1.60675,1.69067,
-1.61438,1.69525,
-1.62048,1.68152,
-1.62811,1.69067,
-1.63574,1.69067,
-1.64948,1.69067,
-1.66321,1.6922,
-1.67389,1.68762,
-1.6861,1.69067,
-1.6983,1.69525,
-1.70898,1.69678,
-1.72119,1.69525,
-1.73645,1.68915,
-1.74408,1.68762,
-1.75781,1.68915,
-1.76392,1.68915,
-1.77155,1.69678,
-1.78223,1.68762,
-1.79138,1.68915,
-1.79749,1.68915,
-1.80054,1.6983,
-1.81427,1.69067,
-1.81885,1.68152,
-1.82648,1.68762,
-1.83258,1.69067,
-1.84021,1.68915,
-1.84631,1.68915,
-1.85242,1.68457,
-1.8631,1.68762,
-1.87378,1.68762,
-1.87378,1.69067,
-1.88293,1.6922,
-1.89056,1.6861,
-1.90277,1.68304,
-1.91345,1.68915,
-1.91956,1.6983,
-1.93024,1.6922,
-1.94702,1.68915,
-1.9577,1.68762,
-1.97144,1.68915,
-1.98517,1.6922,
-2.00043,1.67999,
-2.00958,1.68915,
-2.02179,1.6861,
-2.03247,1.68762,
-2.0462,1.68915,
-2.05688,1.68915,
-2.06909,1.68915,
-2.08282,1.6861,
-2.09503,1.6922,
-2.11487,1.68915,
-2.12402,1.68762,
-2.1347,1.67999,
-2.14539,1.68457,
-2.15454,1.69067,
-2.16217,1.68762,
-2.17438,1.68915,
-2.17743,1.68457,
-2.18353,1.68762,
-2.18658,1.6861,
-2.18506,1.68762,
-2.18048,1.68762,
-2.16827,1.68762,
-2.15302,1.68457,
-2.13623,1.68762,
-2.11639,1.6922,
-2.09656,1.69067,
-2.07062,1.68304,
-2.03705,1.6861,
-2.00958,1.69067,
-1.97906,1.69067,
-1.94702,1.68304,
-1.91498,1.67999,
-1.88599,1.68457,
-1.85242,1.69678,
-1.82037,1.68762,
-1.79138,1.6861,
-1.75781,1.68304,
-1.72882,1.68152,
-1.69678,1.68457,
-1.66931,1.68915,
-1.64642,1.6861,
-1.62506,1.68457,
-1.60522,1.6861,
-1.58691,1.68915,
-1.56708,1.6922,
-1.5564,1.68762,
-1.54572,1.67694,
-1.53809,1.68762,
-1.53198,1.68762,
-1.52893,1.68915,
-1.5213,1.68304,
-1.51825,1.68304,
-1.5152,1.67694,
-1.50757,1.68457,
-1.50909,1.68915,
-1.50146,1.68762,
-1.49689,1.68304,
-1.49231,1.67999,
-1.49078,1.68762,
-1.49231,1.68915,
-1.48926,1.68762,
-1.48926,1.68304,
-1.48926,1.68152,
-1.48773,1.68762,
-1.48621,1.6922,
-1.48315,1.68457,
-1.48315,1.67999,
-1.47705,1.67999,
-1.4801,1.68762,
-1.48315,1.68915,
-1.48468,1.68457,
-1.49078,1.68457,
-1.49078,1.68152,
-1.49536,1.68304,
-1.49841,1.68762,
-1.50604,1.68457,
-1.51062,1.68152,
-1.51215,1.68304,
-1.5213,1.68762,
-1.52893,1.69067,
-1.53198,1.6861,
-1.53503,1.68304,
-1.54114,1.68152,
-1.54877,1.68304,
-1.5564,1.68304,
-1.5625,1.6861,
-1.56555,1.67999,
-1.56555,1.67847,
-1.57166,1.6861,
-1.57318,1.68762,
-1.57928,1.68762,
-1.58539,1.67999,
-1.58691,1.67847,
-1.58997,1.68457,
-1.58997,1.6861,
-1.58844,1.68304,
-1.58844,1.67999,
-1.59302,1.67999,
-1.59149,1.68915,
-1.58997,1.68915,
-1.58997,1.68304,
-1.59149,1.68304,
-1.58844,1.67694,
-1.58691,1.68457,
-1.58844,1.68304,
-1.58844,1.6861,
-1.58539,1.68457,
-1.58539,1.67999,
-1.58081,1.68304,
-1.57623,1.68915,
-1.57166,1.68304,
-1.5686,1.68152,
-1.56403,1.67694,
-1.5625,1.68304,
-1.56097,1.68457,
-1.55792,1.68304,
-1.55792,1.67999,
-1.56097,1.6861,
-1.5625,1.68304,
-1.56555,1.68457,
-1.5686,1.68457,
-1.56403,1.68304,
-1.5686,1.67999,
-1.57013,1.68152,
-1.57318,1.68457,
-1.58081,1.68304,
-1.58539,1.67999,
-1.58997,1.67694,
-1.59912,1.68457,
-1.60522,1.68762,
-1.61133,1.68152,
-1.62354,1.67847,
-1.62964,1.68152,
-1.63879,1.68457,
-1.64185,1.68915,
-1.64948,1.68457,
-1.6571,1.67999,
-1.66779,1.67847,
-1.67236,1.67999,
-1.68152,1.6861,
-1.69067,1.68457,
-1.6983,1.68304,
-1.70746,1.67999,
-1.71661,1.68304,
-1.72424,1.69067,
-1.7395,1.67999,
-1.74713,1.67847,
-1.75781,1.67694,
-1.77002,1.68152,
-1.7807,1.68457,
-1.79596,1.67999,
-1.80969,1.67847,
-1.82037,1.67999,
-1.83868,1.68304,
-1.85394,1.68457,
-1.87073,1.68457,
-1.88293,1.67847,
-1.89819,1.67542,
-1.91345,1.67999,
-1.92871,1.68457,
-1.94244,1.68762,
-1.95465,1.67999,
-1.96991,1.67847,
-1.98059,1.6861,
-1.99127,1.68304,
-1.9989,1.67847,
-2.01263,1.67847,
-2.01874,1.68152,
-2.02789,1.67999,
-2.03552,1.6861,
-2.04315,1.68152,
-2.05078,1.67999,
-2.05231,1.67847,
-2.05383,1.68152,
-2.05841,1.68762,
-2.06757,1.68152,
-2.07062,1.67542,
-2.07214,1.67999,
-2.07214,1.68304,
-2.0752,1.68915,
-2.07825,1.68152,
-2.07977,1.67847,
-2.08282,1.67999,
-2.07977,1.67999,
-2.07825,1.68304,
-2.07672,1.68304,
-2.07672,1.67542,
-2.0752,1.67999,
-2.07367,1.68152,
-2.07672,1.68762,
-2.07672,1.68915,
-2.07672,1.67694,
-2.0752,1.67236,
-2.07672,1.68152,
-2.07672,1.68304,
-2.07367,1.67999,
-2.06604,1.67694,
-2.05994,1.67694,
-2.04926,1.68762,
-2.03857,1.6861,
-2.02637,1.67999,
-2.01263,1.68152,
-1.99738,1.67694,
-1.97296,1.67694,
-1.95313,1.67847,
-1.91956,1.68457,
-1.88599,1.67389,
-1.84631,1.67999,
-1.80206,1.68304,
-1.76086,1.6861,
-1.71051,1.67999,
-1.6571,1.67999,
-1.59912,1.67999,
-1.54419,1.68304,
-1.48773,1.6861,
-1.42822,1.68457,
-1.37024,1.67847,
-1.31683,1.67542,
-1.26648,1.67694,
-1.22223,1.67542,
-1.1795,1.68152,
-1.13678,1.67847,
-1.09558,1.67847,
-1.05896,1.67999,
-1.02539,1.68762,
-0.996399,1.68304,
-0.968933,1.67236,
-0.942993,1.68152,
-0.923157,1.68152,
-0.915527,1.68304,
-0.904846,1.67847,
-0.891113,1.67694,
-0.883484,1.67694,
-0.874329,1.67999,
-0.866699,1.68457,
-0.863647,1.67999,
-0.85907,1.67847,
-0.85907,1.67847,
-0.857544,1.67847,
-0.857544,1.68304,
-0.862122,1.68152,
-0.862122,1.67847,
-0.865173,1.67542,
-0.862122,1.67847,
-0.865173,1.68457,
-0.862122,1.68152,
-0.865173,1.67084,
-0.865173,1.67999,
-0.871277,1.67847,
-0.87738,1.68152,
-0.878906,1.68152,
-0.883484,1.67542,
-0.889587,1.67542,
-0.898743,1.67847,
-0.907898,1.6861,
-0.920105,1.68304,
-0.933838,1.67694,
-0.949097,1.67542,
-0.965881,1.68152,
-0.975037,1.68304,
-0.993347,1.67694,
-1.01318,1.67847,
-1.02692,1.67694,
-1.04523,1.68304,
-1.05743,1.68457,
-1.07574,1.67694,
-1.0849,1.67389,
-1.08795,1.67542,
-1.09711,1.67847,
-1.10474,1.6861,
-1.10931,1.67847,
-1.11542,1.67236,
-1.12,1.67847,
-1.12457,1.67694,
-1.1261,1.6861,
-1.12915,1.68152,
-1.13678,1.67236,
-1.14136,1.67847,
-1.14594,1.67847,
-1.14746,1.68152,
-1.14746,1.68304,
-1.14899,1.67694,
-1.14899,1.67999,
-1.15051,1.68457,
-1.15204,1.67847,
-1.15814,1.67999,
-1.15662,1.67236,
-1.15814,1.67389,
-1.15509,1.67542,
-1.15051,1.6861,
-1.14594,1.68304,
-1.14136,1.67084,
-1.13373,1.67694,
-1.1261,1.66931,
-1.12305,1.68304,
-1.11694,1.67694,
-1.11084,1.67389,
-1.11084,1.67542,
-1.10626,1.67999,
-1.10168,1.67694,
-1.09863,1.67389,
-1.09406,1.67542,
-1.08948,1.67694,
-1.091,1.67847,
-1.091,1.67847,
-1.08948,1.67389,
-1.08795,1.67236,
-1.08795,1.67389,
-1.08795,1.67999,
-1.091,1.68152,
-1.091,1.67999,
-1.09863,1.67542,
-1.10474,1.67694,
-1.11084,1.67694,
-1.11542,1.67694,
-1.12305,1.67847,
-1.1322,1.67389,
-1.14594,1.67542,
-1.15509,1.67999,
-1.16425,1.67999,
-1.17798,1.68304,
-1.19476,1.67236,
-1.21155,1.67084,
-1.21765,1.68304,
-1.22986,1.67847,
-1.24207,1.67694,
-1.24817,1.67542,
-1.26343,1.67694,
-1.26953,1.67999,
-1.28021,1.67694,
-1.28784,1.67542,
-1.29547,1.6861,
-1.30463,1.66931,
-1.31378,1.67694,
-1.32446,1.67999,
-1.33362,1.67694,
-1.34735,1.67847,
-1.35345,1.67389,
-1.36566,1.67542,
-1.37024,1.67847,
-1.37939,1.67694,
-1.38702,1.67694,
-1.39465,1.67389,
-1.40686,1.67847,
-1.41907,1.67999,
-1.42975,1.67999,
-1.44348,1.67084,
-1.45264,1.67542,
-1.46027,1.67847,
-1.4679,1.67999,
-1.47552,1.67847,
-1.48621,1.67389,
-1.49231,1.67084,
-1.49994,1.67847,
-1.50452,1.68152,
-1.51215,1.67847,
-1.51978,1.67389,
-1.52283,1.67694,
-1.52435,1.67999,
-1.53198,1.67847,
-1.53656,1.67389,
-1.54419,1.67542,
-1.55334,1.66779,
-1.5625,1.6983,
-1.57166,1.67389,
-1.58386,1.67847,
-1.59149,1.67694,
-1.5976,1.67236,
-1.60522,1.67389,
-1.60828,1.67999,
-1.61438,1.67694,
-1.62048,1.67084,
-1.62201,1.66779,
-1.61743,1.67999,
-1.62201,1.67999,
-1.6098,1.67847,
-1.6037,1.67084,
-1.58997,1.67542,
-1.57776,1.67694,
-1.55945,1.67694,
-1.53046,1.67389,
-1.51215,1.67084,
-1.48621,1.67389,
-1.45874,1.67694,
-1.43127,1.67847,
-1.40533,1.68152,
-1.37482,1.66626,
-1.34277,1.67084,
-1.31226,1.67847,
-1.27869,1.67847,
-1.24817,1.67389,
-1.21155,1.67542,
-1.18103,1.67236,
-1.15356,1.67999,
-1.1261,1.67847,
-1.09711,1.67694,
-1.06964,1.67389,
-1.04675,1.66931,
-1.02844,1.67694,
-1.00555,1.67694,
-0.987244,1.67694,
-0.967407,1.67542,
-0.950623,1.67236,
-0.93689,1.67847,
-0.921631,1.67847,
-0.91095,1.67694,
-0.900269,1.66779,
-0.88501,1.67236,
-0.875854,1.67847,
-0.869751,1.67236,
-0.865173,1.67694,
-0.856018,1.67236,
-0.848389,1.67694,
-0.845337,1.67694,
-0.840759,1.67389,
-0.836182,1.69067,
-0.836182,1.67084,
-0.83313,1.67236,
-0.83313,1.67847,
-0.831604,1.67694,
-0.836182,1.68152,
-0.836182,1.67389,
-0.834656,1.67236,
-0.836182,1.67389,
-0.837708,1.67694,
-0.836182,1.67389,
-0.845337,1.66931,
-0.846863,1.67084,
-0.856018,1.67847,
-0.85907,1.67542,
-0.865173,1.67542,
-0.871277,1.67542,
-0.87738,1.66931,
-0.881958,1.67542,
-0.892639,1.67542,
-0.901794,1.67694,
-0.906372,1.66931,
-0.914001,1.67084,
-0.918579,1.67694,
-0.923157,1.67694,
-0.933838,1.67542,
-0.93689,1.66626,
-0.944519,1.66931,
-0.950623,1.67542,
-0.959778,1.67084,
-0.968933,1.67694,
-0.979614,1.67542,
-0.987244,1.67389,
-0.996399,1.67847,
-1.00403,1.67236,
-1.01318,1.67694,
-1.01776,1.66931,
-1.02844,1.66473,
-1.03302,1.67999,
-1.03455,1.67694,
-1.04065,1.67999,
-1.04675,1.67084,
-1.04828,1.66931,
-1.05286,1.67847,
-1.05438,1.66779,
-1.05743,1.67542,
-1.06201,1.66931,
-1.06201,1.67084,
-1.06049,1.67389,
-1.06049,1.67542,
-1.06354,1.67542,
-1.06506,1.67236,
-1.06506,1.66779,
-1.06812,1.67389,
-1.06812,1.67847,
-1.07117,1.67236,
-1.07269,1.66779,
-1.07269,1.66931,
-1.06812,1.66626,
-1.06812,1.67694,
-1.06812,1.67542,
-1.06506,1.67084,
-1.06506,1.67084,
-1.06354,1.67389,
-1.06812,1.67084,
-1.06812,1.67389,
-1.06964,1.66779,
-1.07269,1.66931,
-1.07422,1.67236,
-1.07574,1.67999,
-1.07422,1.67847,
-1.07574,1.67236,
-1.07727,1.66931,
-1.07727,1.67236,
-1.08032,1.66931,
-1.08337,1.67694,
-1.08337,1.66931,
-1.08948,1.66779,
-1.09711,1.67542,
-1.10779,1.67542,
-1.11389,1.67542,
-1.12152,1.67084,
-1.12457,1.66931,
-1.12915,1.67084,
-1.13678,1.67694,
-1.14441,1.67389,
-1.14746,1.67084,
-1.15051,1.67236,
-1.15204,1.66931,
-1.15204,1.67542,
-1.15356,1.67389,
-1.15662,1.66931,
-1.16577,1.67236,
-1.17035,1.67084,
-1.17493,1.67389,
-1.1795,1.67236,
-1.18103,1.66931,
-1.18713,1.67084,
-1.19019,1.67236,
-1.19781,1.67236,
-1.21002,1.67694,
-1.21613,1.67084,
-1.23138,1.67084,
-1.24359,1.66931,
-1.25427,1.67542,
-1.27106,1.67389,
-1.28479,1.66931,
-1.29395,1.66931,
-1.31073,1.67084,
-1.32599,1.67694,
-1.33972,1.66626,
-1.35193,1.66779,
