-0.1297,1.13525,
-0.158691,1.18256,
-0.183105,1.17798,
-0.205994,1.14288,
-0.230408,1.10931,
-0.250244,1.1322,
-0.265503,1.1795,
-0.283813,1.1795,
-0.297546,1.14441,
-0.311279,1.11847,
-0.323486,1.13831,
-0.335693,1.18866,
-0.349426,1.18256,
-0.357056,1.14899,
-0.364685,1.11847,
-0.37384,1.13983,
-0.38147,1.18408,
-0.382996,1.18561,
-0.389099,1.14899,
-0.393677,1.12,
-0.398254,1.14136,
-0.396729,1.19171,
-0.401306,1.19171,
-0.405884,1.15204,
-0.410461,1.12457,
-0.410461,1.14441,
-0.415039,1.19629,
-0.424194,1.19324,
-0.431824,1.15662,
-0.437927,1.1261,
-0.450134,1.14899,
-0.457764,1.20392,
-0.465393,1.20392,
-0.4776,1.15967,
-0.483704,1.1261,
-0.495911,1.15204,
-0.511169,1.19781,
-0.527954,1.20392,
-0.540161,1.15814,
-0.559998,1.12762,
-0.579834,1.15509,
-0.601196,1.20392,
-0.624084,1.19934,
-0.643921,1.17188,
-0.665283,1.13068,
-0.68512,1.15814,
-0.704956,1.20544,
-0.72937,1.20697,
-0.753784,1.16882,
-0.779724,1.13525,
-0.804138,1.16272,
-0.837708,1.21002,
-0.857544,1.2085,
-0.88501,1.1734,
-0.918579,1.13983,
-0.952148,1.16425,
-0.98114,1.21002,
-1.01624,1.21002,
-1.0498,1.1734,
-1.08795,1.13831,
-1.11847,1.16425,
-1.15662,1.21307,
-1.19019,1.2146,
-1.22681,1.17493,
-1.2619,1.12762,
-1.30005,1.1673,
-1.33514,1.22375,
-1.37939,1.21613,
-1.42212,1.1795,
-1.45874,1.14441,
-1.50146,1.17035,
-1.54572,1.21918,
-1.58997,1.23291,
-1.63269,1.18408,
-1.67084,1.15204,
-1.71356,1.17035,
-1.75781,1.2207,
-1.80359,1.21918,
-1.84631,1.18408,
-1.89362,1.14899,
-1.94092,1.1734,
-1.98364,1.22223,
-2.02637,1.22375,
-2.07214,1.18561,
-2.11945,1.15356,
-2.16217,1.1795,
-2.20642,1.22223,
-2.25067,1.22375,
-2.29492,1.18713,
-2.33459,1.15204,
-2.38037,1.18103,
-2.4231,1.22528,
-2.45667,1.22528,
-2.49786,1.18866,
-2.54059,1.15509,
-2.57416,1.18561,
-2.61078,1.22681,
-2.64587,1.23291,
-2.68555,1.19019,
-2.72522,1.15967,
-2.76184,1.19019,
-2.79846,1.23291,
-2.83356,1.22528,
-2.87018,1.19934,
-2.90527,1.16272,
-2.94037,1.19019,
-2.97394,1.23749,
-3.01056,1.23596,
-3.03955,1.18256,
-3.07159,1.16272,
-3.10516,1.18866,
-3.13873,1.23901,
-3.16772,1.23901,
-3.19977,1.19781,
-3.22571,1.1673,
-3.2547,1.20544,
-3.28522,1.24054,
-3.31421,1.23749,
-3.34473,1.20392,
-3.37219,1.1673,
-3.39966,1.19781,
-3.43018,1.23749,
-3.45917,1.24207,
-3.48358,1.20239,
-3.508,1.17493,
-3.53546,1.20087,
-3.56293,1.23901,
-3.59192,1.24359,
-3.61786,1.20392,
-3.64685,1.17645,
-3.67126,1.20239,
-3.69263,1.24359,
-3.70789,1.24817,
-3.7262,1.20697,
-3.73077,1.17645,
-3.72772,1.20392,
-3.72162,1.24512,
-3.70636,1.24817,
-3.68347,1.21002,
-3.64685,1.17798,
-3.59955,1.21002,
-3.54767,1.25122,
-3.479,1.25275,
-3.40271,1.21002,
-3.31726,1.18408,
-3.21808,1.2085,
-3.11432,1.25427,
-3.00293,1.25427,
-2.87781,1.2146,
-2.75269,1.18256,
-2.61688,1.21613,
-2.47803,1.25732,
-2.33307,1.25732,
-2.18658,1.21307,
-2.04163,1.18408,
-1.89667,1.21765,
-1.74713,1.26038,
-1.60065,1.25885,
-1.45569,1.21765,
-1.31378,1.18713,
-1.17493,1.21765,
-1.04523,1.22681,
-0.914001,1.26343,
-0.785828,1.21613,
-0.671387,1.18103,
-0.561523,1.21765,
-0.453186,1.26343,
-0.350952,1.2558,
-0.254822,1.26648,
-0.167847,1.18256,
-0.0915527,1.21613,
-0.0183105,1.25275,
0.0518799,1.25732,
0.115967,1.21765,
0.167847,1.19934,
0.212097,1.2146,
0.254822,1.25732,
0.286865,1.23901,
0.312805,1.2146,
0.331116,1.18408,
0.3479,1.22528,
0.358582,1.26343,
0.367737,1.26038,
0.37384,1.21307,
0.372314,1.23444,
0.364685,1.23444,
0.35553,1.26038,
0.338745,1.26495,
0.326538,1.2207,
0.297546,1.19019,
0.271606,1.22986,
0.245667,1.25122,
0.210571,1.26038,
0.183105,1.21918,
0.14801,1.19324,
0.109863,1.23444,
0.0717163,1.26648,
0.0274658,1.26801,
-0.0152588,1.22375,
-0.0534058,1.18866,
-0.100708,1.20697,
-0.143433,1.26801,
-0.180054,1.26801,
-0.219727,1.22223,
-0.265503,1.19019,
-0.306702,1.23596,
-0.346375,1.27411,
-0.382996,1.26648,
-0.421143,1.22375,
-0.456238,1.18713,
-0.494385,1.23444,
-0.523376,1.27106,
-0.549316,1.26495,
-0.57373,1.22223,
-0.601196,1.18866,
-0.627136,1.23291,
-0.642395,1.26801,
-0.665283,1.26801,
-0.68512,1.22528,
-0.704956,1.19171,
-0.721741,1.23138,
-0.735474,1.27258,
-0.747681,1.27258,
-0.758362,1.22223,
-0.772095,1.19019,
-0.78125,1.22528,
-0.793457,1.27563,
-0.804138,1.27106,
-0.810242,1.22375,
-0.817871,1.19324,
-0.830078,1.23291,
-0.843811,1.27106,
-0.85907,1.27106,
-0.871277,1.22528,
-0.886536,1.19324,
-0.904846,1.23138,
-0.91095,1.26953,
-0.927734,1.27869,
-0.93689,1.22223,
-0.953674,1.19781,
-0.971985,1.24664,
-0.985718,1.27411,
-1.00555,1.27258,
-1.02386,1.23291,
-1.04218,1.19629,
-1.06354,1.23901,
-1.08643,1.26343,
-1.11084,1.26495,
-1.13983,1.22681,
-1.17035,1.19019,
-1.20239,1.23901,
-1.23444,1.26801,
-1.26648,1.27563,
-1.30005,1.2207,
-1.33667,1.19171,
-1.37329,1.24359,
-1.41449,1.27258,
-1.45111,1.26801,
-1.48926,1.22375,
-1.53046,1.19324,
-1.57166,1.24512,
-1.61285,1.27106,
-1.65405,1.27258,
-1.6983,1.22528,
-1.74255,1.19171,
-1.78375,1.24359,
-1.83258,1.28326,
-1.87531,1.27106,
-1.92108,1.23291,
-1.96533,1.19629,
-2.00653,1.24512,
-2.04926,1.27411,
-2.09198,1.27411,
-2.13776,1.23749,
-2.18201,1.19171,
-2.22626,1.24207,
-2.2644,1.27106,
-2.30865,1.27258,
-2.35138,1.22375,
-2.39105,1.18866,
-2.43225,1.24512,
-2.47345,1.27563,
-2.51617,1.27411,
-2.55585,1.22986,
-2.59399,1.19171,
-2.63367,1.24359,
-2.67029,1.27258,
-2.70233,1.26953,
-2.74048,1.22528,
-2.77557,1.19629,
-2.81067,1.24054,
-2.84729,1.27258,
-2.87781,1.27106,
-2.91443,1.22375,
-2.948,1.18866,
-2.98157,1.24817,
-3.01056,1.26648,
-3.04565,1.26953,
-3.08075,1.22986,
-3.11279,1.19171,
-3.14636,1.23901,
-3.18451,1.26801,
-3.21655,1.27869,
-3.25165,1.26495,
-3.28674,1.18561,
-3.32489,1.23749,
-3.35846,1.26038,
-3.39508,1.27106,
-3.42407,1.22528,
-3.46069,1.18866,
-3.49731,1.23749,
-3.53394,1.23291,
-3.56903,1.27258,
-3.6087,1.23291,
-3.64227,1.18713,
-3.68347,1.23749,
-3.71857,1.25122,
-3.74908,1.25885,
-3.78876,1.22528,
-3.82385,1.18713,
-3.85742,1.22986,
-3.88947,1.26495,
-3.91846,1.26648,
-3.9505,1.21765,
-3.97949,1.18866,
-4.01306,1.22223,
-4.04816,1.24054,
-4.07867,1.26038,
-4.11072,1.22223,
-4.14276,1.18561,
-4.17633,1.22681,
-4.21143,1.26953,
-4.245,1.24664,
-4.27704,1.26495,
-4.31061,1.18561,
-4.3457,1.22986,
-4.37622,1.26953,
-4.40521,1.26495,
-4.4342,1.22375,
-4.46625,1.18408,
-4.49982,1.26953,
-4.53491,1.27258,
-4.56543,1.26801,
-4.60052,1.21918,
-4.63257,1.18561,
-4.66614,1.22375,
-4.70123,1.27258,
-4.73328,1.26343,
-4.76379,1.21918,
-4.79584,1.18408,
-4.82788,1.22223,
-4.85992,1.27563,
-4.88892,1.26495,
-4.91791,1.2207,
-4.9469,1.18256,
-4.97589,1.21918,
-5.00336,1.27563,
-5.03235,1.25122,
-5.05829,1.2207,
-5.09186,1.18256,
-5.11627,1.21765,
-5.13763,1.27258,
-5.16663,1.26343,
-5.18951,1.21918,
-5.21545,1.18256,
-5.24139,1.21613,
-5.26886,1.26953,
-5.29633,1.26038,
-5.32532,1.21918,
-5.35126,1.18408,
-5.3772,1.21613,
-5.41077,1.26801,
-5.43976,1.25732,
-5.4718,1.21765,
-5.50232,1.18561,
-5.53131,1.21307,
-5.5603,1.27258,
-5.58624,1.30463,
-5.62134,1.21765,
-5.65796,1.18408,
-5.68695,1.21307,
-5.71899,1.27411,
-5.74951,1.26038,
-5.78308,1.2146,
-5.81512,1.18256,
-5.84259,1.21307,
-5.87311,1.25275,
-5.89905,1.26343,
-5.92499,1.2207,
-5.95093,1.18713,
-5.97382,1.22223,
-5.99518,1.27106,
-6.00281,1.30463,
-6.00586,1.21613,
-6.00128,1.18256,
-5.99213,1.21002,
-5.97534,1.26801,
-5.94635,1.26343,
-5.91583,1.21765,
-5.87463,1.18408,
-5.82581,1.21155,
-5.7663,1.26801,
-5.70221,1.26038,
-5.63049,1.22223,
-5.55725,1.18561,
-5.47791,1.21002,
-5.39398,1.27106,
-5.31464,1.25732,
-5.22766,1.22223,
-5.14069,1.18866,
-5.04913,1.21613,
-4.96216,1.27106,
-4.87213,1.26648,
-4.78363,1.22375,
-4.69513,1.19019,
-4.60815,1.21002,
-4.52118,1.27106,
-4.43878,1.26801,
-4.35791,1.22375,
-4.28009,1.18561,
-4.20227,1.21155,
-4.12445,1.26953,
-4.05273,1.26801,
-3.9856,1.22528,
-3.92151,1.18866,
-3.85742,1.21765,
-3.79639,1.27106,
-3.73535,1.26495,
-3.68195,1.21765,
-3.63312,1.19171,
-3.58887,1.22528,
-3.54919,1.27411,
-3.51563,1.26648,
-3.48206,1.23138,
-3.45001,1.19019,
-3.42102,1.21307,
-3.39508,1.27716,
-3.3783,1.27716,
-3.35846,1.22681,
-3.34167,1.19171,
-3.32794,1.21765,
-3.32336,1.27869,
-3.31421,1.27258,
-3.31116,1.22681,
-3.30811,1.19781,
-3.31268,1.21613,
-3.31573,1.27411,
-3.32031,1.27258,
-3.32794,1.22528,
-3.33862,1.19171,
-3.34778,1.21918,
-3.36151,1.27411,
-3.37677,1.27411,
-3.38898,1.23291,
-3.40271,1.19324,
-3.42407,1.2207,
-3.44543,1.27563,
-3.46222,1.27411,
-3.48053,1.23444,
-3.49884,1.19781,
-3.5202,1.21765,
-3.53241,1.28174,
-3.55377,1.27411,
-3.57056,1.24359,
-3.58887,1.19629,
-3.59802,1.22223,
-3.61176,1.28326,
-3.62091,1.28021,
-3.62701,1.23596,
-3.6377,1.19171,
-3.64685,1.21918,
-3.65601,1.28632,
-3.65753,1.27716,
-3.66669,1.23749,
-3.67432,1.20087,
-3.68347,1.22528,
-3.68195,1.28326,
-3.68652,1.28174,
-3.6911,1.23901,
-3.69263,1.20697,
-3.6972,1.22681,
-3.70026,1.28479,
-3.69873,1.28326,
-3.70026,1.24359,
-3.70483,1.20697,
-3.70636,1.22986,
-3.70331,1.28784,
-3.70026,1.28632,
-3.70331,1.23596,
-3.70331,1.21002,
-3.70483,1.23138,
-3.70941,1.28784,
-3.70941,1.28632,
-3.71246,1.24969,
-3.72009,1.20544,
-3.72467,1.23291,
-3.73383,1.29089,
-3.73688,1.29089,
-3.73993,1.24512,
-3.74908,1.23596,
-3.75977,1.23444,
-3.76892,1.29242,
-3.7796,1.29242,
-3.79028,1.24817,
-3.79944,1.2146,
-3.80554,1.23138,
-3.81317,1.30463,
-3.8208,1.29242,
-3.83301,1.24512,
-3.83911,1.21307,
-3.84521,1.23596,
-3.85895,1.30157,
-3.87115,1.30463,
-3.88031,1.25427,
-3.89252,1.2558,
-3.90472,1.23291,
-3.91693,1.297,
-3.92914,1.29852,
-3.9444,1.25275,
-3.95966,1.2207,
-3.97491,1.24359,
-3.99628,1.30157,
-4.00848,1.28174,
-4.02527,1.25122,
-4.04358,1.21918,
-4.06494,1.24054,
-4.08478,1.30615,
-4.10767,1.30768,
-4.12903,1.23749,
-4.15192,1.22223,
-4.1748,1.24664,
-4.20227,1.30463,
-4.22363,1.30768,
-4.24652,1.25427,
-4.26941,1.22681,
-4.29535,1.24512,
-4.31824,1.3031,
-4.34265,1.30615,
-4.36859,1.25885,
-4.38538,1.2207,
-4.41589,1.24817,
-4.4342,1.30768,
-4.45862,1.31683,
-4.48456,1.26343,
-4.50592,1.22528,
-4.52423,1.24817,
-4.54712,1.3092,
-4.56543,1.30615,
-4.58527,1.26038,
-4.60358,1.22986,
-4.62036,1.25122,
-4.64478,1.30768,
-4.66156,1.31531,
-4.68292,1.26495,
-4.69818,1.22528,
-4.71954,1.2146,
-4.73785,1.31378,
-4.75769,1.32141,
-4.78363,1.26648,
-4.80347,1.23291,
-4.8233,1.24969,
-4.84314,1.31073,
-4.86145,1.30157,
-4.87976,1.25732,
-4.89807,1.22223,
-4.91943,1.2558,
-4.93317,1.31378,
-4.94995,1.31683,
-4.97131,1.26495,
-4.99115,1.21918,
-5.01099,1.25427,
-5.02625,1.31226,
-5.04303,1.31531,
-5.06439,1.26953,
-5.0827,1.23749,
-5.10406,1.25275,
-5.1239,1.31378,
-5.14069,1.31683,
-5.16357,1.30005,
-5.18188,1.2207,
-5.20325,1.25275,
-5.21698,1.31683,
-5.23529,1.31989,
-5.2536,1.27411,
-5.27191,1.24969,
-5.29022,1.25732,
-5.30853,1.31836,
-5.32227,1.32141,
-5.34058,1.27411,
-5.36194,1.24054,
-5.38177,1.25885,
-5.39703,1.31683,
-5.41687,1.32446,
-5.43518,1.28174,
-5.45807,1.24054,
-5.47485,1.26495,
-5.49469,1.31683,
-5.513,1.33362,
-5.53741,1.28021,
-5.55573,1.22986,
-5.57251,1.26343,
-5.59082,1.31683,
-5.60608,1.32904,
-5.61676,1.27716,
-5.63202,1.24054,
-5.65186,1.26648,
-5.66559,1.31531,
-5.68085,1.32446,
-5.69611,1.27563,
-5.71747,1.24512,
-5.73883,1.26038,
-5.75714,1.31836,
-5.77087,1.32904,
-5.79071,1.27563,
-5.81207,1.24512,
-5.82886,1.26343,
-5.85022,1.32141,
-5.867,1.32904,
-5.88531,1.28021,
-5.90057,1.24512,
-5.91278,1.26495,
-5.92957,1.32141,
-5.94635,1.33362,
-5.96466,1.27563,
-5.9845,1.24207,
-5.99823,1.26343,
-6.01349,1.31836,
-6.0318,1.33209,
-6.04553,1.27563,
-6.06079,1.24817,
-6.0791,1.26495,
-6.09894,1.31531,
-6.11115,1.31683,
-6.12793,1.28021,
-6.14471,1.24817,
-6.1615,1.26953,
-6.17218,1.32141,
-6.17981,1.33209,
-6.18134,1.28479,
-6.18591,1.25275,
-6.18134,1.26953,
-6.17523,1.33972,
-6.15692,1.33667,
-6.13708,1.28174,
-6.11115,1.24664,
-6.0791,1.26801,
-6.04248,1.31836,
-5.99823,1.33362,
-5.9494,1.28632,
-5.896,1.24817,
-5.85175,1.26801,
-5.79071,1.31683,
-5.73425,1.33514,
-5.67932,1.29089,
-5.62439,1.25122,
-5.56641,1.26953,
-5.50842,1.30157,
-5.44739,1.33362,
-5.38788,1.28479,
-5.33295,1.25275,
-5.28259,1.26953,
-5.22766,1.32141,
-5.17731,1.38245,
-5.12543,1.28632,
-5.07965,1.25122,
-5.03387,1.27106,
-4.98962,1.32141,
-4.9469,1.33972,
-4.90112,1.28479,
-4.8645,1.25427,
-4.83093,1.27258,
-4.79889,1.32599,
-4.76685,1.33667,
-4.73785,1.28479,
-4.71191,1.25732,
-4.6875,1.27258,
-4.66766,1.32294,
-4.64935,1.3382,
-4.62646,1.28479,
-4.61121,1.25275,
-4.599,1.27258,
-4.58069,1.32141,
-4.56848,1.33514,
-4.55627,1.28784,
-4.5517,1.24359,
-4.54407,1.27258,
-4.54407,1.32141,
-4.54407,1.34277,
-4.53644,1.28174,
-4.53949,1.25427,
-4.54254,1.27563,
-4.54254,1.31683,
-4.54559,1.33972,
-4.54407,1.28784,
-4.5517,1.2558,
-4.55933,1.27411,
-4.56848,1.31378,
-4.58069,1.35193,
-4.58984,1.28937,
-4.60205,1.25732,
-4.61731,1.28021,
-4.62646,1.32599,
-4.6402,1.34277,
-4.65393,1.28937,
-4.66614,1.25732,
-4.68445,1.27869,
-4.69055,1.31989,
-4.71191,1.34125,
-4.72107,1.29089,
-4.73022,1.25732,
-4.74701,1.28021,
-4.75311,1.32141,
-4.76074,1.34125,
-4.76837,1.28784,
-4.776,1.2558,
-4.78058,1.27716,
-4.78058,1.31531,
-4.78516,1.33972,
-4.7821,1.28784,
-4.78058,1.25885,
-4.77295,1.27716,
-4.7699,1.31836,
-4.76074,1.33667,
-4.75769,1.29089,
-4.74854,1.25427,
-4.74091,1.27563,
-4.7348,1.31073,
-4.72717,1.32904,
-4.7226,1.28479,
-4.71344,1.25122,
-4.70581,1.27106,
-4.6936,1.31226,
-4.6875,1.33362,
-4.68597,1.27869,
-4.67834,1.2558,
-4.67072,1.27411,
-4.66766,1.31073,
-4.66309,1.33057,
-4.66461,1.28632,
-4.65851,1.25427,
-4.65393,1.28021,
-4.65393,1.31226,
-4.6524,1.33209,
-4.6524,1.28632,
-4.65088,1.25427,
-4.65088,1.27563,
-4.6524,1.30463,
-4.65546,1.33057,
-4.65851,1.28479,
-4.66461,1.25427,
-4.67072,1.27563,
-4.67377,1.3092,
-4.67834,1.32904,
-4.6814,1.28326,
-4.68292,1.2558,
-4.68903,1.27563,
-4.6875,1.30463,
-4.69513,1.33057,
-4.70276,1.28479,
-4.71191,1.25732,
-4.71649,1.26648,
-4.72565,1.35651,
-4.7348,1.30768,
-4.74854,1.28326,
-4.75922,1.25122,
-4.7699,1.28021,
-4.78363,1.30157,
-4.79431,1.33057,
-4.80652,1.30157,
-4.82483,1.25275,
-4.83398,1.27258,
-4.84924,1.30615,
-4.86755,1.33057,
-4.87823,1.28326,
-4.90265,1.25885,
-4.92096,1.27258,
-4.93622,1.30157,
-4.94995,1.32599,
-4.96368,1.28174,
-4.97894,1.25427,
-4.99573,1.27411,
-5.01099,1.29852,
-5.02777,1.32599,
-5.03998,1.28784,
-5.06134,1.25275,
-5.07507,1.27258,
-5.09338,1.3031,
-5.10406,1.32599,
-5.11932,1.28479,
-5.13763,1.25732,
-5.15289,1.27716,
-5.17273,1.30157,
-5.18799,1.32141,
-5.20172,1.28632,
-5.21851,1.25732,
-5.23682,1.27106,
-5.25208,1.3031,
-5.26428,1.32446,
-5.27954,1.28479,
-5.29785,1.26343,
-5.31158,1.25275,
-5.32532,1.30768,
-5.34058,1.32446,
-5.34973,1.28784,
-5.36194,1.25885,
-5.3772,1.27258,
-5.3894,1.29852,
-5.40314,1.31836,
-5.41687,1.30005,
-5.42908,1.25427,
-5.44586,1.27411,
-5.45654,1.29852,
-5.4657,1.31989,
-5.48248,1.28937,
-5.49164,1.25427,
-5.50232,1.27411,
-5.51453,1.30005,
-5.52368,1.31836,
-5.53436,1.28937,
-5.54657,1.25885,
-5.55725,1.27106,
-5.56793,1.30157,
-5.57556,1.31989,
-5.58472,1.28784,
-5.59387,1.25275,
-5.6015,1.27869,
-5.61066,1.30157,
-5.61981,1.29089,
-5.62439,1.28632,
-5.6366,1.25427,
-5.64423,1.27258,
-5.65338,1.3031,
-5.66254,1.32294,
-5.6778,1.28021,
-5.68542,1.25427,
-5.69458,1.26953,
-5.70374,1.29242,
-5.71442,1.31378,
-5.72052,1.28784,
-5.72662,1.25275,
-5.73883,1.26953,
-5.74646,1.30157,
-5.75409,1.31531,
-5.7663,1.29089,
-5.77393,1.25122,
-5.78461,1.27869,
-5.79224,1.29547,
-5.79834,1.31226,
-5.80292,1.28632,
-5.81818,1.24969,
-5.83038,1.26801,
-5.83801,1.29242,
-5.84869,1.31378,
-5.85632,1.28784,
-5.86548,1.25122,
-5.87311,1.26801,
-5.88226,1.28937,
-5.88989,1.31226,
-5.89752,1.28632,
-5.90515,1.24817,
-5.91125,1.26801,
-5.91736,1.29547,
-5.92041,1.31226,
-5.92804,1.28479,
-5.93262,1.24969,
-5.93719,1.26801,
-5.9494,1.29547,
-5.95398,1.31378,
-5.96466,1.28479,
-5.97382,1.24512,
-5.9845,1.26343,
-5.99365,1.3031,
-6.00433,1.30615,
-6.01349,1.28479,
-6.02112,1.25122,
-6.03027,1.26953,
-6.0379,1.29089,
-6.03943,1.29089,
-6.04553,1.28479,
-6.04858,1.24207,
-6.04858,1.26495,
-6.03943,1.2558,
-6.02875,1.3031,
-6.00891,1.28632,
-5.9845,1.24817,
-5.9494,1.26648,
-5.90973,1.28937,
-5.867,1.31378,
-5.81665,1.28784,
-5.76019,1.24664,
-5.70221,1.26648,
-5.6366,1.29242,
-5.56793,1.31683,
-5.50537,1.28784,
-5.43976,1.25122,
-5.36194,1.26648,
-5.28412,1.29089,
-5.2124,1.31073,
-5.13916,1.28479,
-5.06439,1.24817,
-4.99115,1.26038,
-4.91791,1.29089,
-4.85229,1.30615,
-4.78516,1.28479,
-4.71649,1.25275,
-4.65698,1.26648,
-4.59137,1.29089,
-4.52881,1.3092,
-4.47693,1.28479,
-4.422,1.24817,
-4.36859,1.26038,
-4.32129,1.28784,
-4.27399,1.30615,
-4.22821,1.28479,
-4.18091,1.24817,
-4.13971,1.26038,
-4.09698,1.28479,
-4.05273,1.30157,
-4.01764,1.28021,
-3.97949,1.24512,
-3.94287,1.26648,
-3.90625,1.28326,
-3.87115,1.30005,
-3.84369,1.28174,
-3.81165,1.24512,
-3.78418,1.25732,
-3.75519,1.28479,
-3.73383,1.31226,
-3.71094,1.28326,
-3.68805,1.24054,
-3.66211,1.2558,
-3.63922,1.28479,
-3.61938,1.3031,
-3.59344,1.28326,
-3.57056,1.24054,
-3.55377,1.2558,
-3.53394,1.28479,
-3.5141,1.31073,
-3.49579,1.27869,
-3.47748,1.24512,
-3.46375,1.25275,
-3.45154,1.28479,
-3.44238,1.30157,
-3.43018,1.28632,
-3.42102,1.24207,
-3.41492,1.25275,
-3.39966,1.28326,
-3.39661,1.30463,
-3.3905,1.28479,
-3.38593,1.24359,
-3.37982,1.22375,
-3.37524,1.28326,
-3.36456,1.3031,
-3.35388,1.28479,
-3.34015,1.24054,
-3.33252,1.25427,
-3.32794,1.28632,
-3.32336,1.29852,
-3.30963,1.32599,
-3.302,1.2558,
-3.28979,1.25122,
-3.28064,1.28174,
-3.27148,1.30157,
-3.26233,1.28784,
-3.25165,1.24207,
-3.23944,1.25122,
-3.22418,1.27869,
-3.2135,1.26343,
-3.19977,1.28479,
-3.18604,1.23901,
-3.17688,1.24969,
-3.1662,1.28326,
-3.15704,1.30005,
-3.14636,1.28326,
-3.13416,1.23749,
-3.12347,1.25122,
-3.11432,1.28174,
-3.10516,1.29852,
-3.10059,1.28326,
-3.09296,1.23749,
-3.0899,1.24817,
-3.0838,1.26953,
-3.07617,1.30005,
-3.07159,1.28479,
-3.06396,1.24054,
-3.05634,1.24969,
-3.05481,1.27716,
-3.05023,1.30157,
-3.04718,1.29547,
-3.04565,1.24207,
-3.04565,1.24969,
-3.04413,1.28021,
-3.04108,1.297,
-3.03497,1.28479,
-3.03802,1.24207,
-3.0426,1.24817,
-3.04108,1.28632,
-3.0426,1.29547,
-3.03802,1.27258,
-3.03955,1.23749,
-3.03802,1.24512,
-3.03497,1.26953,
-3.03802,1.30005,
-3.04108,1.27258,
-3.04413,1.23444,
-3.04871,1.24664,
-3.05023,1.27716,
-3.05634,1.29547,
-3.06549,1.28174,
-3.07617,1.23596,
-3.08533,1.24359,
-3.09753,1.27411,
-3.10211,1.29547,
-3.11127,1.27716,
-3.125,1.23749,
-3.13873,1.24207,
-3.15094,1.27258,
-3.1662,1.29089,
-3.17841,1.27563,
-3.19366,1.22375,
-3.2074,1.23596,
-3.21655,1.26953,
-3.22876,1.27563,
-3.24097,1.24817,
-3.2547,1.22375,
-3.27301,1.23138,
-3.28674,1.26801,
-3.29895,1.28479,
-3.31268,1.27563,
-3.32336,1.22681,
-3.34167,1.23901,
-3.35236,1.26953,
-3.35846,1.28021,
-3.3783,1.27716,
-3.39508,1.21918,
-3.40576,1.23291,
-3.42102,1.26648,
-3.43018,1.28937,
-3.44543,1.27563,
-3.46069,1.26495,
-3.47443,1.23291,
-3.48511,1.27411,
-3.49884,1.28174,
-3.51257,1.27411,
-3.52325,1.22375,
-3.53699,1.23291,
-3.54767,1.26495,
-3.55988,1.28174,
-3.57056,1.27258,
-3.58582,1.2207,
-3.6026,1.23138,
-3.61786,1.26801,
-3.62854,1.28326,
-3.6438,1.27716,
-3.65753,1.2207,
-3.67126,1.23291,
-3.68195,1.27563,
-3.69415,1.28479,
-3.70483,1.27563,
-3.71246,1.22528,
-3.72314,1.23138,
-3.7323,1.26648,
-3.73993,1.28326,
-3.74908,1.27563,
-3.76282,1.21918,
-3.77045,1.22681,
-3.77808,1.26801,
-3.78571,1.27869,
-3.79486,1.25122,
-3.80249,1.21765,
-3.81165,1.22375,
-3.82385,1.26801,
-3.83301,1.28937,
-3.84216,1.26801,
-3.84827,1.21918,
-3.86505,1.22681,
-3.87115,1.26038,
-3.88031,1.28174,
-3.88794,1.27563,
-3.89862,1.21613,
-3.91083,1.22375,
-3.91846,1.2558,
-3.92761,1.28174,
-3.93372,1.26648,
-3.9444,1.21002,
-3.95966,1.22375,
-3.97034,1.2558,
-3.98254,1.27869,
-3.99323,1.26801,
-4.00085,1.21613,
-4.01306,1.21765,
-4.02374,1.25275,
-4.03442,1.27869,
-4.04053,1.26801,
-4.04968,1.21002,
-4.06494,1.21765,
-4.0741,1.25732,
-4.08478,1.27716,
-4.09698,1.26495,
-4.10919,1.21155,
-4.11835,1.21613,
-4.12292,1.25122,
-4.13818,1.27716,
-4.15192,1.26343,
-4.15955,1.21155,
-4.17175,1.20239,
-4.18549,1.25427,
-4.19922,1.27411,
-4.21448,1.25885,
-4.23126,1.21002,
-4.245,1.21155,
-4.2572,1.24817,
-4.27094,1.27106,
-4.28314,1.25885,
-4.29688,1.21002,
-4.31213,1.21002,
-4.32587,1.24817,
-4.3396,1.27563,
-4.35333,1.2558,
-4.37469,1.20544,
-4.38385,1.21918,
-4.39453,1.22223,
-4.40216,1.27563,
-4.40674,1.25427,
-4.40979,1.20392,
-4.40979,1.2085,
-4.39758,1.24512,
-4.38385,1.25122,
-4.36554,1.30615,
-4.33807,1.20697,
-4.30298,1.21307,
-4.26483,1.24359,
-4.21906,1.27411,
-4.16412,1.24969,
-4.10461,1.20239,
-4.04663,1.20697,
-3.98254,1.26953,
-3.91541,1.27106,
-3.84979,1.24969,
-3.78418,1.20087,
-3.70941,1.19934,
-3.64227,1.25122,
-3.57056,1.27411,
-3.50189,1.24817,
-3.43628,1.19934,
-3.37677,1.20544,
-3.32031,1.24817,
-3.26233,1.2558,
-3.20892,1.2558,
-3.15552,1.19934,
-3.10669,1.20239,
-3.05786,1.24359,
-3.01208,1.26801,
-2.97089,1.24664,
-2.93579,1.2085,
-2.89764,1.20697,
-2.86255,1.23749,
-2.82745,1.26495,
-2.80151,1.23444,
-2.771,1.19629,
-2.742,1.19934,
-2.71759,1.24054,
-2.69623,1.26953,
-2.67487,1.24664,
-2.65808,1.19781,
-2.6413,1.19629,
-2.62604,1.23901,
-2.61078,1.26801,
-2.6001,1.23901,
-2.58942,1.19324,
-2.58331,1.19324,
-2.57721,1.23749,
-2.57111,1.27106,
-2.565,1.24207,
-2.565,1.19171,
-2.56348,1.19019,
-2.56653,1.22681,
-2.56805,1.26038,
-2.57111,1.24512,
-2.57416,1.19019,
-2.57568,1.18866,
-2.57721,1.23138,
-2.58331,1.25885,
-2.58942,1.2207,
-2.59705,1.18866,
-2.60315,1.19781,
-2.61078,1.22681,
-2.62146,1.24207,
-2.63062,1.21002,
-2.63977,1.1734,
-2.65198,1.19019,
-2.66418,1.22375,
-2.67334,1.25732,
-2.68555,1.23901,
-2.69318,1.18408,
-2.70386,1.24054,
-2.71301,1.22223,
-2.72217,1.24817,
-2.72827,1.23596,
-2.73438,1.18408,
-2.74048,1.18256,
-2.73895,1.21307,
-2.74048,1.25732,
-2.73895,1.23138,
-2.73895,1.18103,
-2.74048,1.18561,
-2.73285,1.22223,
-2.7298,1.25732,
-2.72522,1.23596,
-2.72369,1.18561,
-2.71912,1.18103,
-2.71149,1.2207,
-2.69928,1.2558,
-2.6947,1.23138,
-2.68555,1.18256,
-2.67487,1.1795,
-2.66724,1.21765,
-2.65961,1.25122,
-2.64435,1.22681,
-2.63519,1.18256,
-2.62756,1.1795,
-2.61688,1.21918,
-2.60315,1.25122,
-2.59247,1.22528,
-2.58331,1.18103,
-2.57111,1.1795,
-2.56348,1.21613,
-2.55585,1.24664,
-2.54974,1.23138,
-2.54211,1.17645,
-2.53754,1.17798,
-2.53448,1.22223,
-2.52991,1.24664,
-2.52228,1.22528,
-2.52075,1.16577,
-2.51312,1.17493,
-2.50854,1.2146,
-2.50854,1.24664,
-2.50702,1.20087,
-2.50702,1.17188,
-2.51312,1.17493,
-2.51312,1.2146,
-2.51617,1.24512,
-2.51923,1.22223,
-2.52228,1.1734,
-2.52991,1.17188,
-2.53296,1.21002,
-2.53906,1.24359,
-2.54211,1.21765,
-2.55127,1.17035,
-2.55737,1.17493,
-2.56653,1.20697,
-2.57263,1.24207,
-2.58331,1.2146,
-2.58789,1.1673,
-2.59399,1.1673,
-2.60315,1.20697,
-2.6062,1.24207,
-2.61841,1.21765,
-2.63367,1.16577,
-2.63977,1.17035,
-2.65045,1.2085,
-2.66418,1.23291,
-2.67181,1.21765,
-2.67944,1.17645,
-2.6947,1.16577,
-2.70386,1.20697,
-2.71454,1.24512,
-2.72522,1.21613,
-2.74048,1.15662,
-2.75726,1.16577,
-2.77252,1.20239,
-2.78931,1.23749,
-2.80304,1.21155,
-2.8183,1.1673,
-2.83203,1.16577,
-2.84576,1.19934,
-2.86102,1.24664,
-2.87628,1.20697,
-2.88696,1.16425,
-2.9068,1.15967,
-2.91901,1.20239,
-2.93579,1.23138,
-2.94495,1.21002,
-2.95868,1.16577,
-2.97089,1.15509,
-2.98615,1.20392,
-2.99988,1.22986,
-3.00903,1.20544,
-3.02429,1.16425,
-3.03802,1.15662,
-3.05176,1.19934,
-3.06396,1.22986,
-3.08075,1.20087,
-3.08838,1.15814,
-3.10974,1.15662,
-3.12195,1.19934,
-3.13263,1.22681,
-3.14636,1.20392,
-3.15857,1.17035,
-3.17688,1.16425,
-3.18909,1.19934,
-3.2074,1.23596,
-3.22113,1.19781,
-3.23029,1.15356,
-3.24097,1.14288,
-3.2547,1.19781,
-3.26385,1.22986,
-3.27759,1.19934,
-3.28827,1.15356,
-3.302,1.15356,
-3.31116,1.17645,
-3.31879,1.22681,
-3.33405,1.19324,
-3.3432,1.14899,
-3.35541,1.15204,
-3.36456,1.20239,
-3.37524,1.22681,
-3.38745,1.19629,
-3.39508,1.15051,
-3.40118,1.15509,
-3.41034,1.18866,
-3.42407,1.21918,
-3.43323,1.19171,
-3.44391,1.15204,
-3.45612,1.15204,
-3.46527,1.19324,
-3.48206,1.20697,
-3.49121,1.16425,
-3.50952,1.15051,
-3.52173,1.14899,
-3.53241,1.19629,
-3.54614,1.22681,
-3.55682,1.18561,
-3.5675,1.15204,
-3.57361,1.15814,
-3.59039,1.22681,
-3.6026,1.21765,
-3.62244,1.18713,
-3.63312,1.14899,
-3.65143,1.14594,
-3.66669,1.19019,
-3.67737,1.21002,
-3.69263,1.19019,
-3.70636,1.15051,
-3.72467,1.14746,
-3.73383,1.19019,
-3.74908,1.21613,
-3.76434,1.18408,
-3.7796,1.15051,
-3.79333,1.14746,
-3.80402,1.18866,
-3.8208,1.21613,
-3.83148,1.1795,
-3.84521,1.14746,
-3.86505,1.14136,
-3.87878,1.18866,
-3.89862,1.21765,
-3.9093,1.18408,
-3.92456,1.14899,
-3.93219,1.14288,
-3.93982,1.18866,
-3.94287,1.2207,
-3.93829,1.1795,
-3.93219,1.14441,
-3.92151,1.14594,
-3.9032,1.18713,
-3.87878,1.21307,
-3.84979,1.17645,
-3.81775,1.13678,
-3.77808,1.1261,
-3.73077,1.19171,
-3.68347,1.21918,
-3.62854,1.17645,
-3.57513,1.13831,
-3.52173,1.13373,
-3.46375,1.18408,
-3.40576,1.21613,
-3.3432,1.17493,
-3.28522,1.13678,
-3.22418,1.13983,
-3.16467,1.18866,
-3.10211,1.21002,
-3.0426,1.17645,
-2.99377,1.13373,
-2.93579,1.13831,
-2.88696,1.18561,
-2.84424,1.2146,
-2.79388,1.17493,
-2.75269,1.13831,
-2.71149,1.13831,
-2.67181,1.18256,
-2.63367,1.2146,
-2.6001,1.17645,
-2.565,1.13831,
-2.53601,1.13678,
-2.50854,1.18408,
-2.48108,1.21765,
-2.45514,1.17645,
-2.4292,1.13525,
-2.40326,1.13678,
-2.38495,1.16882,
-2.36053,1.21155,
-2.3468,1.17035,
-2.33002,1.13678,
-2.31323,1.13525,
-2.3056,1.1795,
-2.29034,1.21155,
-2.28119,1.17035,
-2.27814,1.14136,
-2.27051,1.12,
-2.26135,1.1734,
-2.26135,1.21002,
-2.2644,1.17035,
-2.26593,1.13678,
-2.27051,1.13678,
-2.27203,1.1795,
-2.27509,1.2146,
-2.28119,1.15967,
-2.28729,1.13373,
-2.2934,1.13068,
-2.30103,1.17645,
-2.31476,1.21002,
-2.32544,1.16272,
-2.33307,1.13831,
-2.3468,1.14288,
-2.35291,1.17645,
-2.36511,1.2085,
-2.36816,1.15967,
-2.38342,1.13373,
-2.39258,1.1322,
-2.40479,1.17798,
-2.41852,1.20697,
-2.42767,1.15967,
-2.4353,1.13373,
-2.44598,1.12762,
-2.44751,1.17188,
-2.45056,1.20697,
-2.45514,1.15356,
-2.45514,1.12152,
-2.45667,1.1322,
-2.45361,1.17188,
-2.44904,1.20544,
-2.44751,1.16272,
-2.44751,1.12457,
-2.44293,1.13068,
-2.44293,1.17035,
-2.43378,1.20392,
-2.43225,1.15814,
-2.42615,1.12,
-2.41852,1.13373,
-2.41547,1.17035,
-2.41241,1.20087,
-2.40936,1.15662,
-2.39716,1.12457,
-2.39258,1.1261,
-2.38647,1.17188,
-2.38037,1.20239,
-2.37427,1.15662,
-2.36206,1.12457,
-2.35596,1.1261,
-2.35596,1.17035,
-2.35138,1.20087,
-2.34222,1.15662,
-2.33307,1.12305,
-2.32849,1.12762,
-2.32239,1.17035,
-2.31628,1.20239,
-2.31628,1.15662,
-2.31323,1.12762,
-2.31018,1.12152,
-2.30103,1.1734,
-2.30103,1.20087,
-2.30103,1.15509,
-2.30255,1.11847,
-2.30255,1.1261,
-2.30865,1.17188,
-2.31323,1.20544,
-2.31171,1.15509,
-2.31628,1.1261,
-2.31781,1.12152,
-2.32086,1.16882,
-2.32239,1.20087,
-2.32849,1.15662,
-2.33612,1.12457,
-2.3468,1.1261,
-2.35596,1.17035,
-2.36816,1.19934,
-2.38037,1.15967,
-2.39258,1.12762,
-2.40631,1.12,
-2.42004,1.16577,
-2.43225,1.19781,
-2.44293,1.15662,
-2.46124,1.12457,
-2.47345,1.12152,
-2.48871,1.16577,
-2.49939,1.19781,
-2.51312,1.15662,
-2.52228,1.12305,
-2.53296,1.12305,
-2.54822,1.1734,
-2.56042,1.19934,
-2.57416,1.15814,
-2.59247,1.12305,
-2.60468,1.12152,
-2.61993,1.16272,
-2.63367,1.20087,
-2.64435,1.16425,
-2.65503,1.11694,
-2.67029,1.12152,
-2.67944,1.16882,
-2.69775,1.19629,
-2.70844,1.15967,
-2.72827,1.11694,
-2.742,1.12152,
-2.75421,1.15967,
-2.77405,1.19019,
-2.79083,1.16272,
-2.80914,1.11847,
-2.82898,1.15204,
-2.84729,1.16272,
-2.8656,1.19171,
-2.88086,1.15814,
-2.89764,1.11084,
-2.9129,1.12,
-2.92816,1.16272,
-2.94037,1.19629,
-2.9541,1.15967,
-2.97394,1.11084,
-2.99072,1.11847,
-3.01056,1.16425,
-3.02734,1.19171,
-3.03802,1.15967,
-3.05634,1.10321,
-3.07465,1.11542,
-3.09143,1.16425,
-3.10669,1.19171,
-3.1189,1.16272,
-3.13568,1.10321,
-3.15552,1.11389,
-3.17078,1.15356,
-3.18756,1.19019,
-3.20435,1.16577,
-3.22418,1.11237,
-3.24249,1.11847,
-3.2547,1.16577,
-3.27301,1.1795,
-3.28369,1.16882,
-3.29742,1.11084,
-3.31268,1.11542,
-3.32184,1.15814,
-3.33862,1.19324,
-3.35388,1.16882,
-3.36761,1.10626,
-3.38135,1.11542,
-3.39661,1.15509,
-3.41187,1.19019,
-3.41949,1.16425,
-3.43018,1.10626,
-3.44696,1.10626,
-3.45612,1.21002,
-3.46985,1.18408,
-3.48358,1.17035,
-3.49731,1.10626,
-3.51105,1.11389,
-3.51715,1.15509,
-3.53088,1.18713,
-3.54614,1.16882,
-3.55682,1.10931,
-3.57056,1.10779,
-3.58124,1.15662,
-3.59039,1.19019,
-3.59802,1.16425,
-3.59955,1.10931,
-3.60718,1.11389,
-3.61328,1.15051,
-3.60565,1.19019,
-3.59802,1.16882,
-3.58582,1.10779,
-3.57056,1.11694,
-3.54919,1.15509,
-3.51868,1.18561,
-3.48206,1.16882,
-3.44238,1.10931,
-3.39355,1.11542,
-3.3493,1.15509,
-3.29132,1.18713,
-3.23792,1.1673,
-3.17688,1.11084,
-3.11432,1.11389,
-3.05023,1.15509,
-2.98767,1.18408,
-2.92053,1.16882,
-2.85034,1.11084,
-2.78015,1.11389,
-2.71454,1.15509,
-2.64282,1.18561,
-2.56958,1.1673,
-2.49481,1.10931,
-2.42462,1.11694,
-2.35138,1.15662,
-2.28271,1.18256,
-2.21405,1.16882,
-2.15302,1.10931,
-2.0874,1.11542,
-2.02484,1.15356,
-1.96838,1.19019,
-1.91345,1.16882,
-1.86157,1.10779,
-1.80817,1.11389,
-1.75171,1.15356,
-1.70288,1.18408,
-1.65863,1.1673,
-1.6098,1.10321,
-1.56708,1.11542,
-1.52283,1.15204,
-1.48163,1.18866,
-1.43738,1.17035,
-1.40381,1.10626,
-1.36566,1.11542,
-1.33209,1.15204,
-1.30463,1.20239,
-1.28174,1.16577,
-1.2558,1.11237,
-1.23749,1.11389,
-1.22375,1.15204,
-1.20697,1.18561,
-1.19476,1.16882,
-1.18866,1.11237,
-1.17645,1.10016,
-1.17188,1.15814,
-1.16425,1.19019,
-1.16425,1.17035,
-1.16119,1.10474,
-1.16119,1.11694,
-1.16425,1.14899,
-1.17035,1.18561,
-1.1673,1.17035,
-1.1734,1.09863,
-1.18103,1.11542,
-1.18866,1.15509,
-1.19171,1.18866,
-1.19629,1.1673,
-1.20697,1.10474,
-1.2085,1.11237,
-1.21918,1.16272,
-1.22223,1.19781,
-1.23138,1.17493,
-1.23444,1.10474,
-1.24359,1.11389,
-1.24512,1.16272,
-1.25122,1.18866,
-1.25275,1.1734,
-1.25275,1.10779,
-1.24969,1.11389,
-1.24969,1.17035,
-1.24969,1.19934,
-1.24359,1.1734,
-1.24359,1.10779,
-1.24207,1.11237,
-1.23444,1.15356,
-1.22681,1.18713,
-1.22375,1.17188,
-1.21765,1.10931,
-1.21002,1.11389,
-1.20239,1.16272,
-1.19781,1.18713,
-1.19171,1.17493,
-1.18866,1.10779,
-1.18561,1.11389,
-1.17798,1.15967,
-1.1673,1.19019,
-1.15662,1.16882,
-1.14746,1.11084,
-1.14288,1.11694,
-1.13831,1.15814,
-1.12762,1.18713,
-1.12,1.17645,
-1.11542,1.11084,
-1.10779,1.11389,
-1.09558,1.15814,
-1.091,1.19171,
-1.08185,1.17645,
-1.07422,1.11084,
-1.07269,1.11542,
-1.06506,1.16272,
-1.06201,1.19629,
-1.05743,1.17493,
-1.05438,1.11389,
-1.05286,1.11542,
-1.05438,1.16272,
-1.05133,1.18103,
-1.0498,1.18103,
-1.05286,1.11237,
-1.05286,1.11237,
-1.05438,1.16425,
-1.05896,1.19781,
-1.06049,1.16425,
-1.06201,1.11694,
-1.07422,1.11847,
-1.08185,1.16577,
-1.08948,1.19781,
-1.09253,1.17645,
-1.10321,1.11847,
-1.10931,1.12152,
-1.12152,1.15814,
-1.1322,1.19019,
-1.15509,1.18408,
-1.16577,1.12,
-1.18256,1.12305,
-1.19629,1.17035,
-1.21307,1.19934,
-1.23138,1.18561,
-1.24969,1.12457,
-1.27106,1.12457,
-1.28632,1.17035,
-1.3031,1.20239,
-1.31836,1.18713,
-1.3382,1.12457,
-1.36261,1.12457,
-1.38245,1.1734,
-1.40228,1.21307,
-1.42212,1.19324,
-1.43738,1.12305,
-1.45721,1.12152,
-1.47705,1.17493,
-1.49841,1.20544,
-1.51215,1.19324,
-1.53198,1.12457,
-1.55182,1.12457,
-1.57013,1.1734,
-1.59149,1.20544,
-1.61285,1.19019,
-1.63269,1.1261,
-1.64948,1.1261,
-1.67389,1.17493,
-1.6922,1.21002,
-1.71204,1.19019,
-1.7334,1.12762,
-1.75629,1.12152,
-1.77307,1.15051,
-1.79443,1.19629,
-1.81274,1.19781,
-1.83411,1.13068,
-1.85242,1.13983,
-1.87225,1.17798,
-1.89056,1.2146,
-1.91193,1.22528,
-1.93481,1.13068,
-1.95618,1.1322,
-1.97296,1.18408,
-1.98822,1.21307,
-2.005,1.19781,
-2.01874,1.13831,
-2.03857,1.1322,
-2.05383,1.18408,
-2.07062,1.21613,
-2.08893,1.20239,
-2.10724,1.13678,
-2.1225,1.13678,
-2.13928,1.18713,
-2.15149,1.21765,
-2.1637,1.20087,
-2.17896,1.13983,
-2.19421,1.13678,
-2.20795,1.18561,
-2.22626,1.21613,
-2.24152,1.20239,
-2.25372,1.14136,
-2.27356,1.13068,
-2.28271,1.16425,
-2.29187,1.22223,
-2.30255,1.20544,
-2.31934,1.14441,
-2.33307,1.14594,
-2.34833,1.19019,
-2.35596,1.21613,
-2.37427,1.2085,
-2.3819,1.14594,
-2.40021,1.14594,
-2.41241,1.19019,
-2.42462,1.22528,
-2.43835,1.2085,
-2.45209,1.14441,
-2.46887,1.14288,
-2.48566,1.19324,
-2.49634,1.22681,
-2.50854,1.2085,
-2.52075,1.14746,
-2.53448,1.14899,
-2.53754,1.19171,
-2.54669,1.22681,
-2.54364,1.21613,
-2.54211,1.14136,
-2.53296,1.14899,
-2.52075,1.20087,
-2.49176,1.22681,
-2.46735,1.21307,
-2.43073,1.15509,
-2.39258,1.15662,
-2.34528,1.19934,
-2.2934,1.21765,
-2.23846,1.2146,
-2.17896,1.15814,
-2.11334,1.15204,
-2.04468,1.20239,
-1.97144,1.23291,
-1.89972,1.21613,
-1.82495,1.15967,
-1.74561,1.15204,
-1.66473,1.20544,
-1.58539,1.23596,
-1.50146,1.21918,
-1.41907,1.16577,
-1.32904,1.15204,
-1.24512,1.20697,
-1.16119,1.23749,
-1.07574,1.21918,
-0.996399,1.16577,
-0.912476,1.15509,
-0.834656,1.20392,
-0.761414,1.24207,
-0.682068,1.22375,
-0.611877,1.16425,
-0.543213,1.15204,
-0.479126,1.2085,
-0.419617,1.23749,
-0.358582,1.22223,
-0.300598,1.17188,
-0.248718,1.15662,
-0.198364,1.2085,
-0.149536,1.24207,
-0.102234,1.22375,
-0.0610352,1.16882,
-0.0213623,1.15662,
0.0213623,1.21155,
0.0534058,1.24054,
0.0869751,1.22223,
0.115967,1.1734,
0.138855,1.15662,
0.161743,1.21002,
0.184631,1.24207,
0.201416,1.22375,
0.213623,1.17493,
0.218201,1.15967,
0.224304,1.21155,
0.227356,1.24054,
0.230408,1.22528,
0.230408,1.1795,
0.227356,1.16272,
0.221252,1.2146,
0.213623,1.24054,
0.20752,1.22528,
0.198364,1.17493,
0.186157,1.16577,
0.175476,1.21155,
0.163269,1.24664,
0.144958,1.22986,
0.134277,1.1795,
0.115967,1.16882,
0.100708,1.21307,
0.0869751,1.24817,
0.0808716,1.22681,
0.0640869,1.17645,
0.0534058,1.1673,
0.0473022,1.21613,
0.038147,1.24207,
0.0274658,1.22681,
0.0167847,1.18561,
0.00915527,1.1673,
0.00457764,1.20087,
0.00152588,1.24664,
-0.00457764,1.22986,
-0.00457764,1.18561,
-0.0106812,1.17188,
-0.0106812,1.21307,
-0.00915527,1.24817,
-0.00305176,1.22681,
-0.00305176,1.18256,
-0.00305176,1.1673,
0,1.21765,
0.00152588,1.24664,
0.00305176,1.23138,
0.00457764,1.18713,
0.00610352,1.17645,
0.00762939,1.22528,
0.00915527,1.24359,
0.00915527,1.23291,
0.0152588,1.19019,
0.0167847,1.16882,
0.0213623,1.22986,
0.0259399,1.24969,
0.0274658,1.23138,
0.0366211,1.18561,
0.0442505,1.16882,
0.0473022,1.21765,
0.0579834,1.24359,
0.0595093,1.23138,
0.062561,1.18561,
0.0701904,1.1734,
0.0671387,1.21765,
0.0701904,1.24664,
0.0717163,1.23596,
0.0671387,1.18713,
0.062561,1.15814,
0.062561,1.22223,
0.0534058,1.23596,
0.0488281,1.22986,
0.0457764,1.19019,
0.0396729,1.16882,
0.0305176,1.22223,
0.0213623,1.25122,
0.012207,1.23291,
0.00305176,1.19019,
-0.0106812,1.17798,
-0.0244141,1.2558,
-0.0366211,1.26953,
-0.0534058,1.23749,
-0.0671387,1.19629,
-0.0793457,1.17798,
-0.0915527,1.22223,
-0.111389,1.24969,
-0.126648,1.23291,
-0.14801,1.19171,
-0.169373,1.17798,
-0.189209,1.22223,
-0.213623,1.25122,
-0.236511,1.24207,
-0.267029,1.19629,
-0.297546,1.17035,
-0.323486,1.22223,
-0.349426,1.24512,
-0.376892,1.23291,
-0.410461,1.20087,
-0.434875,1.17493,
-0.457764,1.21155,
-0.488281,1.25275,
-0.514221,1.21307,
-0.541687,1.19171,
-0.566101,1.17035,
-0.593567,1.21765,
-0.617981,1.24207,
-0.645447,1.23444,
-0.669861,1.19781,
-0.692749,1.17188,
-0.724792,1.2207,
-0.746155,1.25122,
-0.770569,1.23291,
-0.785828,1.20087,
-0.813293,1.17645,
-0.834656,1.21765,
-0.857544,1.24817,
-0.880432,1.22986,
-0.901794,1.19934,
-0.927734,1.17188,
-0.950623,1.21765,
-0.975037,1.24664,
-0.996399,1.22986,
-1.02081,1.19934,
-1.04675,1.17645,
-1.07117,1.2207,
-1.09711,1.24512,
-1.12152,1.22681,
-1.14746,1.20087,
-1.17035,1.17798,
-1.19476,1.21765,
-1.21765,1.24359,
-1.24512,1.23138,
-1.26953,1.19934,
-1.28632,1.1734,
-1.31073,1.21613,
-1.33209,1.24359,
-1.35345,1.22375,
-1.37939,1.20239,
-1.39923,1.18103,
-1.42212,1.21613,
-1.44043,1.24969,
-1.46332,1.23901,
-1.48621,1.19934,
-1.50604,1.17798,
-1.52435,1.2146,
-1.54266,1.24664,
-1.56555,1.22223,
-1.58539,1.19934,
-1.60828,1.1795,
-1.62659,1.22223,
-1.64948,1.25275,
-1.66779,1.22528,
-1.69067,1.20087,
-1.70746,1.1734,
-1.73035,1.21613,
-1.75018,1.24359,
-1.76849,1.22375,
-1.78528,1.2146,
-1.80511,1.17798,
-1.82037,1.21307,
-1.83563,1.27716,
-1.85394,1.22223,
-1.87378,1.19629,
-1.89362,1.17645,
-1.91345,1.21765,
-1.93481,1.24207,
-1.95465,1.22375,
-1.97601,1.19019,
-2.00043,1.16577,
-2.02026,1.21307,
-2.0401,1.24054,
-2.05383,1.23138,
-2.0752,1.19629,
-2.09045,1.17645,
-2.10266,1.21155,
-2.10876,1.23749,
-2.11182,1.19629,
-2.11182,1.19781,
-2.10114,1.17798,
-2.08588,1.21002,
-2.05841,1.24054,
-2.02637,1.2207,
-1.98822,1.20087,
-1.94397,1.1795,
-1.88904,1.21002,
-1.83563,1.24054,
-1.77307,1.22528,
-1.70593,1.19629,
-1.63727,1.17645,
-1.56555,1.2085,
-1.48163,1.23901,
-1.39771,1.21918,
-1.31073,1.19629,
-1.2146,1.17645,
-1.12,1.2085,
-1.02386,1.23444,
-0.923157,1.23291,
-0.828552,1.19781,
-0.733948,1.18561,
-0.639343,1.20697,
-0.541687,1.23444,
-0.450134,1.22681,
-0.350952,1.18561,
-0.259399,1.17493,
-0.166321,1.20697,
-0.0793457,1.23596,
0.00457764,1.21765,
0.0854492,1.19629,
0.158691,1.16272,
0.230408,1.20239,
0.299072,1.23749,
0.367737,1.21765,
0.428772,1.19171,
0.488281,1.1734,
0.540161,1.19781,
0.590515,1.23291,
0.634766,1.21765,
0.67749,1.18866,
0.708008,1.17035,
0.743103,1.20239,
0.778198,1.23444,
0.802612,1.21765,
0.827026,1.18713,
0.842285,1.18866,
0.862122,1.19781,
0.874329,1.28479,
0.883484,1.21155,
0.889587,1.19324,
0.891113,1.1734,
0.883484,1.19934,
0.880432,1.22681,
0.866699,1.2085,
0.854492,1.16882,
0.843811,1.17035,
0.820923,1.20239,
0.80719,1.23444,
0.787354,1.21307,
0.769043,1.18713,
0.746155,1.1795,
0.724792,1.19629,
0.700378,1.22986,
0.675964,1.21613,
0.645447,1.18713,
0.622559,1.17035,
0.592041,1.19171,
0.567627,1.22528,
0.540161,1.2146,
0.515747,1.18561,
0.494385,1.16882,
0.469971,1.19019,
0.444031,1.22528,
0.43335,1.21307,
0.413513,1.18408,
0.392151,1.16577,
0.37384,1.19019,
0.35553,1.22528,
0.338745,1.21155,
0.328064,1.18408,
0.320435,1.16577,
0.311279,1.18713,
0.306702,1.2207,
0.300598,1.21002,
0.299072,1.18256,
0.300598,1.1673,
0.297546,1.18866,
0.296021,1.23291,
0.296021,1.21307,
0.299072,1.18256,
0.299072,1.16272,
0.297546,1.18713,
0.305176,1.21918,
0.300598,1.19324,
0.305176,1.17798,
0.306702,1.16425,
0.299072,1.18561,
0.302124,1.2146,
0.302124,1.21155,
0.300598,1.18103,
0.299072,1.15967,
0.294495,1.18103,
0.296021,1.2207,
0.292969,1.2085,
0.289917,1.17798,
0.283813,1.15051,
0.280762,1.17798,
0.282288,1.2207,
0.271606,1.2085,
0.265503,1.17493,
0.256348,1.15967,
0.250244,1.18561,
0.242615,1.21613,
0.228882,1.20697,
0.222778,1.17493,
0.215149,1.15662,
0.19989,1.1795,
0.189209,1.23138,
0.175476,1.21155,
0.158691,1.17645,
0.141907,1.15509,
0.125122,1.17493,
0.106812,1.21765,
0.0900269,1.19629,
0.0732422,1.21613,
0.0534058,1.15356,
0.0366211,1.17645,
0.0137329,1.21765,
-0.00457764,1.21307,
-0.0259399,1.17493,
-0.0457764,1.15662,
-0.0732422,1.17645,
-0.0976563,1.2146,
-0.12207,1.20544,
-0.149536,1.17798,
-0.17395,1.15204,
-0.19989,1.1734,
-0.227356,1.20087,
-0.253296,1.20544,
-0.279236,1.1734,
-0.308228,1.15051,
-0.332642,1.17188,
-0.366211,1.21613,
-0.398254,1.20392,
-0.430298,1.16882,
-0.460815,1.15051,
-0.492859,1.17188,
-0.520325,1.21155,
-0.547791,1.20392,
-0.575256,1.1734,
-0.604248,1.15051,
-0.637817,1.17188,
-0.671387,1.20697,
-0.70343,1.20239,
-0.733948,1.15662,
-0.770569,1.14899,
-0.804138,1.1673,
-0.836182,1.20697,
-0.866699,1.20239,
-0.898743,1.16882,
-0.926208,1.14594,
-0.956726,1.16425,
-0.979614,1.2085,
-1.00861,1.20697,
-1.03455,1.16577,
-1.06049,1.14899,
-1.08948,1.17645,
-1.11542,1.20697,
-1.14288,1.19781,
-1.16272,1.1673,
-1.19324,1.14746,
-1.22223,1.16272,
-1.24664,1.20544,
-1.27106,1.20087,
-1.297,1.16425,
-1.32294,1.15356,
-1.34735,1.15967,
-1.37329,1.20544,
-1.39465,1.19629,
-1.42212,1.15967,
-1.44958,1.14288,
-1.47095,1.16577,
-1.49689,1.20239,
-1.51672,1.19781,
-1.54266,1.16272,
-1.5625,1.14746,
-1.58997,1.14288,
-1.6098,1.19934,
-1.63422,1.19324,
-1.6571,1.14594,
-1.67847,1.14288,
-1.70135,1.14136,
-1.72272,1.20087,
-1.74103,1.23901,
-1.76086,1.15967,
-1.78986,1.14594,
-1.80664,1.15509,
-1.82648,1.19781,
-1.85089,1.19781,
-1.87073,1.15967,
-1.89514,1.14441,
-1.91193,1.15662,
-1.92871,1.20239,
-1.93481,1.19781,
-1.93634,1.15967,
-1.93634,1.14288,
-1.92871,1.15356,
-1.91193,1.20087,
-1.88751,1.19324,
-1.85547,1.16272,
-1.81732,1.13983,
-1.77612,1.15356,
-1.72272,1.19629,
-1.65863,1.19781,
-1.59302,1.15967,
-1.51825,1.13678,
-1.4389,1.14746,
-1.35345,1.20239,
-1.25885,1.19019,
-1.16119,1.15509,
-1.06049,1.13831,
-0.959778,1.15509,
-0.856018,1.1795,
-0.749207,1.19934,
-0.643921,1.15509,
-0.535583,1.14136,
-0.430298,1.14899,
-0.325012,1.19781,
-0.216675,1.19629,
-0.112915,1.15662,
-0.012207,1.13678,
0.0839233,1.14899,
0.180054,1.19629,
0.265503,1.19781,
0.352478,1.14899,
0.431824,1.13525,
0.505066,1.14746,
0.57373,1.19629,
0.645447,1.18866,
0.709534,1.15356,
0.764465,1.1322,
0.816345,1.14746,
0.863647,1.19629,
0.90332,1.16425,
0.938416,1.15204,
0.973511,1.13525,
1.00098,1.14899,
1.02539,1.19019,
1.0437,1.19019,
1.06049,1.14899,
1.07269,1.13373,
1.0849,1.14594,
1.09253,1.20239,
1.09406,1.19019,
1.09406,1.15204,
1.08948,1.12762,
1.0849,1.13525,
1.07422,1.19629,
1.06201,1.20087,
1.04675,1.15051,
1.02539,1.1261,
1.00708,1.14288,
0.985718,1.19934,
0.9552,1.19171,
0.926208,1.15204,
0.891113,1.1322,
0.862122,1.13983,
0.822449,1.19171,
0.784302,1.18866,
0.747681,1.14899,
0.71106,1.1261,
0.67749,1.12762,
0.642395,1.19781,
0.608826,1.19019,
0.576782,1.14899,
0.540161,1.12762,
0.506592,1.13831,
0.479126,1.19019,
0.454712,1.18713,
0.42572,1.15051,
0.396729,1.12152,
0.375366,1.14136,
0.354004,1.18713,
0.334167,1.19324,
0.317383,1.14899,
0.297546,1.12152,
0.286865,1.13678,
0.276184,1.19171,
0.268555,1.19171,
0.259399,1.15051,
0.253296,1.12152,
0.245667,1.13983,
0.244141,1.18713,
0.238037,1.18866,
0.234985,1.14899,
0.231934,1.12762,
0.230408,1.14288,
0.22583,1.19019,
0.227356,1.18561,
0.224304,1.15051,
0.222778,1.11542,
0.219727,1.13831,
0.216675,1.19019,
0.216675,1.18866,
0.210571,1.14899,
0.20752,1.12,
0.201416,1.15051,
0.198364,1.19629,
0.193787,1.18561,
0.187683,1.16425,
0.177002,1.12,
0.167847,1.14288,
0.158691,1.19019,
0.144958,1.19324,
0.132751,1.14594,
0.123596,1.12,
0.109863,1.13983,
0.0961304,1.19019,
0.0854492,1.18561,
0.0671387,1.14899,
0.050354,1.11694,
0.0350952,1.13831,
0.0137329,1.18866,
-0.00457764,1.17188,
-0.0228882,1.14594,
-0.0473022,1.11389,
-0.0656128,1.13831,
-0.088501,1.19019,
-0.114441,1.18561,
-0.141907,1.14746,
-0.163269,1.11542,
-0.190735,1.13983,
-0.213623,1.18866,
-0.242615,1.18866,
-0.265503,1.14746,
-0.289917,1.12,
-0.318909,1.13525,
-0.341797,1.18103,
-0.364685,1.18866,
-0.387573,1.14594,
-0.416565,1.11084,
-0.444031,1.13525,
-0.469971,1.18103,
-0.498962,1.18408,
-0.527954,1.14594,
-0.55542,1.11084,
-0.582886,1.13678,
-0.613403,1.18561,
-0.640869,1.18713,
-0.669861,1.14136,
-0.700378,1.11084,
-0.730896,1.14288,
-0.761414,1.18256,
-0.787354,1.19324,
-0.820923,1.14746,
-0.848389,1.11389,
-0.883484,1.13373,
-0.914001,1.18408,
-0.944519,1.18256,
-0.978088,1.14441,
-1.01166,1.11237,
-1.04675,1.13525,
-1.08185,1.18103,
-1.10931,1.18561,
-1.14288,1.14288,
-1.17798,1.10779,
-1.21765,1.13068,
-1.24969,1.18256,
-1.28632,1.18408,
-1.32141,1.14594,
-1.3504,1.10931,
-1.37939,1.1322,
-1.41296,1.17493,
-1.44196,1.18408,
-1.47552,1.14746,
-1.51062,1.10931,
-1.53656,1.13373,
-1.57166,1.18103,
-1.5976,1.18256,
-1.62201,1.14594,
-1.64337,1.10931,
-1.66626,1.1322,
-1.6922,1.18408,
-1.71509,1.18103,
-1.73645,1.14441,
-1.76086,1.11847,
-1.78375,1.13525,
-1.80664,1.1734,
-1.828,1.18256,
-1.84631,1.14594,
-1.87073,1.10779,
-1.89667,1.13373,
-1.9165,1.18103,
-1.94092,1.18103,
-1.96686,1.14288,
-1.98975,1.10779,
-2.01721,1.13373,
-2.04468,1.16577,
-2.06146,1.1795,
-2.09198,1.14288,
-2.11334,1.10321,
-2.13928,1.1322,
-2.15759,1.17798,
-2.18201,1.1795,
-2.211,1.1322,
-2.24152,1.07727,
-2.27051,1.13068,
-2.29187,1.17798,
-2.31323,1.18103,
-2.33154,1.13983,
-2.35138,1.10779,
-2.36206,1.13373,
-2.37427,1.17645,
-2.37122,1.18408,
-2.36664,1.14594,
-2.34833,1.10474,
-2.32239,1.13373,
-2.29034,1.18103,
-2.24762,1.1795,
-2.19727,1.14136,
-2.13928,1.10474,
-2.06909,1.13068,
-1.98975,1.1795,
-1.90277,1.18103,
-1.80359,1.14136,
-1.70135,1.10321,
-1.58844,1.13373,
-1.47247,1.18103,
-1.35345,1.18103,
-1.22681,1.13831,
-1.09863,1.10474,
-0.975037,1.12762,
-0.843811,1.17798,
-0.71106,1.18256,
-0.582886,1.14136,
-0.45166,1.10321,
-0.325012,1.11389,
-0.196838,1.17798,
-0.0762939,1.1795,
0.0411987,1.13831,
0.152588,1.10321,
0.262451,1.13525,
0.364685,1.17798,
0.465393,1.18103,
0.561523,1.14136,
0.646973,1.10321,
0.732422,1.1322,
0.808716,1.1734,
0.878906,1.17645,
0.944519,1.13678,
1.00403,1.10779,
1.05438,1.1322,
1.10321,1.17493,
1.13983,1.1734,
1.17645,1.13525,
1.21002,1.10168,
1.24054,1.13373,
1.26038,1.1734,
1.28021,1.17798,
1.297,1.13373,
1.31073,1.10168,
1.31836,1.1322,
1.31989,1.1734,
1.32294,1.1795,
1.31989,1.13831,
1.31226,1.10168,
1.29852,1.13068,
1.28326,1.1734,
1.26648,1.18256,
1.24969,1.13525,
1.22375,1.10321,
1.19934,1.1322,
1.16882,1.17035,
1.13831,1.18103,
1.10168,1.13525,
1.07422,1.09711,
1.04065,1.12305,
1.00861,1.17493,
0.971985,1.17493,
0.938416,1.14136,
0.906372,1.08795,
0.869751,1.13068,
0.83313,1.17645,
0.804138,1.18256,
0.767517,1.1322,
0.735474,1.10168,
0.708008,1.13525,
0.683594,1.17798,
0.657654,1.17798,
0.631714,1.13068,
0.608826,1.09863,
0.590515,1.13373,
0.57373,1.1734,
0.556946,1.1734,
0.546265,1.13068,
0.534058,1.09863,
0.523376,1.1673,
0.512695,1.1673,
0.50354,1.17798,
0.505066,1.1322,
0.500488,1.10016,
0.500488,1.13373,
0.497437,1.17188,
0.495911,1.17493,
0.491333,1.11847,
0.495911,1.09863,
0.495911,1.13373,
0.494385,1.17188,
0.495911,1.17645,
0.495911,1.1261,
0.492859,1.10321,
0.491333,1.13678,
0.492859,1.16882,
0.491333,1.1734,
0.489807,1.12762,
0.489807,1.09863,
0.489807,1.13373,
0.488281,1.1673,
0.482178,1.1734,
0.474548,1.12762,
0.465393,1.09711,
0.453186,1.13525,
0.447083,1.16577,
0.439453,1.17035,
0.430298,1.1261,
0.421143,1.09711,
0.405884,1.13525,
0.393677,1.17798,
0.384521,1.16882,
0.37384,1.12305,
0.35553,1.09711,
0.344849,1.13373,
0.323486,1.17035,
0.305176,1.17493,
0.286865,1.11847,
0.260925,1.091,
0.242615,1.13373,
0.222778,1.1673,
0.19989,1.16882,
0.175476,1.12305,
0.149536,1.09406,
0.126648,1.13068,
0.0976563,1.1673,
0.0732422,1.1673,
0.0473022,1.13373,
0.0167847,1.09253,
-0.0137329,1.12762,
-0.0457764,1.17493,
-0.0732422,1.1673,
-0.106812,1.12305,
-0.135803,1.09406,
-0.169373,1.13373,
-0.19989,1.17188,
-0.231934,1.17188,
-0.262451,1.12305,
-0.299072,1.09253,
-0.332642,1.13373,
-0.367737,1.16882,
-0.395203,1.17188,
-0.427246,1.12152,
-0.456238,1.091,
-0.492859,1.12457,
-0.524902,1.1734,
-0.55542,1.16577,
-0.593567,1.12152,
-0.628662,1.08795,
-0.662231,1.12762,
-0.697327,1.1734,
-0.730896,1.15356,
-0.767517,1.12457,
-0.796509,1.091,
-0.834656,1.12762,
-0.868225,1.1673,
-0.895691,1.16577,
-0.93689,1.12457,
-0.971985,1.07574,
-1.00403,1.13373,
-1.0376,1.16272,
-1.06354,1.1673,
-1.10321,1.12305,
-1.13068,1.08948,
-1.1734,1.13068,
-1.20697,1.15814,
-1.24512,1.16425,
-1.27869,1.12305,
-1.31073,1.08795,
-1.34277,1.1322,
-1.37482,1.16272,
-1.40381,1.16425,
-1.43585,1.11694,
-1.46637,1.08795,
-1.49994,1.13373,
-1.53503,1.16425,
-1.56097,1.16577,
-1.59607,1.12,
-1.62201,1.08032,
-1.6571,1.13373,
-1.6861,1.16425,
-1.71356,1.16425,
-1.74561,1.12305,
-1.77155,1.08643,
-1.79901,1.14746,
-1.82037,1.16882,
-1.85089,1.16425,
-1.87225,1.11694,
-1.89514,1.08337,
-1.91803,1.13373,
-1.93634,1.16577,
-1.9577,1.16425,
-1.98059,1.11237,
-2.00348,1.08032,
-2.02637,1.13525,
-2.04773,1.16425,
-2.06909,1.15967,
-2.09198,1.11389,
-2.11334,1.0788,
-2.1347,1.13373,
-2.15912,1.1673,
-2.18201,1.16272,
-2.20642,1.11847,
-2.22931,1.08337,
-2.25372,1.12762,
-2.27814,1.16577,
-2.29645,1.16425,
-2.32391,1.11389,
-2.34528,1.08337,
-2.36511,1.12457,
-2.39563,1.16272,
-2.42157,1.15814,
-2.44904,1.12305,
-2.47498,1.0849,
-2.49939,1.12305,
-2.53906,1.15509,
-2.56653,1.16272,
-2.60162,1.11694,
-2.63519,1.08185,
-2.67029,1.11847,
-2.70386,1.15814,
-2.73285,1.16272,
-2.76031,1.11237,
-2.78625,1.05591,
-2.80457,1.12457,
-2.8183,1.14746,
-2.82593,1.15356,
-2.8244,1.11389,
-2.81219,1.07727,
-2.79846,1.11847,
-2.771,1.15204,
-2.7359,1.1673,
-2.69012,1.11084,
-2.63672,1.0788,
-2.57263,1.12,
-2.49481,1.15204,
-2.41089,1.15967,
-2.31476,1.11084,
-2.20795,1.07574,
-2.09503,1.11542,
-1.98059,1.15204,
-1.86157,1.15356,
-1.72729,1.10779,
-1.60065,1.07727,
-1.46942,1.11389,
-1.32904,1.15662,
-1.19324,1.15662,
-1.05438,1.11542,
-0.918579,1.091,
-0.790405,1.11542,
-0.656128,1.15967,
-0.526428,1.15814,
-0.398254,1.10626,
-0.27771,1.06354,
-0.157166,1.08337,
-0.0442505,1.1673,
0.0671387,1.14136,
0.175476,1.11084,
0.276184,1.07574,
0.378418,1.12,
0.463867,1.16577,
0.537109,1.15509,
0.608826,1.11084,
0.672913,1.07422,
0.730896,1.11237,
0.784302,1.16577,
0.83313,1.15509,
0.878906,1.10931,
0.917053,1.07269,
0.958252,1.10931,
0.982666,1.16425,
1.01624,1.15356,
1.03912,1.10779,
1.05743,1.07422,
1.06964,1.10626,
1.08032,1.16272,
1.08185,1.15509,
1.08185,1.11237,
1.07574,1.07422,
1.06812,1.10626,
1.05438,1.15967,
1.0437,1.15204,
1.02081,1.10779,
0.993347,1.07422,
0.973511,1.10016,
0.947571,1.15509,
0.918579,1.15662,
0.889587,1.10626,
0.854492,1.07422,
0.817871,1.09863,
0.779724,1.15509,
0.743103,1.15051,
0.698853,1.10931,
0.65918,1.07117,
0.619507,1.10321,
0.579834,1.15356,
0.541687,1.15204,
0.506592,1.10626,
0.471497,1.06812,
0.434875,1.09863,
0.401306,1.15204,
0.370789,1.14899,
0.346375,1.08948,
0.325012,1.0437,
0.302124,1.091,
0.27771,1.15204,
0.262451,1.15204,
0.245667,1.10168,
0.230408,1.06964,
0.218201,1.09711,
0.202942,1.20087,
0.196838,1.14746,
0.187683,1.10779,
0.184631,1.07269,
0.178528,1.09711,
0.17395,1.15204,
0.166321,1.14746,
0.164795,1.10321,
0.164795,1.07422,
0.163269,1.09406,
0.161743,1.15051,
0.164795,1.14594,
0.164795,1.10626,
0.160217,1.06812,
0.160217,1.10016,
0.158691,1.15356,
0.157166,1.14746,
0.154114,1.10321,
0.149536,1.06506,
0.143433,1.10016,
0.135803,1.14746,
0.131226,1.14746,
0.12207,1.10168,
0.112915,1.06659,
0.108337,1.08185,
0.100708,1.12,
0.0915527,1.15356,
0.0793457,1.10779,
0.0701904,1.06659,
0.0579834,1.08948,
0.0457764,1.14899,
0.0305176,1.14594,
0.0137329,1.10168,
-0.00305176,1.06659,
-0.0228882,1.08795,
-0.0396729,1.14899,
-0.0595093,1.14899,
-0.0793457,1.10474,
-0.102234,1.06506,
-0.1297,1.08795,
-0.152588,1.15051,
-0.178528,1.14746,
-0.202942,1.10168,
-0.230408,1.06659,
-0.256348,1.08948,
-0.285339,1.14899,
-0.314331,1.14746,
-0.341797,1.10321,
-0.375366,1.05286,
-0.40741,1.0849,
-0.444031,1.14594,
-0.485229,1.14136,
-0.517273,1.09711,
-0.552368,1.06506,
-0.585938,1.08643,
-0.617981,1.14594,
-0.646973,1.11694,
-0.683594,1.10016,
-0.717163,1.06354,
-0.752258,1.08795,
-0.784302,1.14746,
-0.813293,1.15356,
-0.849915,1.09863,
-0.888062,1.0376,
-0.917053,1.0788,
-0.956726,1.14594,
-0.98877,1.14288,
-1.02081,1.10168,
-1.05286,1.06354,
-1.08643,1.08643,
-1.11847,1.14594,
-1.15204,1.14288,
-1.18713,1.09863,
-1.21918,1.06354,
-1.24969,1.08337,
-1.28021,1.14899,
-1.31226,1.14899,
-1.33972,1.09711,
-1.37329,1.10016,
-1.40533,1.0788,
-1.4328,1.14288,
-1.46027,1.14288,
-1.49078,1.09711,
-1.52283,1.06049,
-1.55487,1.08185,
-1.58539,1.14136,
-1.61438,1.17645,
-1.64032,1.10168,
-1.66931,1.07117,
-1.69373,1.08337,
-1.72424,1.14288,
-1.75018,1.14899,
-1.78375,1.09863,
-1.81122,1.06049,
-1.83868,1.08337,
-1.86768,1.14136,
-1.89362,1.14441,
-1.91956,1.09253,
-1.9516,1.05896,
-1.98059,1.0788,
-2.00958,1.14288,
-2.03857,1.14288,
-2.06604,1.10016,
-2.09503,1.05743,
-2.12402,1.08032,
-2.14996,1.14136,
-2.1759,1.14288,
-2.20337,1.09711,
-2.22473,1.04523,
-2.2522,1.08185,
-2.27356,1.14136,
-2.29645,1.14136,
-2.32086,1.09406,
-2.34222,1.06049,
-2.36511,1.08032,
-2.38495,1.13831,
-2.40479,1.13983,
-2.4292,1.09253,
-2.44904,1.06659,
-2.47498,1.0788,
-2.50397,1.13983,
-2.52838,1.13983,
-2.55127,1.09406,
-2.58331,1.05591,
-2.6062,1.07727,
-2.63367,1.13831,
-2.65808,1.14441,
-2.68402,1.09253,
-2.70538,1.05743,
-2.72827,1.07727,
-2.74963,1.1261,
-2.76947,1.16272,
-2.79083,1.09253,
-2.81067,1.05591,
-2.83966,1.0788,
-2.8656,1.13678,
-2.89307,1.14441,
-2.91748,1.091,
-2.94495,1.04218,
-2.96631,1.07574,
-2.9953,1.13831,
-3.01971,1.13831,
-3.04565,1.08948,
-3.07465,1.06964,
-3.09906,1.08185,
-3.125,1.13678,
-3.14789,1.13831,
-3.16925,1.08795,
-3.19519,1.05438,
-3.22266,1.07269,
-3.2486,1.1322,
-3.27606,1.13831,
-3.302,1.091,
-3.32336,1.05591,
-3.3493,1.07422,
-3.37067,1.13068,
-3.38898,1.13831,
-3.40576,1.091,
-3.41187,1.05438,
-3.41797,1.08032,
-3.41034,1.13068,
-3.38593,1.14136,
-3.36151,1.09711,
-3.32642,1.05286,
-3.28064,1.0788,
-3.22876,1.1322,
-3.16467,1.14288,
-3.0899,1.09253,
-3.00751,1.05591,
-2.90985,1.0788,
-2.80457,1.13525,
-2.69623,1.13678,
-2.58026,1.09711,
-2.45514,1.05743,
-2.32849,1.07727,
-2.19574,1.13373,
-2.05688,1.14136,
-1.9165,1.091,
-1.77307,1.04523,
-1.63269,1.07727,
-1.49384,1.13068,
-1.35345,1.13983,
-1.21307,1.08643,
-1.07574,1.02081,
-0.939941,1.06049,
-0.810242,1.1322,
-0.686646,1.13678,
-0.564575,1.09863,
-0.448608,1.05591,
-0.338745,1.07422,
-0.234985,1.17645,
-0.135803,1.10779,
-0.0473022,1.091,
0.0366211,1.05438,
0.115967,1.07422,
0.186157,1.12762,
0.254822,1.14136,
0.315857,1.091,
0.366211,1.05438,
0.415039,1.07574,
0.457764,1.12457,
0.491333,1.14136,
0.517273,1.10016,
0.535583,1.05591,
0.558472,1.07727,
0.570679,1.11694,
0.579834,1.14441,
0.584412,1.08795,
0.579834,1.05286,
0.576782,1.07574,
0.566101,1.1261,
0.550842,1.14441,
0.534058,1.07117,
0.508118,1.06659,
0.485229,1.08032,
0.456238,1.12457,
0.421143,1.13831,
0.387573,1.08795,
0.352478,1.05591,
0.317383,1.06354,
0.27771,1.12457,
0.238037,1.13983,
0.192261,1.08795,
0.14801,1.05743,
0.10376,1.07574,
0.0610352,1.12152,
0.0198364,1.13983,
-0.0183105,1.08643,
-0.0579834,1.05591,
-0.0930786,1.07422,
-0.1297,1.12152,
-0.166321,1.14441,
-0.198364,1.091,
-0.228882,1.05438,
-0.256348,1.07574,
-0.282288,1.12152,
-0.299072,1.13983,
-0.323486,1.09406,
-0.338745,1.05743,
-0.361633,1.07727,
-0.372314,1.12,
-0.386047,1.13831,
-0.390625,1.09711,
-0.398254,1.06354,
-0.402832,1.0788,
-0.408936,1.12305,
-0.40741,1.13678,
-0.405884,1.09406,
-0.40741,1.05438,
-0.402832,1.07727,
-0.402832,1.12,
-0.401306,1.13678,
-0.39978,1.13983,
-0.398254,1.05438,
-0.393677,1.08032,
-0.390625,1.12,
-0.387573,1.13678,
-0.382996,1.08643,
-0.386047,1.05743,
-0.384521,1.07727,
-0.38147,1.11694,
-0.37384,1.13525,
-0.375366,1.091,
-0.376892,1.05896,
-0.376892,1.08185,
-0.375366,1.11694,
-0.38147,1.13831,
-0.389099,1.09406,
-0.398254,1.05591,
-0.411987,1.07727,
-0.424194,1.11847,
-0.436401,1.13525,
-0.448608,1.09253,
-0.462341,1.05896,
-0.479126,1.08185,
-0.494385,1.13525,
-0.511169,1.13373,
-0.526428,1.091,
-0.544739,1.06049,
-0.567627,1.0788,
-0.592041,1.12305,
-0.610352,1.12762,
-0.640869,1.08337,
-0.666809,1.06354,
-0.698853,1.07117,
-0.721741,1.11237,
-0.753784,1.13525,
-0.784302,1.09406,
-0.816345,1.06812,
-0.849915,1.07422,
-0.881958,1.15356,
-0.917053,1.11694,
-0.950623,1.09406,
-0.985718,1.06506,
-1.02386,1.08032,
-1.05896,1.10779,
-1.09406,1.1322,
-1.1322,1.09253,
-1.1673,1.06506,
-1.21155,1.0788,
-1.24969,1.11237,
-1.29242,1.13678,
-1.33057,1.09253,
-1.37329,1.05743,
-1.41296,1.0788,
-1.45416,1.10931,
-1.48926,1.13678,
-1.52435,1.09253,
-1.55945,1.06354,
-1.59149,1.0788,
-1.63116,1.11389,
-1.66321,1.13373,
-1.6983,1.09406,
-1.73187,1.06506,
-1.76849,1.07727,
-1.79901,1.10474,
-1.82953,1.13068,
-1.8631,1.09711,
-1.89362,1.05743,
-1.92108,1.0788,
-1.95313,1.10779,
-1.98364,1.12762,
-2.01263,1.09863,
-2.04315,1.06506,
-2.0752,1.091,
-2.10724,1.10931,
-2.1347,1.13678,
-2.1637,1.09711,
-2.18964,1.05133,
-2.22015,1.08337,
-2.24762,1.07422,
-2.27509,1.13373,
-2.29797,1.09863,
-2.32391,1.06659,
-2.35138,1.08185,
-2.37579,1.10779,
-2.40479,1.1322,
-2.43073,1.08795,
-2.45819,1.0498,
-2.4826,1.08032,
-2.50549,1.11237,
-2.53296,1.1261,
-2.56195,1.09863,
-2.59247,1.06964,
-2.61841,1.0788,
-2.64587,1.08337,
-2.67334,1.11389,
-2.70081,1.10321,
-2.72522,1.06964,
-2.75269,1.08337,
-2.77863,1.11542,
-2.79999,1.14136,
-2.82898,1.10016,
-2.84882,1.10779,
-2.87476,1.07117,
-2.90527,1.10931,
-2.93121,1.13068,
-2.95563,1.10168,
-2.98157,1.06354,
-3.00446,1.08337,
-3.02887,1.10931,
-3.05176,1.13068,
-3.07465,1.09711,
-3.09753,1.06659,
-3.12042,1.08032,
-3.14789,1.10321,
-3.1662,1.1322,
-3.18909,1.10016,
-3.21503,1.06506,
-3.23944,1.0849,
-3.26233,1.10626,
-3.28674,1.13068,
-3.31268,1.09863,
-3.34015,1.06659,
-3.36456,1.06964,
-3.39203,1.10779,
-3.41644,1.12457,
-3.43323,1.10168,
-3.45917,1.06506,
-3.479,1.07422,
-3.50037,1.11237,
-3.52325,1.13068,
-3.54004,1.10016,
-3.56598,1.06659,
-3.59192,1.08032,
-3.61633,1.10779,
-3.63617,1.1261,
-3.66058,1.10168,
-3.685,1.05743,
-3.71704,1.08337,
-3.7384,1.10779,
-3.76587,1.12762,
-3.78876,1.10168,
-3.81165,1.06506,
-3.83911,1.08032,
-3.86047,1.10626,
-3.88336,1.1261,
-3.90472,1.10321,
-3.92151,1.06659,
-3.93372,1.08337,
-3.9444,1.10626,
-3.94592,1.12762,
-3.94135,1.10168,
-3.92761,1.06659,
-3.90625,1.07727,
-3.87268,1.10779,
-3.82843,1.1261,
-3.77808,1.10626,
-3.71704,1.06659,
-3.6438,1.0788,
-3.55682,1.10931,
-3.4668,1.1322,
-3.36456,1.10474,
-3.25012,1.06049,
-3.12805,1.0788,
-2.99835,1.10779,
-2.85492,1.1322,
-2.70996,1.10474,
-2.56195,1.07117,
-2.40936,1.08643,
-2.25067,1.10779,
-2.09045,1.1261,
-1.93481,1.10931,
-1.7746,1.06659,
-1.61285,1.08032,
-1.45874,1.11084,
-1.30157,1.1322,
-1.15662,1.11237,
-1.01013,1.06354,
-0.869751,1.08032,
-0.727844,1.10779,
-0.592041,1.12305,
-0.471497,1.10626,
-0.354004,1.06506,
-0.238037,1.0849,
-0.132751,1.11084,
-0.0320435,1.1261,
0.0579834,1.10931,
0.146484,1.06506,
0.221252,1.08337,
0.292969,1.10016,
0.361633,1.13068,
0.424194,1.10474,
0.476074,1.06659,
0.523376,1.07574,
0.561523,1.10779,
0.598145,1.12762,
0.628662,1.11084,
0.65155,1.06659,
0.669861,1.07422,
0.68512,1.10779,
0.694275,1.1322,
0.692749,1.11084,
0.694275,1.06659,
0.691223,1.07727,
0.680542,1.10626,
0.671387,1.12762,
0.654602,1.11084,
0.634766,1.06354,
0.608826,1.07269,
0.579834,1.11694,
0.553894,1.12762,
0.521851,1.11084,
0.485229,1.06506,
0.453186,1.07422,
0.405884,1.10474,
0.364685,1.11084,
0.32196,1.11084,
0.280762,1.06354,
0.238037,1.07727,
0.193787,1.11084,
0.151062,1.1261,
0.111389,1.10779,
0.0732422,1.05133,
0.0366211,1.07727,
0.00305176,1.10474,
-0.0289917,1.12762,
-0.062561,1.11237,
-0.088501,1.06049,
-0.117493,1.07574,
-0.141907,1.10626,
-0.158691,1.1261,
-0.18158,1.11084,
-0.196838,1.06506,
-0.213623,1.0788,
-0.227356,1.10474,
-0.236511,1.13373,
-0.248718,1.12,
-0.256348,1.06354,
-0.262451,1.07269,
-0.267029,1.10474,
-0.274658,1.13525,
-0.27771,1.11694,
-0.274658,1.06506,
-0.271606,1.07117,
-0.273132,1.10626,
-0.265503,1.1261,
-0.262451,1.10779,
-0.257874,1.05896,
-0.253296,1.06812,
-0.248718,1.10779,
-0.244141,1.12457,
-0.238037,1.11389,
-0.239563,1.06049,
-0.234985,1.07269,
-0.238037,1.10931,
-0.236511,1.12457,
-0.236511,1.11389,
-0.236511,1.06506,
-0.239563,1.06964,
-0.245667,1.10626,
-0.248718,1.1261,
-0.256348,1.11542,
-0.262451,1.06506,
-0.268555,1.07269,
-0.279236,1.10779,
-0.288391,1.12305,
-0.302124,1.11084,
-0.312805,1.06812,
-0.326538,1.06812,
-0.338745,1.10626,
-0.352478,1.12457,
-0.366211,1.11542,
-0.382996,1.06812,
-0.405884,1.07117,
-0.42572,1.10321,
-0.445557,1.12457,
-0.463867,1.11389,
-0.488281,1.06049,
-0.512695,1.06812,
-0.534058,1.10321,
-0.558472,1.12457,
-0.575256,1.11237,
-0.604248,1.0376,
-0.63324,1.04523,
-0.660706,1.10474,
-0.68512,1.1261,
-0.71106,1.11847,
-0.738525,1.05896,
-0.764465,1.07727,
-0.793457,1.10626,
-0.817871,1.11237,
-0.848389,1.10626,
-0.875854,1.07269,
-0.907898,1.07574,
-0.93689,1.10779,
-0.964355,1.12457,
-0.991821,1.11694,
-1.02081,1.05743,
-1.05286,1.07574,
-1.08643,1.0788,
-1.11694,1.12457,
-1.15051,1.11542,
-1.18408,1.06049,
-1.2146,1.06812,
-1.24969,1.09711,
-1.27411,1.12305,
-1.30463,1.11847,
-1.3382,1.06506,
-1.37024,1.06812,
-1.40533,1.10016,
-1.43433,1.12305,
-1.46484,1.11542,
-1.49994,1.05743,
-1.53198,1.06659,
-1.56403,1.09863,
-1.59912,1.1261,
-1.63116,1.11542,
-1.66473,1.05591,
-1.70135,1.06659,
-1.73492,1.10016,
-1.77002,1.12,
-1.80359,1.11084,
-1.83563,1.05743,
-1.87073,1.06659,
-1.9043,1.10016,
-1.93939,1.12457,
-1.96838,1.11389,
-2.00195,1.05438,
-2.03552,1.07269,
-2.06757,1.09863,
-2.09503,1.12152,
-2.12555,1.10779,
-2.15607,1.05743,
-2.18811,1.06659,
-2.22321,1.09711,
-2.24762,1.12457,
-2.28119,1.11084,
-2.3056,1.06049,
-2.33154,1.05896,
-2.36206,1.09406,
-2.38495,1.12305,
-2.41241,1.10626,
-2.43988,1.05591,
-2.4704,1.06354,
-2.49481,1.09253,
-2.5238,1.1261,
-2.54059,1.10626,
-2.57111,1.05591,
-2.59552,1.06049,
-2.62299,1.09863,
-2.6413,1.12305,
-2.66876,1.10931,
-2.69775,1.05896,
-2.72675,1.07117,
-2.74963,1.09253,
-2.77252,1.12305,
-2.79236,1.10779,
-2.82288,1.05286,
-2.84424,1.06506,
-2.87018,1.06506,
-2.89764,1.12152,
-2.91138,1.11389,
-2.93579,1.04523,
-2.95868,1.05896,
-2.98004,1.091,
-2.99988,1.12457,
-3.02734,1.10626,
-3.04413,1.05438,
-3.07312,1.06506,
-3.09601,1.09406,
-3.11584,1.12457,
-3.13721,1.11084,
-3.1601,1.05591,
-3.18451,1.05743,
-3.2074,1.09406,
-3.23029,1.1261,
-3.25317,1.10779,
-3.28064,1.05591,
-3.30811,1.05743,
-3.32947,1.09253,
-3.35388,1.1322,
-3.3783,1.09863,
-3.40118,1.05438,
-3.42865,1.06049,
-3.45001,1.09406,
-3.47595,1.1261,
-3.49884,1.10321,
-3.52325,1.05896,
-3.54919,1.04218,
-3.57208,1.091,
-3.6026,1.13068,
-3.62701,1.10626,
-3.64227,1.05591,
-3.66058,1.05438,
-3.67126,1.08795,
-3.67432,1.1261,
-3.67279,1.10779,
-3.66364,1.05286,
-3.64227,1.05591,
-3.61176,1.09253,
-3.56903,1.12152,
-3.51868,1.09406,
-3.45917,1.05286,
-3.38745,1.05438,
-3.30353,1.08795,
-3.21503,1.12305,
-3.10822,1.10168,
-2.99683,1.05286,
-2.87476,1.05133,
-2.75269,1.08643,
-2.61536,1.12457,
-2.46887,1.10474,
-2.32544,1.05286,
-2.1759,1.04675,
-2.02026,1.08795,
-1.86615,1.10779,
-1.71051,1.10474,
-1.55029,1.0498,
-1.39618,1.06049,
-1.24512,1.08948,
-1.09558,1.11237,
-0.950623,1.1261,
-0.811768,1.02081,
-0.680542,1.05743,
-0.553894,1.091,
-0.428772,1.12457,
-0.314331,1.10931,
-0.201416,1.06049,
-0.0930786,1.05591,
0.0106812,1.08948,
0.106812,1.12305,
0.189209,1.10321,
0.268555,1.05286,
0.341797,1.05286,
0.408936,1.08643,
0.469971,1.13678,
0.527954,1.10016,
0.570679,1.0498,
0.611877,1.05286,
0.645447,1.091,
0.674438,1.1261,
0.697327,1.10016,
0.714111,1.05133,
0.72937,1.05133,
0.735474,1.10168,
0.741577,1.12152,
0.743103,1.09711,
0.743103,1.0498,
0.732422,1.05743,
0.720215,1.08795,
0.704956,1.12305,
0.68512,1.10321,
0.662231,1.0498,
0.63324,1.04675,
0.602722,1.08643,
0.572205,1.12,
0.540161,1.09406,
0.506592,1.0498,
0.468445,1.05438,
0.430298,1.08795,
0.392151,1.11237,
0.350952,1.06812,
0.311279,1.02386,
0.273132,1.05133,
0.227356,1.07269,
0.186157,1.12,
0.149536,1.09253,
0.109863,1.0498,
0.0671387,1.05591,
0.0289917,1.0849,
-0.00457764,1.15204,
-0.038147,1.09253,
-0.0656128,1.04523,
-0.0961304,1.05133,
-0.125122,1.08795,
-0.144958,1.12305,
-0.158691,1.09711,
-0.17395,1.0498,
-0.187683,1.0498,
-0.196838,1.08948,
-0.210571,1.11847,
-0.221252,1.091,
-0.224304,1.0498,
-0.22583,1.04828,
-0.231934,1.0849,
-0.236511,1.12,
-0.239563,1.09253,
-0.242615,1.0498,
-0.238037,1.04828,
-0.244141,1.08795,
-0.239563,1.12,
-0.238037,1.09253,
-0.238037,1.05743,
-0.242615,1.04828,
-0.239563,1.10321,
-0.236511,1.12457,
-0.236511,1.08643,
-0.238037,1.04523,
-0.238037,1.04675,
-0.234985,1.09863,
-0.236511,1.12762,
-0.230408,1.06506,
-0.233459,1.04523,
-0.236511,1.04675,
-0.239563,1.08795,
-0.245667,1.11542,
-0.250244,1.08643,
-0.256348,1.04523,
-0.262451,1.04675,
-0.274658,1.08337,
-0.283813,1.11542,
-0.296021,1.08948,
-0.312805,1.04218,
-0.32959,1.0437,
-0.349426,1.08795,
-0.366211,1.12152,
-0.389099,1.08948,
-0.415039,1.04218,
-0.437927,1.04675,
-0.465393,1.0849,
-0.485229,1.1261,
-0.509644,1.08643,
-0.538635,1.03302,
-0.566101,1.03912,
-0.596619,1.08795,
-0.628662,1.11542,
-0.656128,1.09863,
-0.68512,1.04523,
-0.717163,1.0437,
-0.752258,1.08337,
-0.779724,1.11694,
-0.814819,1.07727,
-0.846863,1.0437,
-0.878906,1.0498,
-0.914001,1.0849,
-0.944519,1.11694,
-0.979614,1.0788,
-1.01624,1.04523,
-1.04828,1.04675,
-1.08337,1.0849,
-1.11847,1.11694,
-1.15051,1.08337,
-1.18713,1.04828,
-1.2207,1.04675,
-1.26038,1.08795,
-1.29242,1.11694,
-1.32904,1.08185,
-1.36414,1.0437,
-1.40076,1.04523,
-1.43738,1.0849,
-1.47552,1.11542,
-1.51825,1.08032,
-1.55487,1.04675,
-1.59149,1.0437,
-1.62964,1.08795,
-1.66473,1.10779,
-1.70135,1.07727,
-1.73645,1.03302,
-1.77307,1.04523,
-1.81122,1.08643,
-1.84784,1.11389,
-1.88599,1.07422,
-1.92261,1.0376,
-1.95465,1.0437,
-1.9928,1.08948,
-2.02637,1.11694,
-2.05994,1.07574,
-2.09351,1.04065,
-2.13318,1.04523,
-2.1637,1.08337,
-2.19269,1.11084,
-2.22321,1.08337,
-2.25372,1.03912,
-2.27661,1.04218,
-2.3056,1.0849,
-2.33154,1.11389,
-2.35748,1.07574,
-2.38647,1.03607,
-2.41699,1.02692,
-2.45056,1.08643,
-2.47803,1.12,
-2.50092,1.06812,
-2.5238,1.03302,
-2.55127,1.0437,
-2.57111,1.09711,
-2.59857,1.11389,
-2.62299,1.08185,
-2.64435,1.03912,
-2.66571,1.04065,
-2.69012,1.08337,
-2.71301,1.12305,
-2.73285,1.08032,
-2.75421,1.04218,
-2.77405,1.03607,
-2.79694,1.08795,
-2.81677,1.11847,
-2.83661,1.07269,
-2.86407,1.01929,
-2.89001,1.01624,
-2.90985,1.08185,
-2.93579,1.11389,
-2.9541,1.07422,
-2.97241,1.03912,
-2.99683,1.04675,
-3.01666,1.08337,
-3.0365,1.15662,
-3.05481,1.07269,
-3.07465,1.04218,
-3.09143,1.04523,
-3.11279,1.0849,
-3.13416,1.11542,
-3.15552,1.07422,
-3.17841,1.03912,
-3.19977,1.03912,
-3.22113,1.09253,
-3.24402,1.11694,
-3.26385,1.06659,
-3.28522,1.03912,
-3.302,1.04675,
-3.32336,1.0849,
-3.34778,1.11389,
-3.36456,1.07269,
-3.38593,1.03912,
-3.41187,1.05591,
-3.43475,1.08643,
-3.46069,1.11542,
-3.48816,1.06812,
-3.50952,1.03455,
-3.53394,1.04218,
-3.55988,1.08948,
-3.58276,1.12152,
-3.60565,1.07117,
-3.62854,1.0376,
-3.64838,1.04675,
-3.67126,1.08643,
-3.70026,1.11542,
-3.72314,1.05438,
-3.74908,1.04065,
-3.77197,1.0437,
-3.79486,1.08185,
-3.80859,1.11542,
-3.82538,1.06812,
-3.83606,1.0376,
-3.84216,1.04218,
-3.84064,1.0849,
-3.82843,1.11542,
-3.81165,1.06964,
-3.78876,1.03607,
-3.75214,1.04218,
-3.70789,1.08185,
-3.65143,1.11389,
-3.58734,1.07269,
-3.51105,1.03912,
-3.42407,1.0437,
-3.32489,1.08032,
-3.21808,1.091,
-3.10211,1.05133,
-2.97546,1.0376,
-2.84119,1.0376,
-2.70233,1.09253,
-2.56042,1.11847,
-2.41089,1.07727,
-2.2583,1.04675,
-2.10419,1.07574,
-1.9516,1.0849,
-1.79749,1.12,
-1.64642,1.07269,
-1.48773,1.04675,
-1.3382,1.03912,
-1.19629,1.08643,
-1.05591,1.11847,
-0.917053,1.07422,
-0.782776,1.04828,
-0.65155,1.04065,
-0.534058,1.08337,
-0.416565,1.11389,
-0.302124,1.08643,
-0.202942,1.04218,
-0.108337,1.09711,
-0.0198364,1.08185,
0.0640869,1.11542,
0.140381,1.0788,
0.209045,1.04218,
0.268555,1.0437,
0.32196,1.08643,
0.370789,1.11847,
0.405884,1.08032,
0.440979,1.04065,
0.465393,1.04828,
0.486755,1.06506,
0.50354,1.11694,
0.517273,1.08032,
0.527954,1.03302,
0.524902,1.05438,
0.523376,1.08643,
0.517273,1.11694,
0.50354,1.08032,
0.489807,1.03149,
0.466919,1.04828,
0.447083,1.0849,
0.421143,1.11847,
0.390625,1.08337,
0.360107,1.03302,
0.325012,1.04523,
0.286865,1.08337,
0.25177,1.11542,
0.209045,1.08185,
0.158691,1.02692,
0.119019,1.01624,
0.0762939,1.08948,
0.0350952,1.11389,
-0.0137329,1.08643,
-0.0549316,1.03302,
-0.0991821,1.0437,
-0.144958,1.08185,
-0.184631,1.08337,
-0.22583,1.08643,
-0.260925,1.03149,
-0.292969,1.0437,
-0.326538,1.08337,
-0.358582,1.11389,
-0.386047,1.0849,
-0.40741,1.0376,
-0.434875,1.04523,
-0.456238,1.08948,
-0.469971,1.11542,
-0.479126,1.08948,
-0.489807,1.03455,
-0.498962,1.04523,
-0.50354,1.08795,
-0.508118,1.11694,
-0.509644,1.08948,
-0.511169,1.03607,
-0.512695,1.04065,
-0.512695,1.0849,
-0.508118,1.11542,
-0.502014,1.09253,
-0.497437,1.03912,
-0.489807,1.04675,
-0.485229,1.08337,
-0.4776,1.11542,
-0.471497,1.08795,
-0.465393,1.0376,
-0.45929,1.02386,
-0.45929,1.0849,
-0.454712,1.11237,
-0.454712,1.091,
-0.456238,1.03607,
-0.456238,1.04523,
-0.45929,1.0849,
-0.457764,1.11237,
-0.457764,1.08795,
-0.462341,1.0376,
-0.471497,1.04523,
-0.4776,1.08032,
-0.483704,1.11847,
-0.492859,1.09711,
-0.500488,1.02386,
-0.514221,1.04675,
-0.531006,1.0849,
-0.540161,1.11694,
-0.55542,1.09863,
-0.572205,1.03302,
-0.590515,1.03912,
-0.605774,1.08337,
-0.627136,1.11389,
-0.645447,1.09711,
-0.666809,1.03607,
-0.692749,1.04523,
-0.714111,1.08032,
-0.741577,1.12152,
-0.764465,1.09406,
-0.787354,1.03607,
-0.816345,1.04523,
-0.848389,1.08795,
-0.880432,1.11389,
-0.91095,1.09711,
-0.946045,1.04218,
-0.987244,1.04218,
-1.02081,1.08795,
-1.05438,1.11542,
-1.0849,1.09711,
-1.12152,1.02997,
-1.15509,1.0437,
-1.18866,1.09711,
-1.22375,1.11542,
-1.26038,1.10016,
-1.297,1.0376,
-1.33514,1.04065,
-1.36871,1.0849,
-1.40533,1.11542,
-1.44196,1.09863,
-1.47705,1.03455,
-1.50909,1.04523,
-1.54572,1.08643,
-1.58539,1.11542,
-1.62048,1.09711,
-1.66473,1.03607,
-1.6983,1.05133,
-1.73187,1.0849,
-1.76392,1.11542,
-1.79749,1.09863,
-1.83105,1.0376,
-1.8692,1.04218,
-1.89819,1.07422,
-1.93176,1.12457,
-1.96381,1.09406,
-1.99738,1.03302,
-2.02789,1.03607,
-2.05383,1.08795,
-2.0874,1.11389,
-2.11945,1.10321,
-2.14844,1.04065,
-2.17743,1.0437,
-2.20337,1.08185,
-2.22931,1.11542,
-2.25677,1.09863,
-2.28729,1.03455,
-2.31323,1.04065,
-2.34222,1.08643,
-2.36359,1.11542,
-2.38647,1.10168,
-2.41394,1.03607,
-2.4353,1.04065,
-2.45972,1.08795,
-2.48718,1.11542,
-2.50854,1.10016,
-2.53296,1.0376,
-2.55737,1.03912,
-2.58484,1.08337,
-2.61078,1.11694,
-2.63672,1.10168,
-2.66266,1.03912,
-2.68555,1.04065,
-2.70691,1.0849,
-2.73285,1.11847,
-2.76031,1.10168,
-2.7832,1.03912,
-2.80914,1.04218,
-2.82898,1.08643,
-2.85034,1.12,
-2.87018,1.08948,
-2.89307,1.03455,
-2.90985,1.0376,
-2.92664,1.08643,
-2.94342,1.11847,
-2.96631,1.10626,
-2.98309,1.03912,
-3.00446,1.0376,
-3.0304,1.08795,
-3.04871,1.12152,
-3.07617,1.10321,
-3.09753,1.03912,
-3.12195,1.04065,
-3.14636,1.08948,
-3.17383,1.12152,
-3.20435,1.10779,
-3.22876,1.04218,
-3.25165,1.04218,
-3.28064,1.08795,
-3.30353,1.11694,
-3.32184,1.10779,
-3.34778,1.04218,
-3.37067,1.04065,
-3.39508,1.08795,
-3.41492,1.12152,
-3.43628,1.10474,
-3.46222,1.0437,
-3.49121,1.04218,
-3.5141,1.08185,
-3.54004,1.10779,
-3.56445,1.10474,
-3.59192,1.04065,
-3.61633,1.03912,
-3.63922,1.091,
-3.66364,1.12305,
-3.68805,1.10931,
-3.71246,1.04218,
-3.73688,1.04218,
-3.76282,1.09406,
-3.79028,1.12305,
-3.81012,1.11084,
-3.83759,1.04675,
-3.86047,1.0437,
-3.88947,1.08948,
-3.91235,1.1261,
-3.93982,1.10016,
-3.96576,1.01013,
-3.99323,1.04218,
-4.01459,1.09711,
-4.03442,1.1322,
-4.06036,1.12152,
-4.08325,1.05286,
-4.10614,1.04828,
-4.12903,1.09253,
-4.15649,1.12457,
-4.17786,1.10321,
-4.20227,1.04675,
-4.22516,1.02692,
-4.2511,1.09406,
-4.27094,1.13068,
-4.29535,1.11542,
-4.31976,1.04675,
-4.34418,1.04675,
-4.36249,1.0849,
-4.3869,1.11847,
-4.41284,1.11694,
-4.43115,1.05133,
-4.45709,1.05133,
-4.47998,1.10016,
-4.49982,1.1322,
-4.52118,1.11542,
-4.53491,1.05438,
-4.54102,1.0498,
-4.53186,1.09406,
-4.51813,1.1322,
-4.49371,1.12,
-4.45404,1.05438,
-4.41284,1.0498,
-4.35486,1.09711,
-4.28925,1.13831,
-4.20837,1.11847,
-4.1214,1.05743,
-4.01917,1.05286,
-3.91388,1.10321,
-3.79486,1.13678,
-3.66516,1.12,
-3.52325,1.06354,
-3.3844,1.05591,
-3.23486,1.10168,
-3.07922,1.13983,
-2.91901,1.12152,
-2.75574,1.06049,
-2.58789,1.05743,
-2.41547,1.10626,
-2.2522,1.14288,
-2.07825,1.12457,
-1.91345,1.06506,
-1.74561,1.06354,
-1.58997,1.091,
-1.42822,1.14441,
-1.27716,1.1261,
-1.12762,1.06812,
-0.984192,1.06354,
-0.848389,1.10779,
-0.718689,1.14441,
-0.595093,1.12762,
-0.474548,1.07574,
-0.361633,1.07117,
-0.254822,1.11694,
-0.154114,1.14441,
-0.0579834,1.13525,
0.0244141,1.07269,
0.0976563,1.04828,
0.172424,1.11694,
0.233459,1.14288,
0.294495,1.1261,
0.340271,1.07727,
0.386047,1.06812,
0.421143,1.11389,
0.450134,1.15204,
0.479126,1.13525,
0.497437,1.08032,
0.511169,1.07269,
0.524902,1.11694,
0.535583,1.15051,
0.534058,1.13831,
0.538635,1.0788,
0.52948,1.07117,
0.518799,1.12,
0.502014,1.15356,
0.482178,1.14288,
0.457764,1.0849,
0.428772,1.07269,
0.401306,1.10779,
0.370789,1.15814,
0.337219,1.14136,
0.299072,1.08643,
0.262451,1.07574,
0.222778,1.12305,
0.184631,1.15814,
0.146484,1.14594,
0.109863,1.08185,
0.0732422,1.07574,
0.0320435,1.13068,
0,1.20392,
-0.0320435,1.14746,
-0.0671387,1.091,
-0.0991821,1.07574,
-0.131226,1.12457,
-0.160217,1.16272,
-0.183105,1.15967,
-0.205994,1.08337,
-0.22583,1.08337,
-0.248718,1.13678,
-0.263977,1.17798,
-0.279236,1.15204,
-0.296021,1.10168,
-0.300598,1.08337,
-0.30365,1.13831,
-0.311279,1.1673,
-0.312805,1.15356,
-0.308228,1.10016,
-0.315857,1.08643,
-0.311279,1.13831,
-0.308228,1.1673,
-0.305176,1.15204,
-0.300598,1.10779,
-0.297546,1.091,
-0.291443,1.13983,
-0.291443,1.1795,
-0.285339,1.15356,
-0.286865,1.10779,
-0.283813,1.091,
-0.283813,1.15356,
-0.280762,1.17188,
-0.271606,1.16272,
-0.273132,1.11237,
-0.270081,1.10016,
-0.268555,1.14441,
-0.271606,1.17493,
-0.273132,1.15814,
-0.27771,1.10321,
-0.280762,1.09863,
-0.291443,1.14594,
-0.296021,1.17493,
-0.302124,1.16425,
-0.306702,1.11237,
-0.32196,1.10626,
-0.331116,1.14746,
-0.3479,1.2207,
-0.358582,1.1673,
-0.375366,1.11847,
-0.389099,1.10321,
-0.40741,1.15051,
-0.427246,1.18103,
-0.439453,1.16577,
-0.465393,1.12152,
-0.489807,1.10168,
-0.512695,1.13983,
-0.537109,1.18256,
-0.564575,1.16882,
-0.592041,1.12152,
-0.62561,1.10626,
-0.657654,1.15662,
-0.68512,1.18713,
-0.718689,1.17035,
-0.752258,1.12762,
-0.788879,1.10779,
-0.823975,1.15967,
-0.856018,1.18408,
-0.895691,1.1734,
-0.930786,1.1261,
-0.968933,1.11542,
-1.00403,1.16425,
-1.04523,1.19171,
-1.08185,1.17188,
-1.11389,1.13068,
-1.15356,1.11084,
-1.18866,1.16272,
-1.22375,1.19171,
-1.2619,1.17493,
-1.30005,1.13373,
-1.33972,1.11542,
-1.37939,1.15967,
-1.41144,1.19019,
-1.45111,1.17645,
-1.48621,1.13983,
-1.5213,1.09711,
-1.56403,1.16272,
-1.59912,1.18866,
-1.63269,1.17493,
-1.66626,1.13525,
-1.69525,1.11542,
-1.73035,1.16425,
-1.76392,1.19324,
-1.79138,1.1795,
-1.8219,1.11389,
-1.85852,1.11847,
-1.88446,1.17188,
-1.9104,1.19324,
-1.93939,1.17798,
-1.97144,1.15204,
-1.9989,1.12,
-2.02789,1.16425,
-2.05536,1.23138,
-2.08588,1.15051,
-2.10724,1.14441,
-2.14081,1.12305,
-2.17133,1.1673,
-2.19421,1.19629,
-2.22473,1.19781,
-2.2522,1.14288,
-2.28271,1.10626,
-2.31323,1.15967,
-2.3407,1.21002,
-2.36359,1.18103,
-2.39258,1.14594,
-2.41699,1.12457,
-2.44446,1.16425,
-2.4704,1.19629,
-2.49939,1.14899,
-2.52075,1.15204,
-2.54669,1.13068,
-2.56805,1.17188,
-2.59094,1.2085,
-2.61536,1.18408,
-2.63977,1.15662,
-2.66418,1.13068,
-2.68707,1.17035,
-2.70844,1.20697,
-2.73285,1.18561,
-2.75269,1.15662,
-2.77252,1.13373,
-2.79846,1.17188,
-2.8183,1.20239,
-2.84424,1.18408,
-2.86407,1.15967,
-2.89154,1.13678,
-2.91901,1.17035,
-2.94189,1.20239,
-2.96478,1.20087,
-2.99072,1.15509,
-3.01971,1.13983,
-3.0426,1.17493,
-3.07007,1.23291,
-3.09296,1.18408,
-3.1189,1.15509,
-3.14484,1.13983,
-3.17535,1.17493,
-3.20282,1.20392,
-3.23334,1.18713,
-3.25775,1.15967,
-3.28369,1.14288,
-3.30658,1.17493,
-3.33252,1.20544,
-3.35388,1.18561,
-3.37677,1.16425,
-3.39813,1.13983,
-3.41949,1.17493,
-3.44543,1.20392,
-3.46375,1.18561,
-3.48816,1.16272,
-3.5141,1.13983,
-3.53394,1.17645,
-3.55835,1.20239,
-3.57971,1.18713,
-3.6026,1.15814,
-3.62396,1.14441,
-3.64838,1.17493,
-3.66821,1.20392,
-3.6911,1.18866,
-3.71246,1.15967,
-3.73535,1.14441,
-3.75824,1.17493,
-3.78113,1.2085,
-3.80402,1.19019,
-3.83301,1.16425,
-3.8559,1.14288,
-3.87726,1.17493,
-3.89709,1.17493,
-3.91846,1.19019,
-3.93982,1.17188,
-3.97034,1.14594,
-3.99475,1.18103,
-4.01764,1.21155,
-4.04205,1.18713,
-4.07257,1.16882,
-4.10004,1.11389,
-4.12903,1.17188,
-4.15649,1.19781,
-4.18091,1.19019,
-4.20532,1.1673,
-4.23279,1.14594,
-4.25262,1.17645,
-4.27704,1.2085,
-4.29993,1.18256,
-4.32129,1.17188,
-4.34875,1.14594,
-4.37622,1.17645,
-4.40521,1.2085,
-4.42505,1.19781,
-4.45251,1.17188,
-4.4754,1.15051,
-4.49677,1.1795,
-4.51965,1.21155,
-4.54559,1.19324,
-4.56696,1.17188,
-4.58984,1.14899,
-4.62036,1.1795,
-4.6463,1.21002,
-4.67377,1.19781,
-4.70276,1.17035,
-4.7287,1.15204,
-4.75464,1.17645,
-4.78058,1.21307,
-4.80499,1.19934,
-4.83246,1.15356,
-4.85382,1.15051,
-4.87061,1.18103,
-4.88129,1.2146,
-4.88586,1.20087,
-4.88892,1.16882,
-4.87976,1.15662,
-4.85535,1.18561,
-4.82025,1.21307,
-4.776,1.20392,
-4.72412,1.17798,
-4.66156,1.15967,
-4.58832,1.18103,
-4.50134,1.21765,
-4.41132,1.20544,
-4.30603,1.17798,
-4.19312,1.15662,
-4.07257,1.1795,
-3.94135,1.21613,
-3.79944,1.20239,
-3.65295,1.17493,
-3.50037,1.15662,
-3.3432,1.18408,
-3.17993,1.21765,
-3.01819,1.2085,
-2.84729,1.18103,
-2.68402,1.15967,
-2.51312,1.18713,
-2.34833,1.22223,
-2.18201,1.2085,
-2.02484,1.18408,
-1.86768,1.15967,
-1.71509,1.18408,
-1.56555,1.21918,
-1.41296,1.21155,
-1.27106,1.16577,
-1.13068,1.16425,
-1.0025,1.18408,
-0.87738,1.21765,
-0.759888,1.21002,
-0.646973,1.18103,
-0.541687,1.16882,
-0.445557,1.18408,
-0.352478,1.22223,
-0.270081,1.2146,
-0.192261,1.18713,
-0.119019,1.16425,
-0.0595093,1.19019,
0.00152588,1.22375,
0.050354,1.22528,
0.0976563,1.1795,
0.138855,1.1322,
0.167847,1.18561,
0.195313,1.23291,
0.216675,1.21155,
0.230408,1.18561,
0.238037,1.18256,
0.245667,1.19019,
0.247192,1.28326,
0.245667,1.22375,
0.244141,1.19324,
0.230408,1.17035,
0.216675,1.19019,
0.201416,1.23749,
0.18158,1.22528,
0.157166,1.19629,
0.131226,1.17493,
0.0991821,1.19324,
0.0640869,1.23901,
0.0320435,1.22681,
-0.00305176,1.19629,
-0.0396729,1.17493,
-0.0717163,1.19781,
-0.106812,1.23749,
-0.144958,1.23291,
-0.186157,1.19629,
-0.221252,1.18103,
-0.254822,1.19934,
-0.288391,1.24207,
-0.318909,1.23596,
-0.343323,1.19934,
-0.372314,1.18103,
-0.393677,1.20087,
-0.408936,1.24664,
-0.427246,1.23749,
-0.436401,1.20697,
-0.445557,1.18408,
-0.454712,1.20544,
-0.45929,1.24359,
-0.466919,1.23901,
-0.471497,1.20544,
-0.4776,1.18713,
-0.476074,1.20697,
-0.480652,1.24969,
-0.476074,1.24359,
-0.476074,1.2085,
-0.471497,1.18866,
-0.471497,1.2085,
-0.463867,1.25427,
-0.45929,1.24359,
-0.45166,1.21002,
-0.450134,1.19019,
-0.442505,1.21002,
-0.440979,1.2558,
-0.437927,1.24664,
-0.431824,1.21307,
-0.427246,1.19781,
-0.424194,1.21765,
-0.419617,1.2558,
-0.410461,1.25122,
-0.405884,1.2146,
-0.402832,1.19934,
-0.39978,1.21765,
-0.398254,1.26038,
-0.39978,1.25275,
-0.395203,1.21765,
-0.396729,1.19781,
-0.39978,1.2146,
-0.404358,1.26343,
-0.40741,1.25275,
-0.415039,1.2207,
-0.427246,1.20087,
-0.434875,1.2146,
-0.45166,1.26648,
-0.465393,1.25732,
-0.485229,1.22375,
-0.498962,1.20544,
-0.521851,1.25122,
-0.541687,1.26343,
-0.561523,1.25427,
-0.585938,1.2207,
-0.608826,1.21155,
-0.640869,1.21918,
-0.671387,1.27258,
-0.698853,1.30768,
-0.726318,1.20392,
-0.753784,1.19629,
-0.782776,1.22223,
-0.811768,1.26801,
-0.846863,1.26801,
-0.87738,1.23291,
-0.915527,1.21155,
-0.946045,1.23138,
-0.979614,1.28021,
-1.00861,1.27258,
-1.04218,1.23749,
-1.07574,1.21765,
-1.11084,1.21765,
-1.14899,1.28479,
-1.18408,1.27716,
-1.21918,1.23901,
-1.25275,1.2207,
-1.30005,1.23291,
-1.3382,1.28326,
-1.37177,1.27869,
-1.41296,1.24207,
-1.44653,1.22375,
-1.48926,1.23444,
-1.52435,1.28937,
-1.5625,1.28021,
-1.60675,1.24054,
-1.64185,1.22986,
-1.67999,1.23749,
-1.71814,1.28937,
-1.75934,1.28479,
-1.80054,1.24664,
-1.84021,1.22681,
-1.87683,1.24054,
-1.91498,1.29547,
-1.9577,1.29089,
-2.00043,1.24664,
-2.04163,1.27869,
-2.0752,1.23901,
-2.11029,1.29547,
-2.14386,1.28632,
-2.18201,1.25122,
-2.21558,1.24054,
-2.24915,1.26343,
-2.27661,1.33362,
-2.31171,1.28784,
-2.33917,1.25885,
-2.36969,1.23596,
-2.39716,1.24512,
-2.4231,1.29852,
-2.44598,1.28174,
-2.47192,1.25732,
-2.49481,1.23291,
-2.5177,1.24969,
-2.53601,1.297,
-2.55432,1.29547,
-2.57721,1.25427,
-2.59552,1.23901,
-2.61993,1.25275,
-2.64435,1.30157,
-2.66571,1.29242,
-2.69012,1.25732,
-2.71301,1.24054,
-2.73438,1.25275,
-2.75879,1.30615,
-2.7832,1.29547,
-2.80609,1.26343,
-2.8244,1.24054,
-2.85034,1.25427,
-2.8717,1.30615,
-2.89154,1.30157,
-2.90833,1.26038,
-2.93579,1.24054,
-2.95563,1.25427,
-2.97699,1.30615,
-2.99988,1.30157,
-3.01971,1.26495,
-3.03802,1.23749,
-3.05939,1.25885,
-3.0838,1.30463,
-3.10669,1.30157,
-3.1311,1.26801,
-3.15247,1.24207,
-3.18298,1.26343,
-3.20282,1.3092,
-3.22418,1.34583,
-3.24097,1.28021,
-3.2608,1.24207,
-3.28369,1.26038,
-3.30353,1.30768,
-3.32184,1.30463,
-3.34473,1.26953,
-3.36609,1.24054,
-3.3905,1.26343,
-3.41797,1.31073,
-3.43933,1.30615,
-3.46527,1.27411,
-3.49274,1.24664,
-3.51868,1.26038,
-3.54767,1.31531,
-3.56903,1.3092,
-3.59344,1.27411,
-3.62091,1.25427,
-3.64075,1.26495,
-3.66669,1.31378,
-3.69263,1.31073,
-3.71857,1.27411,
-3.74908,1.25122,
-3.77197,1.26495,
-3.79333,1.31226,
-3.82233,1.31073,
-3.84674,1.27716,
-3.87421,1.24817,
-3.90015,1.27258,
-3.92303,1.31683,
-3.94745,1.31226,
-3.96729,1.27869,
-3.99628,1.26038,
-4.01459,1.27258,
-4.039,1.31683,
-4.06799,1.31531,
-4.08936,1.27716,
-4.11224,1.24817,
-4.13208,1.27716,
-4.15649,1.31836,
-4.18243,1.31378,
-4.20227,1.27563,
-4.22821,1.25427,
-4.25568,1.26953,
-4.27704,1.31836,
-4.29993,1.31683,
-4.32587,1.28174,
-4.34723,1.24817,
-4.36859,1.27716,
-4.38232,1.31836,
-4.39911,1.31531,
-4.40979,1.27411,
-4.40979,1.24969,
-4.40979,1.27716,
-4.39758,1.31989,
-4.37775,1.32141,
-4.34723,1.27716,
-4.30756,1.25122,
-4.25262,1.27258,
-4.18701,1.37329,
-4.1153,1.31989,
-4.03595,1.26953,
-3.93982,1.25275,
-3.83911,1.28021,
-3.7323,1.31531,
-3.61481,1.31989,
-3.48969,1.28174,
-3.35388,1.25427,
-3.21503,1.27258,
-3.07007,1.32599,
-2.91748,1.31836,
-2.76642,1.29089,
-2.60925,1.26038,
-2.44904,1.28174,
-2.28882,1.32141,
-2.1286,1.32446,
-1.98212,1.28326,
-1.828,1.25427,
-1.67999,1.27869,
-1.53046,1.31989,
-1.3855,1.33209,
-1.25275,1.28479,
-1.11694,1.25122,
-0.98877,1.28174,
-0.866699,1.31989,
-0.747681,1.32446,
-0.63324,1.29242,
-0.526428,1.25122,
-0.424194,1.28021,
-0.323486,1.32294,
-0.228882,1.30615,
-0.144958,1.28632,
-0.0656128,1.25122,
0.00457764,1.27869,
0.0717163,1.32294,
0.128174,1.33362,
0.184631,1.28632,
0.227356,1.28632,
0.265503,1.28021,
0.297546,1.32599,
0.325012,1.32446,
0.340271,1.29242,
0.35553,1.25122,
0.363159,1.27869,
0.364685,1.32294,
0.369263,1.32141,
0.360107,1.28784,
0.35553,1.25427,
0.337219,1.27869,
0.32196,1.32446,
0.306702,1.32141,
0.286865,1.28784,
0.260925,1.25122,
0.231934,1.27869,
0.19989,1.32446,
0.160217,1.31836,
0.12207,1.28937,
0.0869751,1.25122,
0.0427246,1.27716,
0.00457764,1.32599,
-0.0335693,1.32294,
-0.0762939,1.28937,
-0.120544,1.25427,
-0.158691,1.27716,
-0.201416,1.32446,
-0.239563,1.31989,
-0.279236,1.28632,
-0.317383,1.25885,
-0.349426,1.28021,
-0.379944,1.30615,
-0.40741,1.29852,
-0.436401,1.28174,
-0.45929,1.25732,
-0.4776,1.27716,
-0.498962,1.31836,
-0.511169,1.33514,
-0.527954,1.28326,
-0.534058,1.23138,
-0.547791,1.25732,
-0.556946,1.31989,
-0.556946,1.32294,
-0.556946,1.28632,
-0.553894,1.25122,
-0.552368,1.27258,
-0.546265,1.31531,
-0.537109,1.32294,
-0.524902,1.28784,
-0.509644,1.26038,
-0.506592,1.28174,
-0.494385,1.31989,
-0.483704,1.33209,
-0.469971,1.28479,
-0.45929,1.26801,
-0.445557,1.27563,
-0.437927,1.32294,
-0.424194,1.31683,
-0.416565,1.28479,
-0.410461,1.25275,
-0.401306,1.28021,
-0.401306,1.29089,
-0.396729,1.32294,
-0.392151,1.28479,
-0.389099,1.25427,
-0.392151,1.27716,
-0.396729,1.31989,
-0.402832,1.32294,
-0.416565,1.28479,
-0.427246,1.25427,
-0.439453,1.27716,
-0.445557,1.32294,
-0.463867,1.32141,
-0.479126,1.28326,
-0.498962,1.24664,
-0.512695,1.27563,
-0.534058,1.31989,
-0.559998,1.31836,
-0.58136,1.28174,
-0.608826,1.24664,
-0.63324,1.27563,
-0.65918,1.31836,
-0.689697,1.31836,
-0.718689,1.28021,
-0.749207,1.24817,
-0.78125,1.27106,
-0.816345,1.31683,
-0.843811,1.31531,
-0.87738,1.27869,
-0.909424,1.24817,
-0.938416,1.27411,
-0.970459,1.31531,
-1.00403,1.31683,
-1.03912,1.27563,
-1.07422,1.24512,
-1.10931,1.27411,
-1.14441,1.31378,
-1.17645,1.29852,
-1.21155,1.27869,
-1.24969,1.24207,
-1.28632,1.27716,
-1.31836,1.31226,
-1.35498,1.31378,
-1.39008,1.27716,
-1.4267,1.24359,
-1.46332,1.26648,
-1.50299,1.31683,
-1.53961,1.31073,
-1.57318,1.27411,
-1.6098,1.24512,
-1.64185,1.27258,
-1.68152,1.30768,
-1.71661,1.31531,
-1.75629,1.27258,
-1.79443,1.24207,
-1.83258,1.27258,
-1.86462,1.30615,
-1.90277,1.31073,
-1.93634,1.27258,
-1.97296,1.24359,
-2.00958,1.27258,
-2.04315,1.30615,
-2.07367,1.31073,
-2.10724,1.26648,
-2.14081,1.23901,
-2.17896,1.27563,
-2.211,1.3092,
-2.23999,1.3092,
-2.27203,1.26953,
-2.30713,1.23596,
-2.33459,1.26953,
-2.36206,1.31226,
-2.38953,1.30463,
-2.41699,1.26648,
-2.43988,1.23749,
-2.46735,1.26801,
-2.49481,1.30768,
-2.5116,1.3092,
-2.53906,1.26648,
-2.56195,1.23596,
-2.58484,1.26038,
-2.60773,1.30615,
-2.63214,1.30615,
-2.6535,1.26343,
-2.67944,1.22986,
-2.70233,1.26495,
-2.72827,1.30615,
-2.74811,1.29852,
-2.771,1.26495,
-2.79846,1.23138,
-2.82135,1.23444,
-2.84119,1.3031,
-2.8656,1.30157,
-2.88544,1.26038,
-2.90833,1.23291,
-2.92969,1.26648,
-2.95258,1.29547,
-2.98004,1.3031,
-3.0014,1.25427,
-3.02277,1.22375,
-3.04718,1.26038,
-3.06854,1.297,
-3.0899,1.29242,
-3.11432,1.25427,
-3.14178,1.22223,
-3.1662,1.26038,
-3.18756,1.28937,
-3.2135,1.29547,
-3.23944,1.25122,
-3.2608,1.22528,
-3.28369,1.25732,
-3.30811,1.297,
-3.32947,1.297,
-3.35541,1.24969,
-3.38135,1.2207,
-3.40729,1.25885,
-3.43323,1.30005,
-3.45612,1.28937,
-3.48206,1.24664,
-3.5141,1.22223,
-3.53699,1.27411,
-3.56445,1.29242,
-3.59344,1.29089,
-3.61481,1.24359,
-3.64227,1.2207,
-3.66821,1.26038,
-3.6972,1.28937,
-3.72162,1.27258,
-3.75061,1.24512,
-3.77808,1.21613,
-3.80249,1.25427,
-3.83301,1.28021,
-3.86047,1.28784,
-3.88794,1.23901,
-3.91235,1.21307,
-3.94287,1.25122,
-3.97186,1.28632,
-3.99628,1.28326,
-4.01917,1.24054,
-4.039,1.24969,
-4.04663,1.27411,
-4.05579,1.26953,
-4.05121,1.28021,
-4.04358,1.23901,
-4.02374,1.21155,
-3.99475,1.24664,
-3.95813,1.28784,
-3.90778,1.28632,
-3.84979,1.23749,
-3.78113,1.21155,
-3.70331,1.24359,
-3.61328,1.28479,
-3.51257,1.28021,
-3.40729,1.23596,
-3.28979,1.2085,
-3.16467,1.24512,
-3.02887,1.28784,
-2.89001,1.27869,
-2.74048,1.23444,
-2.59094,1.20544,
-2.43225,1.24359,
-2.27814,1.28326,
-2.12097,1.26038,
-1.96686,1.23291,
-1.80817,1.20392,
-1.6571,1.23749,
-1.50757,1.28021,
-1.35803,1.27716,
-1.21002,1.22986,
-1.07117,1.21002,
-0.933838,1.22528,
-0.804138,1.27563,
-0.674438,1.27411,
-0.553894,1.22528,
-0.444031,1.20087,
-0.338745,1.23291,
-0.231934,1.27258,
-0.135803,1.27258,
-0.050354,1.22528,
0.0289917,1.20239,
0.108337,1.23596,
0.169373,1.26801,
0.230408,1.26648,
0.285339,1.22528,
0.32959,1.19171,
0.367737,1.23596,
0.402832,1.26495,
0.430298,1.26801,
0.454712,1.21765,
0.469971,1.19781,
0.482178,1.23444,
0.482178,1.25885,
0.485229,1.26801,
0.476074,1.2207,
0.466919,1.18408,
0.456238,1.23749,
0.440979,1.26801,
0.421143,1.26648,
0.396729,1.21918,
0.369263,1.19019,
0.340271,1.23291,
0.314331,1.26495,
0.276184,1.26648,
0.230408,1.21307,
0.189209,1.18713,
0.14801,1.22986,
0.108337,1.26038,
0.0640869,1.26038,
0.0244141,1.21307,
-0.0198364,1.17645,
-0.062561,1.23749,
-0.105286,1.25885,
-0.144958,1.2558,
-0.184631,1.21155,
-0.221252,1.18103,
-0.254822,1.22986,
-0.285339,1.26495,
-0.312805,1.25732,
-0.340271,1.21002,
-0.366211,1.18103,
-0.390625,1.22681,
-0.419617,1.25885,
-0.436401,1.25275,
-0.460815,1.20697,
-0.473022,1.17188,
-0.494385,1.22528,
-0.498962,1.2558,
-0.511169,1.25122,
-0.517273,1.20697,
-0.521851,1.17188,
-0.523376,1.22375,
-0.526428,1.25427,
-0.526428,1.24969,
-0.526428,1.20697,
-0.521851,1.1734,
-0.520325,1.2207,
-0.517273,1.24969,
-0.509644,1.25275,
-0.506592,1.20544,
-0.498962,1.1734,
-0.495911,1.20239,
-0.489807,1.25275,
-0.483704,1.24969,
-0.480652,1.21155,
-0.473022,1.16882,
-0.473022,1.21155,
-0.471497,1.24207,
-0.479126,1.21155,
-0.479126,1.19629,
-0.488281,1.16882,
-0.494385,1.2085,
-0.495911,1.24054,
-0.511169,1.24359,
-0.520325,1.19934,
-0.532532,1.16882,
-0.546265,1.20544,
-0.556946,1.24054,
-0.569153,1.24359,
-0.58136,1.20697,
-0.598145,1.16272,
-0.621033,1.20392,
-0.639343,1.23596,
-0.65155,1.24664,
-0.674438,1.19019,
-0.704956,1.16272,
-0.730896,1.20239,
-0.758362,1.23596,
-0.784302,1.23901,
-0.814819,1.19019,
-0.846863,1.16272,
-0.878906,1.20087,
-0.906372,1.24054,
-0.941467,1.23596,
-0.971985,1.17798,
-1.01013,1.15814,
-1.0437,1.19324,
-1.07727,1.23901,
-1.11542,1.23901,
-1.14899,1.19324,
-1.18561,1.15662,
-1.21918,1.18713,
-1.2558,1.25122,
-1.29242,1.22986,
-1.32446,1.18713,
-1.35956,1.15356,
-1.39313,1.19019,
-1.42365,1.23291,
-1.45721,1.22986,
-1.49231,1.18408,
-1.52893,1.15204,
-1.56403,1.18866,
-1.5976,1.23749,
-1.63269,1.22986,
-1.67542,1.18408,
-1.71204,1.15051,
-1.74713,1.18713,
-1.78223,1.23749,
-1.8158,1.23138,
-1.85242,1.18713,
-1.88599,1.15356,
-1.92413,1.18408,
-1.95618,1.23901,
-1.98975,1.22681,
-2.02332,1.18256,
-2.06604,1.14899,
-2.09351,1.18561,
-2.12555,1.23444,
-2.15759,1.22375,
-2.18964,1.18408,
-2.2171,1.14594,
-2.24762,1.18103,
-2.28119,1.23749,
-2.31018,1.22375,
-2.34375,1.18561,
-2.36969,1.14746,
-2.39868,1.18103,
-2.4292,1.22986,
-2.45819,1.2207,
-2.48718,1.16577,
-2.51617,1.15356,
-2.54364,1.17493,
-2.57568,1.22528,
-2.60162,1.21613,
-2.62756,1.1795,
-2.6535,1.1322,
-2.67792,1.17035,
-2.70233,1.21918,
-2.72675,1.21765,
-2.75269,1.17035,
-2.78168,1.14136,
-2.81219,1.16272,
-2.83813,1.17798,
-2.86102,1.22681,
-2.88391,1.17035,
-2.90833,1.13983,
-2.93427,1.16882,
-2.95868,1.21613,
-2.97852,1.21155,
-3.0014,1.17493,
-3.02124,1.10321,
-3.04108,1.1673,
-3.06702,1.2146,
-3.0899,1.21918,
-3.10974,1.17645,
-3.13568,1.14746,
-3.15399,1.15356,
-3.17688,1.21765,
-3.19366,1.19019,
-3.2196,1.17645,
-3.23639,1.13678,
-3.25165,1.16577,
-3.27454,1.21002,
-3.2959,1.21307,
-3.32031,1.17035,
-3.34167,1.13525,
-3.36151,1.16425,
-3.38135,1.21307,
-3.39813,1.21155,
-3.41949,1.1734,
-3.43628,1.13525,
-3.45764,1.15662,
-3.48053,1.21307,
-3.50189,1.2085,
-3.52631,1.1673,
-3.54919,1.1322,
-3.57056,1.15356,
-3.59192,1.2085,
-3.61938,1.20697,
-3.64227,1.16425,
-3.66974,1.13068,
-3.69568,1.14899,
-3.72467,1.1795,
-3.75214,1.2085,
-3.77808,1.16425,
-3.80402,1.12762,
-3.82843,1.15662,
-3.85284,1.21307,
-3.87268,1.20697,
-3.89404,1.16882,
-3.90167,1.12762,
-3.90625,1.15356,
-3.90472,1.2085,
-3.88947,1.20697,
-3.86658,1.15967,
-3.83301,1.1261,
-3.78876,1.15051,
-3.72925,1.20697,
-3.66211,1.20239,
-3.58276,1.16272,
-3.49579,1.1261,
-3.39813,1.15356,
-3.28979,1.20697,
-3.17535,1.20239,
-3.04718,1.15967,
-2.91595,1.12305,
-2.77863,1.14746,
-2.63367,1.20544,
-2.4826,1.20087,
-2.33307,1.15814,
-2.17896,1.12,
-2.02637,1.14594,
-1.87225,1.20697,
-1.71661,1.19934,
-1.5625,1.15814,
-1.41144,1.12305,
-1.26495,1.14746,
-1.12152,1.2085,
-0.98114,1.18866,
-0.842285,1.15204,
-0.714111,1.11237,
-0.592041,1.14594,
-0.476074,1.20239,
-0.364685,1.20087,
-0.260925,1.15662,
-0.163269,1.11542,
-0.0686646,1.14441,
0.0137329,1.21155,
0.0930786,1.19781,
0.166321,1.15509,
0.227356,1.11847,
0.286865,1.14288,
0.337219,1.19781,
0.389099,1.19934,
0.422668,1.13831,
0.454712,1.11847,
0.4776,1.13983,
0.497437,1.19934,
0.511169,1.19324,
0.521851,1.15051,
0.532532,1.12305,
0.532532,1.12457,
0.534058,1.20239,
0.524902,1.19781,
0.517273,1.15051,
0.508118,1.11847,
0.491333,1.13983,
0.468445,1.19934,
0.45166,1.19019,
0.421143,1.14899,
0.386047,1.11694,
0.361633,1.13831,
0.32196,1.19171,
0.285339,1.19324,
0.241089,1.15051,
0.198364,1.11237,
0.157166,1.1322,
0.114441,1.19629,
0.0701904,1.19324,
0.0244141,1.14746,
-0.0183105,1.11389,
-0.0671387,1.13678,
-0.106812,1.19934,
-0.152588,1.19019,
-0.190735,1.15204,
-0.231934,1.11084,
-0.273132,1.1322,
-0.306702,1.19019,
-0.338745,1.19324,
-0.370789,1.14746,
-0.393677,1.10779,
-0.416565,1.1322,
-0.439453,1.18866,
-0.454712,1.19171,
-0.468445,1.14441,
-0.479126,1.11084,
-0.492859,1.12457,
-0.505066,1.19019,
-0.517273,1.18866,
-0.521851,1.14594,
-0.527954,1.10779,
-0.531006,1.13068,
-0.532532,1.19019,
-0.52948,1.18561,
-0.52948,1.15509,
-0.526428,1.11084,
-0.518799,1.1261,
-0.512695,1.19019,
-0.509644,1.18713,
-0.506592,1.14594,
-0.50354,1.10779,
-0.50354,1.13068,
-0.498962,1.18866,
-0.50354,1.18713,
-0.505066,1.14288,
-0.502014,1.10626,
-0.502014,1.16425,
-0.500488,1.20697,
-0.502014,1.18103,
-0.502014,1.14288,
-0.505066,1.10168,
-0.509644,1.1261,
-0.518799,1.18561,
-0.527954,1.1795,
-0.538635,1.19324,
-0.549316,1.10474,
-0.558472,1.12457,
-0.576782,1.18713,
-0.590515,1.18408,
-0.610352,1.13983,
-0.63324,1.10321,
-0.657654,1.11847,
-0.680542,1.18408,
-0.706482,1.17035,
-0.740051,1.13983,
-0.772095,1.10168,
-0.804138,1.12305,
-0.834656,1.18103,
-0.863647,1.18408,
-0.897217,1.13831,
-0.930786,1.10168,
-0.967407,1.12457,
-1.00098,1.1795,
-1.0376,1.18103,
-1.07422,1.13983,
-1.11542,1.10321,
-1.15204,1.12305,
-1.19476,1.15814,
-1.23291,1.15356,
-1.27411,1.13373,
-1.31836,1.10168,
-1.35956,1.12,
-1.40228,1.18408,
-1.44196,1.18408,
-1.48468,1.12305,
-1.53046,1.09711,
-1.57623,1.12,
-1.61896,1.18103,
-1.66473,1.18408,
-1.70898,1.13525,
-1.74713,1.10016,
-1.78986,1.11847,
-1.83563,1.17035,
-1.87378,1.21002,
-1.9104,1.13525,
-1.95313,1.10016,
-1.98669,1.12305,
-2.02332,1.16577,
-2.06604,1.18103,
-2.10266,1.13678,
-2.13623,1.09711,
-2.1698,1.12152,
-2.211,1.17493,
-2.24915,1.1795,
-2.28729,1.13373,
-2.32239,1.09406,
-2.35748,1.11847,
-2.38953,1.1795,
-2.42462,1.17798,
-2.45819,1.1322,
-2.49023,1.09711,
-2.52228,1.11084,
-2.55585,1.1734,
-2.58636,1.18103,
-2.61841,1.13068,
-2.65045,1.09406,
-2.67792,1.11847,
-2.70233,1.17188,
-2.72522,1.18408,
-2.74963,1.13525,
-2.78015,1.10321,
-2.80609,1.10168,
-2.83051,1.1734,
-2.84882,1.18866,
-2.86865,1.12762,
-2.88696,1.08032,
-2.90833,1.12,
-2.92664,1.1734,
-2.94647,1.18103,
-2.95868,1.13068,
-2.96936,1.09406,
-2.9892,1.11694,
-2.99988,1.17188,
-3.01514,1.17798,
-3.03345,1.14288,
-3.04871,1.09711,
-3.06702,1.11694,
-3.08533,1.17035,
-3.10211,1.17493,
-3.12347,1.13525,
-3.14331,1.091,
-3.16162,1.10626,
-3.18451,1.16882,
-3.20587,1.17645,
-3.22723,1.13068,
-3.2486,1.09711,
-3.27148,1.11389,
-3.29285,1.17035,
-3.30811,1.18103,
-3.32794,1.12762,
-3.3493,1.091,
-3.37067,1.11694,
-3.38745,1.17188,
-3.40881,1.17493,
-3.4256,1.13068,
-3.44849,1.091,
-3.47137,1.11237,
-3.49274,1.16425,
-3.51257,1.17798,
-3.53241,1.12762,
-3.54919,1.09406,
-3.57056,1.11084,
-3.59344,1.16425,
-3.61633,1.1734,
-3.6377,1.1261,
-3.66211,1.09253,
-3.68195,1.11389,
-3.70483,1.16577,
-3.72467,1.18256,
-3.74908,1.12457,
-3.77655,1.1322,
-3.80096,1.11084,
-3.82996,1.16272,
-3.86047,1.17798,
-3.88641,1.13373,
-3.90778,1.09253,
-3.92914,1.11389,
-3.9444,1.16272,
-3.9505,1.17645,
-3.95813,1.1261,
-3.96423,1.08948,
-3.95203,1.10931,
-3.93829,1.15967,
-3.90472,1.17493,
-3.86505,1.12457,
-3.81927,1.09253,
-3.75824,1.10474,
-3.68958,1.15814,
-3.61633,1.17493,
-3.52631,1.12152,
-3.43018,1.08948,
-3.32642,1.11237,
-3.21655,1.15662,
-3.09296,1.17645,
-2.96783,1.12152,
-2.83661,1.09253,
-2.69928,1.10931,
-2.55585,1.15662,
-2.41089,1.17493,
-2.26135,1.12305,
-2.11487,1.08948,
-1.96533,1.10931,
-1.81732,1.15662,
-1.66779,1.17493,
-1.52435,1.12762,
-1.38397,1.10016,
-1.24054,1.11084,
-1.10626,1.15662,
-0.976563,1.17645,
-0.849915,1.12305,
-0.730896,1.08948,
-0.621033,1.10626,
-0.506592,1.16272,
-0.408936,1.16577,
-0.314331,1.12457,
-0.222778,1.091,
-0.143433,1.10779,
-0.0640869,1.14288,
0.00610352,1.1734,
0.0671387,1.1261,
0.12207,1.08948,
0.169373,1.11084,
0.216675,1.15662,
0.257874,1.1734,
0.288391,1.12152,
0.315857,1.08795,
0.337219,1.11084,
0.352478,1.15509,
0.366211,1.1734,
0.370789,1.12152,
0.369263,1.091,
0.367737,1.10779,
0.366211,1.15356,
0.354004,1.1734,
0.337219,1.12305,
0.318909,1.08795,
0.286865,1.10474,
0.256348,1.15204,
0.227356,1.17035,
0.184631,1.12305,
0.151062,1.08948,
0.112915,1.10626,
0.0717163,1.14746,
0.0305176,1.17035,
-0.00610352,1.12,
-0.0442505,1.08795,
-0.0869751,1.10779,
-0.1297,1.14746,
-0.175476,1.17188,
-0.218201,1.12152,
-0.260925,1.08948,
-0.300598,1.10168,
-0.337219,1.15051,
-0.379944,1.1673,
-0.410461,1.12,
-0.442505,1.09406,
-0.471497,1.08795,
-0.500488,1.12305,
-0.524902,1.16577,
-0.547791,1.12152,
-0.567627,1.10474,
-0.578308,1.10321,
-0.590515,1.14746,
-0.602722,1.17035,
-0.608826,1.12,
-0.613403,1.08795,
-0.616455,1.10474,
-0.622559,1.14746,
-0.622559,1.17035,
-0.621033,1.12,
-0.624084,1.08643,
-0.624084,1.10626,
-0.617981,1.14746,
-0.613403,1.16882,
-0.610352,1.11847,
-0.608826,1.08948,
-0.601196,1.10474,
-0.59967,1.14746,
-0.593567,1.16882,
-0.588989,1.12305,
-0.582886,1.09253,
-0.58136,1.10626,
-0.58136,1.14899,
-0.582886,1.1673,
-0.585938,1.11847,
-0.588989,1.0849,
-0.595093,1.10321,
-0.598145,1.14441,
-0.6073,1.16882,
-0.613403,1.11694,
-0.624084,1.0849,
-0.631714,1.10321,
-0.639343,1.15051,
-0.653076,1.16425,
-0.663757,1.12,
-0.682068,1.08337,
-0.697327,1.10474,
-0.715637,1.14441,
-0.735474,1.16425,
-0.753784,1.11694,
-0.776672,1.091,
-0.796509,1.10626,
-0.819397,1.13983,
-0.845337,1.16577,
-0.872803,1.11694,
-0.900269,1.0849,
-0.933838,1.10474,
-0.961304,1.14594,
-0.994873,1.15967,
-1.02692,1.11847,
-1.06354,1.08337,
-1.09863,1.10474,
-1.13678,1.14288,
-1.1734,1.16272,
-1.21002,1.11847,
-1.24969,1.08795,
-1.28326,1.11084,
-1.32141,1.14136,
-1.35803,1.1673,
-1.39618,1.11694,
-1.42975,1.08643,
-1.46637,1.10474,
-1.50146,1.13678,
-1.53809,1.16425,
-1.57928,1.11694,
-1.62048,1.08643,
-1.66321,1.10168,
-1.70135,1.13678,
-1.74255,1.16425,
-1.77917,1.12152,
-1.81732,1.08643,
-1.85089,1.10931,
-1.89056,1.13983,
-1.92108,1.15967,
-1.95313,1.11694,
-1.98517,1.08643,
-2.01874,1.10168,
-2.04773,1.13525,
-2.07825,1.15967,
-2.11639,1.09863,
-2.14844,1.08948,
-2.18506,1.10168,
-2.2171,1.13831,
-2.25067,1.15967,
-2.27966,1.12,
-2.31018,1.08795,
-2.34222,1.09711,
-2.37122,1.14441,
-2.39716,1.15356,
-2.4231,1.12,
-2.45209,1.08643,
-2.47955,1.10016,
-2.50397,1.1322,
-2.52838,1.15509,
-2.5528,1.13068,
-2.57416,1.1322,
-2.6062,1.10626,
-2.62756,1.13831,
-2.65656,1.16272,
-2.68097,1.12,
-2.70538,1.08337,
-2.73285,1.10321,
-2.75726,1.13831,
-2.78015,1.15814,
-2.80457,1.11542,
-2.82745,1.08643,
-2.84729,1.10474,
-2.86865,1.13678,
-2.89154,1.15814,
-2.90527,1.12457,
-2.93274,1.08795,
-2.95563,1.10474,
-2.97852,1.13373,
-2.99835,1.16272,
-3.01361,1.12305,
-3.03345,1.06964,
-3.05176,1.10779,
-3.07007,1.13678,
-3.08685,1.14441,
-3.10516,1.12,
-3.12042,1.08795,
-3.13873,1.10931,
-3.15552,1.13373,
-3.17535,1.16577,
-3.20129,1.12305,
-3.22113,1.08795,
-3.24554,1.10626,
-3.26385,1.13373,
-3.28674,1.15356,
-3.30658,1.11694,
-3.33405,1.08643,
-3.35693,1.10474,
-3.3783,1.12762,
-3.39508,1.15509,
-3.41492,1.11847,
-3.44238,1.08337,
-3.46222,1.10626,
-3.48053,1.1322,
-3.50342,1.15204,
-3.52325,1.11847,
-3.54614,1.08337,
-3.5675,1.10321,
-3.59344,1.13983,
-3.61938,1.15204,
-3.64838,1.12,
-3.67279,1.08795,
-3.70483,1.10626,
-3.7323,1.1322,
-3.75977,1.15204,
-3.78113,1.11542,
-3.80859,1.08643,
-3.83301,1.10168,
-3.86047,1.1261,
-3.87421,1.15051,
-3.88947,1.12,
-3.89862,1.0849,
-3.90015,1.10321,
-3.89557,1.13068,
-3.88031,1.15051,
-3.86047,1.11694,
-3.82538,1.0849,
-3.78723,1.10321,
-3.73535,1.11237,
-3.67279,1.15356,
-3.5965,1.11847,
-3.51105,1.0849,
-3.41644,1.10321,
-3.31421,1.13068,
-3.20129,1.14899,
-3.07922,1.12,
-2.95105,1.0849,
-2.81525,1.10321,
-2.67334,1.1261,
-2.52838,1.14746,
-2.3819,1.11694,
-2.23694,1.08795,
-2.08588,1.10321,
-1.93481,1.12762,
-1.7868,1.15051,
-1.63574,1.12,
-1.48926,1.08643,
-1.34277,1.10474,
-1.19324,1.12762,
-1.05743,1.14899,
-0.923157,1.12,
-0.793457,1.08643,
-0.671387,1.10321,
-0.552368,1.12152,
-0.434875,1.12762,
-0.334167,1.11084,
-0.228882,1.08795,
-0.140381,1.10016,
-0.0518799,1.1322,
0.0228882,1.15814,
0.0946045,1.11694,
0.158691,1.06964,
0.215149,1.10016,
0.267029,1.1261,
0.314331,1.14746,
0.3479,1.12,
0.38147,1.08185,
0.40741,1.10474,
0.430298,1.1261,
0.448608,1.14594,
0.454712,1.12152,
0.463867,1.08337,
0.462341,1.10016,
0.462341,1.1261,
0.456238,1.14899,
0.450134,1.11237,
0.427246,1.0849,
0.40741,1.10016,
0.387573,1.12457,
0.354004,1.14746,
0.32196,1.11694,
0.288391,1.0849,
0.247192,1.10321,
0.210571,1.12762,
0.164795,1.14746,
0.12207,1.12,
0.0793457,1.0849,
0.0320435,1.10168,
-0.00762939,1.12762,
-0.050354,1.14746,
-0.0915527,1.12152,
-0.131226,1.08185,
-0.180054,1.10168,
-0.216675,1.1261,
-0.256348,1.14594,
-0.292969,1.12,
-0.332642,1.0849,
-0.364685,1.09863,
-0.398254,1.10168,
-0.428772,1.14441,
-0.45929,1.11694,
-0.488281,1.08643,
-0.514221,1.10321,
-0.535583,1.12457,
-0.549316,1.14594,
-0.570679,1.12,
-0.579834,1.08032,
-0.590515,1.09863,
-0.598145,1.12457,
-0.601196,1.14594,
-0.6073,1.12,
-0.6073,1.0849,
-0.604248,1.10168,
-0.59967,1.12457,
-0.596619,1.14594,
-0.587463,1.12305,
-0.58136,1.08337,
-0.57373,1.10168,
-0.566101,1.12762,
-0.567627,1.14441,
-0.563049,1.12457,
-0.558472,1.08643,
-0.558472,1.10016,
-0.556946,1.12457,
-0.556946,1.14746,
-0.55542,1.10931,
-0.552368,1.08643,
-0.552368,1.09711,
-0.55542,1.12457,
-0.558472,1.14746,
-0.559998,1.12,
-0.564575,1.08185,
-0.575256,1.09863,
-0.578308,1.12457,
-0.587463,1.14288,
-0.598145,1.12,
-0.608826,1.0849,
-0.62561,1.09711,
-0.639343,1.12152,
-0.656128,1.13068,
-0.67749,1.11847,
-0.692749,1.08337,
-0.715637,1.09863,
-0.740051,1.12457,
-0.764465,1.13983,
-0.790405,1.11694,
-0.819397,1.08032,
-0.848389,1.09711,
-0.881958,1.12305,
-0.91095,1.14441,
-0.942993,1.11694,
-0.973511,1.08337,
-1.00708,1.10016,
-1.0376,1.12152,
-1.06506,1.14746,
-1.10474,1.12,
-1.13678,1.08185,
-1.1734,1.09711,
-1.21155,1.14288,
-1.24359,1.17188,
-1.28326,1.11542,
-1.31836,1.0849,
-1.35803,1.10168,
-1.3916,1.11847,
-1.42517,1.14441,
-1.46179,1.11694,
-1.50146,1.0788,
-1.53046,1.09406,
-1.56708,1.10779,
-1.6037,1.14288,
-1.63879,1.11389,
-1.67389,1.08032,
-1.71204,1.09406,
-1.74103,1.11847,
-1.77917,1.13831,
-1.81122,1.11389,
-1.84479,1.07574,
-1.88293,1.08948,
-1.91803,1.12152,
-1.95007,1.13983,
-1.98059,1.10931,
-2.01263,1.05286,
-2.04468,1.09253,
-2.08282,1.11694,
-2.11182,1.13983,
-2.13623,1.10168,
-2.16522,1.07422,
-2.19574,1.091,
-2.22778,1.12152,
-2.25677,1.14136,
-2.28882,1.1261,
-2.31781,1.0788,
-2.3468,1.08948,
-2.37579,1.11847,
-2.40173,1.14441,
-2.43683,1.11847,
-2.46735,1.08032,
-2.49939,1.09711,
-2.52686,1.12305,
-2.5589,1.13068,
-2.58789,1.11542,
-2.6123,1.07727,
-2.6413,1.08795,
-2.66876,1.12,
-2.69165,1.19781,
-2.71301,1.11694,
-2.73743,1.08032,
-2.76184,1.09253,
-2.7832,1.11847,
-2.80457,1.13983,
-2.83203,1.11694,
-2.85797,1.0788,
-2.88239,1.091,
-2.90222,1.12,
-2.92816,1.13831,
-2.948,1.11847,
-2.97241,1.08185,
-2.99683,1.08643,
-3.01819,1.12,
-3.03955,1.14136,
-3.06244,1.12,
-3.0838,1.0788,
-3.11432,1.08948,
-3.13568,1.12,
-3.1601,1.14136,
-3.18451,1.11694,
-3.20892,1.08032,
-3.23029,1.08643,
-3.2547,1.12,
-3.27759,1.13983,
-3.2959,1.11847,
-3.32336,1.07574,
-3.34473,1.08795,
-3.36304,1.11847,
-3.38287,1.13983,
-3.40271,1.12,
-3.4256,1.0788,
-3.45001,1.08948,
-3.4668,1.11542,
-3.48969,1.13983,
-3.51257,1.13068,
-3.53088,1.07727,
-3.55682,1.08337,
-3.58124,1.12152,
-3.6026,1.14594,
-3.62701,1.12762,
-3.65295,1.08337,
-3.67126,1.06964,
-3.68347,1.12,
-3.6972,1.13983,
-3.69873,1.11847,
-3.68805,1.07727,
-3.67126,1.07422,
-3.64685,1.10474,
-3.60565,1.13678,
-3.56293,1.12305,
-3.50342,1.0788,
-3.43323,1.0849,
-3.35541,1.12,
-3.26996,1.13831,
-3.17078,1.11694,
-3.06396,1.07422,
-2.94342,1.08643,
-2.81067,1.11694,
-2.67944,1.13831,
-2.53448,1.11847,
-2.38953,1.07574,
-2.23999,1.08643,
-2.08435,1.11694,
-1.92719,1.13831,
-1.76849,1.12,
-1.6098,1.07574,
-1.45111,1.08795,
-1.29089,1.12762,
-1.13373,1.14136,
-0.979614,1.11694,
-0.828552,1.07727,
-0.68512,1.0849,
-0.543213,1.11847,
-0.402832,1.14288,
-0.273132,1.1322,
-0.15564,1.07422,
-0.0396729,1.08948,
0.0671387,1.12,
0.167847,1.14136,
0.257874,1.12152,
0.340271,1.07574,
0.415039,1.08643,
0.486755,1.11847,
0.546265,1.14288,
0.604248,1.12,
0.650024,1.07727,
0.692749,1.0849,
0.727844,1.11694,
0.758362,1.13831,
0.782776,1.12305,
0.801086,1.08185,
0.814819,1.08795,
0.8255,1.11847,
0.828552,1.13831,
0.83313,1.12152,
0.831604,1.07422,
0.831604,1.08185,
0.819397,1.12,
0.80719,1.14746,
0.791931,1.12152,
0.773621,1.07422,
0.753784,1.09406,
0.72937,1.11694,
0.698853,1.13678,
0.668335,1.11237,
0.634766,1.07422,
0.593567,1.0788,
0.556946,1.11542,
0.515747,1.13525,
0.468445,1.11847,
0.422668,1.07269,
0.375366,1.08185,
0.32959,1.11389,
0.288391,1.13525,
0.245667,1.12152,
0.20752,1.07574,
0.163269,1.08185,
0.125122,1.11237,
0.088501,1.13525,
0.0549316,1.11542,
0.0228882,1.07117,
-0.00457764,1.07422,
-0.0305176,1.11237,
-0.0518799,1.14899,
-0.0732422,1.14899,
-0.088501,1.06506,
-0.0991821,1.07422,
-0.109863,1.11237,
-0.119019,1.1322,
-0.125122,1.11542,
-0.135803,1.06659,
-0.141907,1.06812,
-0.140381,1.11389,
-0.144958,1.13068,
-0.143433,1.11389,
-0.141907,1.06659,
-0.137329,1.0849,
-0.134277,1.11389,
-0.128174,1.12762,
-0.125122,1.12152,
-0.117493,1.07117,
-0.106812,1.0788,
-0.105286,1.11542,
-0.0991821,1.13831,
-0.0930786,1.11847,
-0.088501,1.07269,
-0.0869751,1.08032,
-0.0839233,1.11389,
-0.0839233,1.1322,
-0.0839233,1.11847,
-0.088501,1.06812,
-0.0915527,1.0788,
-0.0946045,1.11389,
-0.100708,1.13525,
-0.109863,1.12,
-0.120544,1.07422,
-0.137329,1.0788,
-0.152588,1.11389,
-0.17395,1.12762,
-0.196838,1.12,
-0.216675,1.06812,
-0.238037,1.07574,
-0.257874,1.11542,
-0.283813,1.13525,
-0.311279,1.10931,
-0.340271,1.07574,
-0.370789,1.06354,
-0.405884,1.11847,
-0.439453,1.1322,
-0.474548,1.11694,
-0.508118,1.07269,
-0.544739,1.07422,
-0.579834,1.11847,
-0.617981,1.17645,
-0.657654,1.11847,
-0.695801,1.06506,
-0.732422,1.08032,
-0.772095,1.11237,
-0.816345,1.12762,
-0.856018,1.11847,
-0.895691,1.07117,
-0.935364,1.08032,
-0.973511,1.11237,
-1.00861,1.11694,
-1.04675,1.12152,
-1.08948,1.06964,
-1.13068,1.07574,
-1.16272,1.11694,
-1.20239,1.12457,
-1.24359,1.12305,
-1.27869,1.06964,
-1.31226,1.07727,
-1.34583,1.11237,
-1.3855,1.12762,
-1.41907,1.12,
-1.45721,1.07117,
-1.49231,1.07727,
-1.53198,1.11084,
-1.56708,1.1261,
-1.60065,1.11694,
-1.63422,1.07117,
-1.67084,1.07422,
-1.70593,1.10626,
-1.73798,1.12457,
-1.76697,1.12762,
-1.80511,1.06812,
-1.83716,1.07574,
-1.86768,1.10931,
-1.89667,1.12457,
-1.92719,1.11542,
-1.95923,1.06964,
-1.9928,1.07574,
-2.02484,1.11237,
-2.05994,1.12305,
-2.09045,1.10016,
-2.1286,1.07117,
-2.16522,1.07422,
-2.20337,1.12457,
-2.23236,1.12,
-2.26593,1.12152,
-2.29797,1.09863,
-2.33002,1.07422,
-2.35596,1.10168,
-2.38495,1.13373,
-2.41241,1.12,
-2.43683,1.07117,
-2.46429,1.07269,
-2.49329,1.10931,
-2.5238,1.11389,
-2.54822,1.11847,
-2.57568,1.0788,
-2.60162,1.07574,
-2.62604,1.11084,
-2.65045,1.12762,
-2.67181,1.11694,
-2.69928,1.0788,
-2.72369,1.07727,
-2.74658,1.11084,
-2.76642,1.12762,
-2.79541,1.11389,
-2.82593,1.07574,
-2.85034,1.07574,
-2.87476,1.10931,
-2.9007,1.12457,
-2.92816,1.12,
-2.95105,1.06964,
-2.97852,1.07574,
-2.99835,1.11389,
-3.02124,1.12762,
-3.0426,1.12152,
-3.06702,1.0788,
-3.09143,1.0849,
-3.11279,1.12762,
-3.13721,1.1261,
-3.16467,1.12,
-3.18756,1.06659,
-3.2135,1.06964,
-3.23944,1.11237,
-3.26233,1.1261,
-3.28369,1.16425,
-3.30811,1.06506,
-3.32947,1.07422,
-3.35083,1.10626,
-3.37067,1.12762,
-3.3905,1.11542,
-3.41644,1.06812,
-3.43628,1.08337,
-3.4668,1.10779,
-3.49121,1.12305,
-3.51715,1.12,
-3.54614,1.06659,
-3.5675,1.07117,
-3.59039,1.10779,
-3.61786,1.1261,
-3.6377,1.11542,
-3.65753,1.07117,
-3.67432,1.06964,
-3.68652,1.10779,
-3.6911,1.12762,
-3.6911,1.12305,
-3.68652,1.05591,
-3.66364,1.08185,
-3.63312,1.10779,
-3.59497,1.12457,
-3.54767,1.11847,
-3.48663,1.06354,
-3.41644,1.07117,
-3.34473,1.10016,
-3.25623,1.11694,
-3.16467,1.12152,
-3.05634,1.05743,
-2.94495,1.07117,
-2.8244,1.10626,
-2.6947,1.12762,
-2.5589,1.11542,
-2.42004,1.06506,
-2.27203,1.06812,
-2.11792,1.10779,
-1.96686,1.12457,
-1.81274,1.11694,
-1.66473,1.06049,
-1.51062,1.06506,
-1.36261,1.10168,
-1.21765,1.1261,
-1.07117,1.11847,
-0.927734,1.06049,
-0.793457,1.06659,
-0.666809,1.10779,
-0.538635,1.12305,
-0.422668,1.11694,
-0.311279,1.05896,
-0.209045,1.06812,
-0.109863,1.10626,
-0.0152588,1.12457,
0.0640869,1.11389,
0.138855,1.06506,
0.204468,1.0376,
0.263977,1.08337,
0.317383,1.12,
0.361633,1.12152,
0.40741,1.0498,
0.439453,1.06659,
0.466919,1.10626,
0.497437,1.12762,
0.512695,1.11389,
0.52948,1.06659,
0.535583,1.06506,
0.538635,1.10626,
0.538635,1.12762,
0.532532,1.11389,
0.523376,1.0498,
0.506592,1.06964,
0.495911,1.10321,
0.4776,1.12762,
0.454712,1.11542,
0.42572,1.05896,
0.396729,1.06659,
0.364685,1.10321,
0.332642,1.13068,
0.292969,1.11694,
0.253296,1.06049,
0.212097,1.06659,
0.169373,1.10474,
0.1297,1.1261,
0.0839233,1.11389,
0.038147,1.06506,
0,1.06506,
-0.0427246,1.10626,
-0.0808716,1.12762,
-0.114441,1.11542,
-0.151062,1.05896,
-0.184631,1.06506,
-0.219727,1.10626,
-0.250244,1.13068,
-0.280762,1.11542,
-0.305176,1.06354,
-0.32959,1.06659,
-0.3479,1.10626,
-0.370789,1.12762,
-0.387573,1.11542,
-0.402832,1.06659,
-0.419617,1.06812,
-0.434875,1.10474,
-0.444031,1.12762,
-0.456238,1.11542,
-0.463867,1.06506,
-0.471497,1.06659,
-0.476074,1.08643,
-0.479126,1.13525,
-0.486755,1.10168,
-0.491333,1.05896,
-0.494385,1.06354,
-0.498962,1.10321,
-0.498962,1.13068,
-0.498962,1.11237,
-0.500488,1.06049,
-0.50354,1.06812,
-0.50354,1.10321,
-0.500488,1.12457,
-0.498962,1.11084,
-0.497437,1.05896,
-0.497437,1.06659,
-0.495911,1.10321,
-0.498962,1.1261,
-0.502014,1.11389,
-0.509644,1.05896,
-0.520325,1.06049,
-0.526428,1.10168,
-0.532532,1.12457,
-0.540161,1.11237,
-0.549316,1.06354,
-0.564575,1.06354,
-0.579834,1.10016,
-0.590515,1.12762,
-0.604248,1.10779,
-0.62561,1.02997,
-0.642395,1.04675,
-0.665283,1.10321,
-0.683594,1.12762,
-0.709534,1.11389,
-0.732422,1.06049,
-0.759888,1.05591,
-0.782776,1.14594,
-0.816345,1.12457,
-0.849915,1.11389,
-0.875854,1.06049,
-0.912476,1.06354,
-0.941467,1.09863,
-0.968933,1.1261,
-1.00861,1.11542,
-1.0376,1.10779,
-1.07727,1.06354,
-1.11542,1.09863,
-1.14288,1.12457,
-1.17798,1.10931,
-1.2146,1.05591,
-1.24817,1.06354,
-1.28174,1.10016,
-1.31683,1.12762,
-1.3504,1.10931,
-1.38855,1.05743,
-1.42365,1.06354,
-1.45416,1.09711,
-1.48926,1.12457,
-1.52283,1.10931,
-1.55945,1.05896,
-1.59149,1.06049,
-1.62354,1.09863,
-1.65863,1.1261,
-1.6922,1.11084,
-1.72577,1.05591,
-1.76392,1.06049,
-1.80206,1.10168,
-1.83563,1.12762,
-1.87225,1.11084,
-1.89972,1.05896,
-1.92871,1.06049,
-1.95618,1.10168,
-1.98822,1.13831,
-2.01721,1.11084,
-2.0462,1.05591,
-2.07367,1.06049,
-2.10419,1.10016,
-2.12708,1.12762,
-2.15149,1.11237,
-2.18201,1.05591,
-2.20947,1.06354,
-2.23694,1.09711,
-2.2583,1.13068,
-2.28882,1.10779,
-2.31476,1.05438,
-2.34222,1.05896,
-2.36359,1.09711,
-2.39258,1.12305,
-2.42157,1.10779,
-2.44751,1.05743,
-2.47192,1.06049,
-2.50092,1.08948,
-2.52838,1.13678,
-2.55127,1.10626,
-2.57568,1.05438,
-2.6001,1.05896,
-2.62604,1.09406,
-2.65198,1.12762,
-2.67944,1.10779,
-2.70081,1.06354,
-2.72369,1.05896,
-2.74658,1.09406,
-2.77252,1.13068,
-2.79846,1.10779,
-2.83051,1.05896,
-2.85797,1.05896,
-2.88544,1.09863,
-2.90833,1.1261,
-2.93579,1.10626,
-2.96021,1.05743,
-2.98615,1.05591,
-3.01208,1.09406,
-3.03802,1.12762,
-3.06702,1.10779,
-3.0899,1.05743,
-3.11432,1.06049,
-3.14331,1.09863,
-3.17383,1.1261,
-3.20282,1.10931,
-3.22571,1.05438,
-3.2608,1.05743,
-3.28979,1.10168,
-3.32184,1.13068,
-3.35236,1.10779,
-3.37982,1.05743,
-3.41034,1.05438,
-3.43475,1.09863,
-3.46069,1.12457,
-3.48206,1.13525,
-3.49426,1.06354,
-3.508,1.05438,
-3.508,1.09406,
-3.49731,1.12762,
-3.48358,1.10626,
-3.46222,1.05896,
-3.42712,1.05438,
-3.38745,1.07117,
-3.32947,1.12457,
-3.26385,1.11237,
-3.19366,1.06049,
-3.11127,1.06049,
-3.02124,1.09253,
-2.92358,1.1261,
-2.8183,1.11084,
-2.71301,1.10626,
-2.59705,1.05591,
-2.47498,1.09711,
-2.35291,1.1261,
-2.22473,1.10779,
-2.09656,1.05743,
-1.96533,1.05438,
-1.83716,1.09253,
-1.70593,1.17188,
-1.57318,1.10931,
-1.45111,1.06049,
-1.32599,1.05286,
-1.20544,1.09711,
-1.08948,1.11084,
-0.979614,1.10931,
-0.871277,1.05743,
-0.769043,1.05438,
-0.67749,1.09711,
-0.579834,1.12762,
-0.500488,1.10626,
-0.42572,1.05743,
-0.35553,1.05591,
-0.292969,1.09406,
-0.228882,1.13068,
-0.175476,1.11389,
-0.1297,1.05438,
-0.0900269,1.05286,
-0.0564575,1.09253,
-0.0289917,1.13678,
-0.00610352,1.10626,
0.0106812,1.05896,
0.0274658,1.06049,
0.038147,1.08948,
0.0411987,1.12457,
0.0427246,1.09253,
0.0350952,1.05133,
0.0259399,1.05286,
0.0152588,1.09863,
0.00457764,1.12305,
-0.0152588,1.11237,
-0.0427246,1.05133,
-0.0717163,1.06049,
-0.0976563,1.10931,
-0.135803,1.12152,
-0.178528,1.10168,
-0.218201,1.05743,
-0.263977,1.05591,
-0.308228,1.091,
-0.35553,1.12305,
-0.40741,1.10321,
-0.457764,1.05438,
-0.511169,1.04675,
-0.561523,1.08948,
-0.608826,1.12457,
-0.660706,1.10474,
-0.704956,1.05438,
-0.749207,1.05286,
-0.794983,1.09253,
-0.837708,1.12152,
-0.875854,1.10474,
-0.909424,1.05591,
-0.947571,1.06506,
-0.982666,1.091,
-1.01471,1.12305,
-1.04675,1.10779,
-1.07422,1.05133,
-1.09711,1.05438,
-1.11389,1.09863,
-1.12762,1.10474,
-1.14136,1.10626,
-1.15204,1.0498,
-1.15662,1.05591,
-1.1673,1.09711,
-1.17493,1.1261,
-1.18256,1.10168,
-1.19171,1.05286,
-1.19629,1.05591,
-1.19934,1.091,
-1.19934,1.1261,
-1.20239,1.10779,
-1.2085,1.05286,
-1.2085,1.05591,
-1.20697,1.08948,
-1.19934,1.12457,
-1.19781,1.10321,
-1.20087,1.05286,
-1.19934,1.05438,
-1.20087,1.09863,
-1.20239,1.12762,
-1.20239,1.09253,
-1.21155,1.05286,
-1.22223,1.05591,
-1.22833,1.08948,
-1.23749,1.12152,
-1.25122,1.10321,
-1.26801,1.05133,
-1.28784,1.06354,
-1.3031,1.09253,
-1.32294,1.12457,
-1.3443,1.10321,
-1.36566,1.05286,
-1.38855,1.05438,
-1.41296,1.08948,
-1.44196,1.12305,
-1.474,1.10168,
-1.50757,1.05286,
-1.54114,1.05743,
-1.57318,1.091,
-1.60522,1.11847,
-1.63727,1.09863,
-1.66626,1.05286,
-1.69525,1.05438,
-1.72729,1.091,
-1.75629,1.12305,
-1.78375,1.10168,
-1.81427,1.05438,
-1.84784,1.05438,
-1.88293,1.08643,
-1.90887,1.11847,
-1.94092,1.10321,
-1.97296,1.05286,
-2.00806,1.05133,
-2.03857,1.08795,
-2.07825,1.12152,
-2.11334,1.10016,
-2.15149,1.05286,
-2.18811,1.05133,
-2.22626,1.08948,
-2.2644,1.12,
-2.30103,1.10168,
-2.33612,1.05286,
-2.36664,1.05133,
-2.40021,1.09253,
-2.43225,1.12305,
-2.46429,1.10168,
-2.49786,1.05286,
-2.52991,1.04065,
-2.56042,1.0849,
-2.59094,1.12,
-2.62451,1.10168,
-2.65808,1.04828,
-2.69318,1.05133,
-2.72522,1.091,
-2.75879,1.12305,
-2.78931,1.10626,
-2.8183,1.05133,
-2.84882,1.0498,
-2.88086,1.08948,
-2.91138,1.12,
-2.94037,1.09711,
-2.97089,1.05286,
-3.00446,1.0498,
-3.02887,1.09253,
-3.05939,1.12,
-3.08838,1.10168,
-3.11584,1.05591,
-3.14484,1.0498,
-3.17535,1.08948,
-3.20435,1.11389,
-3.23486,1.09863,
-3.26538,1.05133,
-3.2959,1.05133,
-3.32336,1.09406,
-3.35236,1.12,
-3.3844,1.09253,
-3.41339,1.05133,
-3.44086,1.0498,
-3.47137,1.05743,
-3.49884,1.12152,
-3.52173,1.10168,
-3.55682,1.04828,
-3.58276,1.05438,
-3.61633,1.08948,
-3.64227,1.12305,
-3.66669,1.13831,
-3.6972,1.05896,
-3.72467,1.04828,
-3.75366,1.08948,
-3.78571,1.12152,
-3.81165,1.09406,
-3.83606,1.0498,
-3.86505,1.0498,
-3.89557,1.08795,
-3.92303,1.12,
-3.94897,1.09711,
-3.97949,1.0498,
-4.00848,1.05133,
-4.039,1.08948,
-4.06647,1.12,
-4.09546,1.10321,
-4.11987,1.05133,
-4.14734,1.04828,
-4.17328,1.0849,
-4.20227,1.12,
-4.22821,1.09711,
-4.25262,1.05133,
-4.28009,1.04675,
-4.30756,1.08643,
-4.33044,1.11847,
-4.35944,1.09711,
-4.38385,1.04828,
-4.40826,1.04828,
-4.42505,1.08643,
-4.44489,1.11847,
-4.45404,1.08948,
-4.45709,1.0498,
-4.45404,1.04675,
-4.44489,1.08643,
-4.42505,1.12,
-4.39911,1.10168,
-4.36096,1.05438,
-4.31671,1.05591,
-4.26483,1.06659,
-4.19769,1.11694,
-4.1275,1.09711,
-4.04816,1.04523,
-3.96118,1.04675,
-3.8681,1.08337,
-3.7674,1.11694,
-3.65906,1.10016,
-3.54614,1.0437,
-3.42865,1.04828,
-3.30963,1.0849,
-3.18451,1.12,
-3.05481,1.09863,
-2.92969,1.04523,
-2.79999,1.04828,
-2.66876,1.08795,
-2.54059,1.11694,
-2.41394,1.09711,
-2.29187,1.04828,
-2.17285,1.04828,
-2.05383,1.09406,
-1.93939,1.12152,
-1.82953,1.09406,
-1.72577,1.0498,
-1.62506,1.04828,
-1.52283,1.08795,
-1.4328,1.11542,
-1.3504,1.091,
-1.26953,1.04675,
-1.19476,1.06506,
-1.12152,1.091,
-1.06049,1.11694,
-0.999451,1.09406,
-0.949097,1.04675,
-0.901794,1.04675,
-0.862122,1.0849,
-0.823975,1.13525,
-0.790405,1.09711,
-0.764465,1.0437,
-0.741577,1.04675,
-0.715637,1.08643,
-0.704956,1.11542,
-0.692749,1.09406,
-0.686646,1.04523,
-0.68512,1.04675,
-0.686646,1.0849,
-0.692749,1.11542,
-0.695801,1.091,
-0.708008,1.04523,
-0.720215,1.04828,
-0.737,1.08337,
-0.75531,1.11694,
-0.775146,1.09253,
-0.802612,1.0437,
-0.830078,1.04065,
-0.857544,1.08643,
-0.888062,1.11237,
-0.920105,1.09711,
-0.9552,1.04523,
-0.987244,1.04828,
-1.02081,1.08337,
-1.05438,1.12,
-1.08643,1.09711,
-1.12762,1.04828,
-1.16425,1.0498,
-1.19629,1.0849,
-1.22833,1.11389,
-1.26343,1.09406,
-1.29089,1.04065,
-1.32141,1.04675,
-1.34735,1.0849,
-1.37482,1.11389,
-1.39618,1.09253,
-1.42059,1.0437,
-1.4389,1.04523,
-1.45569,1.0849,
-1.47095,1.12152,
-1.48315,1.09253,
-1.49384,1.04828,
-1.50299,1.05133,
-1.50604,1.08185,
-1.5152,1.11542,
-1.52283,1.09711,
-1.53046,1.04828,
-1.53961,1.05133,
-1.54572,1.08185,
-1.54877,1.11542,
-1.55334,1.08948,
-1.56097,1.04828,
-1.56708,1.0437,
-1.57318,1.08337,
-1.57471,1.11847,
-1.58386,1.09253,
-1.59302,1.05286,
-1.59607,1.04523,
-1.60828,1.08643,
-1.61438,1.11389,
-1.62659,1.07269,
-1.63574,1.04828,
-1.64642,1.04218,
-1.65558,1.08795,
-1.67084,1.11084,
-1.6861,1.091,
-1.70135,1.04523,
-1.71509,1.04523,
-1.73187,1.08185,
-1.74713,1.11389,
-1.76544,1.08643,
-1.7868,1.0498,
-1.80817,1.05896,
-1.83411,1.08185,
-1.85242,1.11237,
-1.87378,1.08643,
-1.89819,1.04675,
-1.92108,1.04675,
-1.94397,1.08948,
-1.97296,1.1261,
-1.9928,1.08643,
-2.02026,1.0498,
-2.04773,1.04218,
-2.07825,1.0849,
-2.10419,1.12,
-2.13318,1.08337,
-2.16217,1.04828,
-2.19269,1.04675,
-2.22321,1.08337,
-2.25525,1.11084,
-2.28882,1.08643,
-2.32391,1.04218,
-2.35901,1.03912,
-2.38647,1.09406,
-2.42157,1.11389,
-2.45361,1.08948,
-2.48718,1.04828,
-2.51923,1.03912,
-2.55127,1.08643,
-2.58636,1.09863,
-2.61536,1.091,
-2.64435,1.04675,
-2.68555,1.03607,
-2.71912,1.08643,
-2.74658,1.11389,
-2.78015,1.09406,
-2.81372,1.04675,
-2.84729,1.04675,
-2.87933,1.08643,
-2.90985,1.11542,
-2.93732,1.08643,
-2.96478,1.0498,
-2.99683,1.0498,
-3.02734,1.08643,
-3.05176,1.11847,
-3.08075,1.09406,
-3.11127,1.04523,
-3.13873,1.0498,
-3.1662,1.08643,
-3.19672,1.12,
-3.22723,1.08795,
-3.25317,1.04218,
-3.28674,1.04675,
-3.31421,1.06049,
-3.3432,1.11542,
-3.37219,1.08795,
-3.40271,1.04675,
-3.43018,1.04828,
-3.46069,1.08643,
-3.49121,1.11542,
-3.52325,1.08948,
-3.54919,1.05286,
-3.57971,1.04675,
-3.60565,1.08948,
-3.63159,1.11694,
-3.65753,1.09253,
-3.68805,1.04065,
-3.71246,1.04523,
-3.73993,1.08643,
-3.76587,1.11389,
-3.79181,1.0849,
-3.81775,1.04065,
-3.83911,1.04523,
-3.862,1.10168,
-3.88947,1.11542,
-3.91388,1.0849,
-3.93982,1.0437,
-3.96576,1.04523,
-3.99017,1.08643,
-4.01306,1.11389,
-4.039,1.07269,
-4.06799,1.04675,
-4.0863,1.04218,
-4.10767,1.08643,
-4.12903,1.11237,
-4.14734,1.0849,
-4.16565,1.04218,
-4.18243,1.0437,
-4.20074,1.0849,
-4.216,1.11389,
-4.23737,1.08185,
-4.25568,1.04218,
-4.27704,1.04523,
-4.30145,1.08643,
-4.32129,1.11084,
-4.3457,1.08337,
-4.36401,1.04218,
-4.38538,1.04523,
-4.40521,1.08337,
-4.42657,1.11389,
-4.44794,1.08032,
-4.47083,1.04218,
-4.49677,1.04523,
-4.51813,1.07727,
-4.54254,1.11389,
-4.56238,1.0849,
-4.58679,1.0437,
-4.61273,1.0437,
-4.62952,1.08185,
-4.65546,1.11694,
-4.68292,1.08337,
-4.70123,1.0437,
-4.7287,1.04523,
-4.75616,1.0849,
-4.77753,1.11542,
-4.80042,1.08185,
-4.82635,1.04218,
-4.84619,1.04523,
-4.86908,1.08643,
-4.88739,1.11084,
-4.90265,1.08185,
-4.92096,1.04065,
-4.92401,1.04828,
-4.92706,1.0849,
-4.92249,1.11237,
-4.91791,1.0849,
-4.89044,1.04218,
-4.86145,1.04675,
-4.82178,1.0849,
-4.78058,1.11389,
-4.72412,1.07422,
-4.66461,1.03912,
-4.59595,1.0437,
-4.52118,1.08643,
-4.44031,1.11237,
-4.35638,1.08032,
-4.26025,1.04218,
-4.1626,1.0437,
-4.06036,1.0849,
-3.95508,1.11084,
-3.84369,1.08185,
-3.72925,1.04218,
-3.61786,1.04523,
-3.508,1.08643,
-3.3905,1.10626,
-3.27606,1.08032,
-3.16772,1.0498,
-3.05328,1.04523,
-2.94495,1.08337,
-2.83356,1.11084,
-2.72675,1.0849,
-2.63214,1.04675,
-2.53448,1.03912,
-2.43835,1.0849,
-2.34985,1.11389,
-2.25983,1.08337,
-2.18353,1.03912,
-2.10876,1.04523,
-2.0401,1.08337,
-1.97144,1.10016,
-1.90735,1.07574,
-1.85394,1.04065,
-1.80664,1.04523,
-1.76392,1.0849,
-1.72119,1.11084,
-1.68304,1.0788,
-1.65863,1.0437,
-1.62964,1.04218,
-1.60675,1.08337,
-1.58997,1.11542,
-1.57318,1.08185,
-1.56403,1.04218,
-1.55487,1.04523,
-1.55182,1.0849,
-1.54877,1.11389,
-1.55334,1.07727,
-1.55487,1.04218,
-1.56708,1.04828,
-1.57928,1.08337,
-1.59607,1.11389,
-1.61133,1.0788,
-1.63269,1.04218,
-1.6571,1.04218,
-1.67847,1.0849,
-1.70441,1.10779,
-1.72882,1.08032,
-1.75781,1.04828,
-1.78986,1.04828,
-1.8219,1.0849,
-1.85242,1.11237,
-1.88293,1.08185,
-1.91498,1.04218,
-1.9455,1.04523,
-1.97601,1.08795,
-2.00348,1.11084,
-2.02637,1.06812,
-2.04773,1.04065,
-2.07367,1.04218,
-2.09503,1.08337,
-2.11487,1.11389,
-2.12708,1.07574,
-2.14539,1.01624,
-2.16064,1.04218,
-2.1759,1.08337,
-2.18811,1.10931,
-2.19727,1.08337,
-2.20642,1.04065,
-2.21252,1.04523,
-2.22015,1.07422,
-2.22473,1.11084,
-2.23236,1.0788,
-2.23694,1.0437,
-2.24152,1.04523,
-2.24152,1.0849,
-2.24304,1.11237,
-2.24609,1.07574,
-2.24915,1.04675,
-2.25372,1.03149,
-2.25983,1.0849,
-2.26135,1.11237,
-2.26593,1.07727,
-2.26593,1.0437,
-2.27051,1.0437,
-2.27356,1.0849,
-2.26746,1.11237,
-2.26593,1.08185,
-2.27051,1.0437,
-2.27509,1.04523,
-2.27814,1.08795,
-2.28577,1.11084,
-2.29187,1.07574,
-2.2995,1.0437,
-2.31018,1.02692,
-2.32239,1.08795,
-2.33307,1.11542,
