-3.00598,1.24359,
-3.02429,1.24817,
-3.04413,1.24817,
-3.06702,1.23901,
-3.08685,1.24359,
-3.10822,1.24207,
-3.13263,1.24969,
-3.14789,1.24664,
-3.16772,1.24359,
-3.17993,1.24512,
-3.19214,1.24207,
-3.19977,1.25122,
-3.2074,1.24817,
-3.20587,1.24359,
-3.19366,1.24359,
-3.17993,1.24359,
-3.15247,1.24664,
-3.1189,1.24664,
-3.0777,1.24207,
-3.02734,1.23901,
-2.96936,1.24207,
-2.89917,1.24664,
-2.82288,1.24664,
-2.73438,1.24054,
-2.6413,1.24207,
-2.54059,1.24207,
-2.4353,1.24664,
-2.32544,1.24664,
-2.2171,1.24359,
-2.10266,1.24054,
-1.98975,1.24054,
-1.87836,1.24512,
-1.76697,1.24512,
-1.65863,1.23749,
-1.5564,1.23901,
-1.45569,1.24359,
-1.35803,1.24664,
-1.27106,1.24359,
-1.19171,1.24207,
-1.11389,1.24054,
-1.04523,1.23749,
-0.978088,1.24817,
-0.923157,1.24359,
-0.869751,1.24054,
-0.823975,1.24054,
-0.790405,1.24207,
-0.759888,1.24512,
-0.737,1.24207,
-0.715637,1.23901,
-0.704956,1.23749,
-0.701904,1.24054,
-0.697327,1.24664,
-0.700378,1.23901,
-0.70343,1.23901,
-0.714111,1.23749,
-0.730896,1.23596,
-0.743103,1.23901,
-0.765991,1.24359,
-0.787354,1.23596,
-0.813293,1.23444,
-0.842285,1.23901,
-0.875854,1.24359,
-0.907898,1.23901,
-0.941467,1.23596,
-0.976563,1.23444,
-1.01776,1.23596,
-1.05591,1.23901,
-1.09863,1.23596,
-1.14594,1.23749,
-1.19019,1.23444,
-1.23749,1.24054,
-1.28479,1.24207,
-1.33362,1.23444,
-1.38245,1.23138,
-1.43127,1.23291,
-1.48621,1.23901,
-1.53503,1.23901,
-1.58081,1.23901,
-1.62811,1.23444,
-1.67389,1.22681,
-1.72119,1.23444,
-1.75934,1.24054,
-1.80054,1.23444,
-1.83716,1.23138,
-1.87225,1.23138,
-1.90582,1.23596,
-1.93634,1.23749,
-1.95923,1.23444,
-1.98822,1.23444,
-2.00806,1.22986,
-2.02332,1.23596,
-2.0401,1.23596,
-2.05231,1.23444,
-2.06604,1.22986,
-2.07214,1.22681,
-2.08893,1.23444,
-2.09503,1.23596,
-2.10571,1.22681,
-2.10724,1.23138,
-2.11792,1.22681,
-2.12402,1.23291,
-2.1286,1.22986,
-2.1347,1.23138,
-2.14081,1.22681,
-2.14539,1.22375,
-2.14539,1.23291,
-2.15302,1.23444,
-2.15607,1.23138,
-2.16217,1.22681,
-2.16522,1.22375,
-2.17133,1.22528,
-2.17438,1.23291,
-2.17896,1.22681,
-2.17743,1.22681,
-2.18658,1.2207,
-2.19269,1.23291,
-2.19727,1.23138,
-2.20337,1.22528,
-2.2049,1.22375,
-2.211,1.2207,
-2.2171,1.22528,
-2.22473,1.23138,
-2.23083,1.22986,
-2.23999,1.22528,
-2.24762,1.2207,
-2.2583,1.22681,
-2.27051,1.23138,
-2.28119,1.22681,
-2.29187,1.22681,
-2.31018,1.2207,
-2.32086,1.22528,
-2.33612,1.22986,
-2.35291,1.22681,
-2.37122,1.22375,
-2.39258,1.21918,
-2.41089,1.22223,
-2.42615,1.22681,
-2.44904,1.22528,
-2.47192,1.22528,
-2.49176,1.21765,
-2.51465,1.22375,
-2.53906,1.23291,
-2.565,1.22375,
-2.59094,1.2207,
-2.61536,1.21765,
-2.64282,1.2207,
-2.66876,1.22528,
-2.69318,1.22375,
-2.71301,1.22375,
-2.7359,1.21613,
-2.75726,1.2207,
-2.77863,1.22375,
-2.80304,1.22681,
-2.82898,1.21765,
-2.84729,1.21307,
-2.86865,1.2207,
-2.89154,1.22528,
-2.90985,1.22375,
-2.92664,1.2207,
-2.94952,1.21613,
-2.97089,1.22223,
-2.99072,1.22528,
-3.01666,1.22375,
-3.03497,1.2207,
-3.05634,1.21002,
-3.07617,1.22223,
-3.09753,1.22375,
-3.11737,1.22375,
-3.14331,1.21613,
-3.16467,1.21002,
-3.18604,1.21918,
-3.20892,1.22528,
-3.22571,1.22223,
-3.24249,1.21918,
-3.26385,1.21002,
-3.27911,1.21918,
-3.28979,1.22375,
-3.30505,1.21918,
-3.31879,1.21918,
-3.33405,1.21002,
-3.3493,1.21918,
-3.36304,1.2207,
-3.38287,1.2207,
-3.40118,1.21765,
-3.41949,1.21002,
-3.43323,1.22223,
-3.44543,1.21918,
-3.46375,1.2207,
-3.47595,1.21765,
-3.48969,1.21002,
-3.50342,1.21765,
-3.5202,1.21918,
-3.53699,1.22223,
-3.54614,1.21765,
-3.55988,1.21155,
-3.57056,1.22223,
-3.58124,1.21765,
-3.59192,1.2207,
-3.60107,1.21613,
-3.61328,1.21002,
-3.62549,1.21918,
-3.63464,1.22223,
-3.65143,1.22375,
-3.66058,1.21918,
-3.67126,1.21002,
-3.68347,1.22223,
-3.69415,1.22223,
-3.70178,1.22223,
-3.70941,1.21918,
-3.71094,1.21155,
-3.71704,1.21918,
-3.70636,1.22375,
-3.6911,1.22375,
-3.67279,1.21765,
-3.64685,1.21307,
-3.6087,1.22223,
-3.56445,1.22681,
-3.5141,1.22223,
-3.45001,1.21918,
-3.37524,1.21155,
-3.29285,1.21918,
-3.20587,1.22986,
-3.10669,1.23138,
-3.00598,1.22223,
-2.89612,1.2146,
-2.78168,1.22223,
-2.66876,1.22681,
-2.5528,1.22986,
-2.43378,1.2207,
-2.32086,1.21307,
-2.211,1.22223,
-2.10419,1.22223,
-1.9928,1.22375,
-1.89362,1.2207,
-1.79749,1.21307,
-1.70288,1.22528,
-1.61438,1.22223,
-1.53198,1.22681,
-1.45264,1.22223,
-1.38702,1.21002,
-1.32751,1.22223,
-1.27411,1.22528,
-1.22375,1.22375,
-1.18103,1.22528,
-1.14441,1.21307,
-1.11389,1.22986,
-1.08948,1.22375,
-1.06506,1.22681,
-1.05133,1.22375,
-1.04065,1.21613,
-1.03607,1.22375,
-1.03302,1.22375,
-1.03455,1.22681,
-1.03912,1.22375,
-1.04675,1.21765,
-1.06506,1.22528,
-1.08337,1.22528,
-1.10626,1.22681,
-1.12915,1.2207,
-1.15204,1.2146,
-1.18103,1.22681,
-1.21155,1.22681,
-1.24512,1.22986,
-1.27716,1.22375,
-1.31226,1.21613,
-1.34735,1.22986,
-1.38245,1.22223,
-1.42517,1.22986,
-1.46637,1.22223,
-1.50452,1.21307,
-1.54572,1.22223,
-1.58997,1.22528,
-1.63422,1.22375,
-1.67542,1.22223,
-1.71356,1.2146,
-1.75018,1.22681,
-1.79291,1.2207,
-1.83258,1.22528,
-1.8692,1.22375,
-1.9104,1.21155,
-1.94397,1.22986,
-1.97906,1.22681,
-2.00958,1.22681,
-2.0401,1.22223,
-2.07214,1.21307,
-2.09961,1.23138,
-2.12555,1.22375,
-2.14996,1.22681,
-2.17438,1.22375,
-2.19269,1.2146,
-2.21405,1.23138,
-2.22473,1.22375,
-2.24609,1.22375,
-2.2522,1.22223,
-2.2583,1.21307,
-2.27051,1.22986,
-2.27203,1.22528,
-2.27509,1.22681,
-2.27814,1.2207,
-2.27814,1.2146,
-2.27509,1.23138,
-2.27509,1.22528,
-2.27814,1.22528,
-2.27509,1.22375,
-2.27661,1.21613,
-2.27814,1.22528,
-2.27661,1.22681,
-2.27814,1.22986,
-2.27661,1.21918,
-2.28119,1.21613,
-2.27814,1.22986,
-2.28424,1.22986,
-2.29187,1.22528,
-2.29492,1.21765,
-2.3056,1.21613,
-2.31781,1.22528,
-2.32239,1.22986,
-2.32849,1.23138,
-2.33307,1.21918,
-2.3468,1.21765,
-2.35596,1.22681,
-2.37427,1.22681,
-2.38647,1.22528,
-2.40173,1.21765,
-2.41699,1.2146,
-2.43073,1.22681,
-2.45056,1.22528,
-2.46429,1.22528,
-2.48566,1.21613,
-2.50702,1.21765,
-2.53143,1.23291,
-2.5528,1.22528,
-2.57416,1.2207,
-2.59857,1.21613,
-2.62146,1.21918,
-2.63977,1.22681,
-2.66266,1.22528,
-2.68097,1.22528,
-2.70233,1.21765,
-2.72827,1.2207,
-2.74963,1.22986,
-2.77557,1.22681,
-2.80151,1.22528,
-2.82288,1.21765,
-2.84729,1.2207,
-2.87323,1.22681,
-2.89459,1.22681,
-2.91595,1.22986,
-2.94342,1.21613,
-2.96478,1.21765,
-2.9892,1.22528,
-3.01056,1.22986,
-3.0365,1.22986,
-3.05786,1.21765,
-3.0838,1.21765,
-3.10669,1.22681,
-3.12805,1.23138,
-3.15094,1.22681,
-3.17535,1.21307,
-3.19366,1.2207,
-3.21655,1.22528,
-3.23334,1.22986,
-3.25317,1.22986,
-3.27301,1.21613,
-3.29437,1.21613,
-3.31573,1.22681,
-3.34015,1.23138,
-3.35846,1.22681,
-3.3783,1.21613,
-3.39966,1.2207,
-3.42255,1.22375,
-3.44391,1.23138,
-3.46222,1.22681,
-3.48206,1.2146,
-3.50037,1.22223,
-3.52173,1.22528,
-3.53699,1.22528,
-3.55377,1.22681,
-3.57819,1.21918,
-3.5965,1.21918,
-3.6087,1.22528,
-3.62549,1.22681,
-3.64685,1.22681,
-3.66364,1.21613,
-3.67584,1.22223,
-3.68805,1.23444,
-3.6972,1.22681,
-3.71552,1.22375,
-3.73077,1.21765,
-3.74298,1.2207,
-3.75671,1.22681,
-3.77197,1.23138,
-3.78113,1.22986,
-3.79181,1.21918,
-3.79944,1.22375,
-3.81165,1.22986,
-3.82538,1.23138,
-3.83759,1.22986,
-3.84979,1.2207,
-3.862,1.22528,
-3.87421,1.23291,
-3.88336,1.23291,
-3.89557,1.22375,
-3.90472,1.22528,
-3.91388,1.22528,
-3.92914,1.23444,
-3.93219,1.23291,
-3.94592,1.23138,
-3.95203,1.22375,
-3.96271,1.22528,
-3.96881,1.23291,
-3.97186,1.23901,
-3.97339,1.23749,
-3.97949,1.22528,
-3.99475,1.23138,
-4.00238,1.23596,
-4.01001,1.23596,
-4.01611,1.23444,
-4.03137,1.23138,
-4.04053,1.22681,
-4.0451,1.23596,
-4.05121,1.23901,
-4.06342,1.23596,
-4.07257,1.23291,
-4.0863,1.23138,
-4.09698,1.23901,
-4.11224,1.24054,
-4.12292,1.23901,
-4.13513,1.23444,
-4.14429,1.23291,
-4.15039,1.24054,
-4.15649,1.24664,
-4.17175,1.24207,
-4.1748,1.23749,
-4.18549,1.23749,
-4.19006,1.24359,
-4.2038,1.24512,
-4.2099,1.24359,
-4.22058,1.24054,
-4.22668,1.24054,
-4.24347,1.24359,
-4.25415,1.24817,
-4.26178,1.24512,
-4.27399,1.23901,
-4.28314,1.24512,
-4.29077,1.24969,
-4.30298,1.25122,
-4.31061,1.24817,
-4.31824,1.24359,
-4.32739,1.24359,
-4.3396,1.24969,
-4.34723,1.25427,
-4.35638,1.25122,
-4.36554,1.24817,
-4.37775,1.24817,
-4.38538,1.25275,
-4.39453,1.2558,
-4.40521,1.25122,
-4.40979,1.24969,
-4.41284,1.25427,
-4.41589,1.25427,
-4.40826,1.26038,
-4.39148,1.26038,
-4.37012,1.25427,
-4.34723,1.25275,
-4.30908,1.25732,
-4.26788,1.26495,
-4.21753,1.26343,
-4.15649,1.25732,
-4.08936,1.26038,
-4.00848,1.26343,
-3.92456,1.27106,
-3.83148,1.26648,
-3.7323,1.26343,
-3.63159,1.25885,
-3.52631,1.26648,
-3.41644,1.27258,
-3.30505,1.26801,
-3.19061,1.26495,
-3.07922,1.26648,
-2.96478,1.26648,
-2.85187,1.27411,
-2.74658,1.27106,
-2.63672,1.26801,
-2.53906,1.26801,
-2.44598,1.26953,
-2.35596,1.27716,
-2.27203,1.27716,
-2.19269,1.27106,
-2.11945,1.27258,
-2.05841,1.27106,
-2.00043,1.28021,
-1.94702,1.27716,
-1.9043,1.27563,
-1.8631,1.27563,
-1.82953,1.26953,
-1.79749,1.28326,
-1.77307,1.28174,
-1.75934,1.27563,
-1.74408,1.27563,
-1.7334,1.27563,
-1.7334,1.28479,
-1.73492,1.28021,
-1.74408,1.28174,
-1.75781,1.27716,
-1.7746,1.27869,
-1.79291,1.28784,
-1.81274,1.28326,
-1.84021,1.28632,
-1.86768,1.28326,
-1.89362,1.28021,
-1.92413,1.28784,
-1.95465,1.28632,
-1.98669,1.28326,
-2.01874,1.28174,
-2.05231,1.28021,
-2.09198,1.29089,
-2.1286,1.28632,
-2.16522,1.28326,
-2.20642,1.28784,
-2.24915,1.28174,
-2.28577,1.29547,
-2.32849,1.28937,
-2.36511,1.28784,
-2.40936,1.28784,
-2.45361,1.28479,
-2.49023,1.29242,
-2.52838,1.29089,
-2.565,1.29242,
-2.60468,1.28937,
-2.64282,1.28632,
-2.67792,1.297,
-2.70996,1.297,
-2.742,1.29242,
-2.77557,1.29089,
-2.80151,1.28632,
-2.82898,1.30005,
-2.85187,1.297,
-2.87476,1.29242,
-2.89307,1.29242,
-2.9068,1.28784,
-2.91901,1.30005,
-2.92969,1.29852,
-2.94037,1.29547,
-2.94952,1.29242,
-2.9541,1.29089,
-2.96021,1.30615,
-2.96173,1.30157,
-2.96173,1.297,
-2.96173,1.29547,
-2.96173,1.29547,
-2.96021,1.30615,
-2.95258,1.30157,
-2.948,1.29852,
-2.94647,1.297,
-2.948,1.29089,
-2.94495,1.30005,
-2.94495,1.30463,
-2.94647,1.3031,
-2.95105,1.30005,
-2.95105,1.297,
-2.95258,1.30463,
-2.95868,1.3031,
-2.96173,1.30157,
-2.96478,1.30005,
-2.96783,1.30005,
-2.97241,1.30463,
-2.97546,1.30768,
-2.98004,1.3031,
-2.9892,1.29852,
-2.99377,1.297,
-3.0014,1.30005,
-3.01514,1.30768,
-3.02277,1.30615,
-3.03955,1.30157,
-3.05328,1.30157,
-3.06396,1.30157,
-3.0838,1.3092,
-3.09753,1.3031,
-3.11279,1.3031,
-3.12805,1.30157,
-3.14331,1.30615,
-3.16467,1.31073,
-3.18146,1.30768,
-3.20282,1.30463,
-3.22113,1.3031,
-3.24249,1.3092,
-3.25928,1.31073,
-3.28064,1.30615,
-3.30353,1.30463,
-3.32184,1.30005,
-3.34015,1.30768,
-3.35693,1.31226,
-3.37524,1.30157,
-3.39508,1.30157,
-3.41644,1.30157,
-3.43475,1.3092,
-3.45459,1.31226,
-3.47595,1.30615,
-3.49426,1.30463,
-3.51715,1.30157,
-3.54004,1.30768,
-3.5614,1.31073,
-3.58276,1.30463,
-3.6026,1.30157,
-3.62396,1.30005,
-3.6438,1.31073,
-3.66974,1.3092,
-3.68805,1.30615,
-3.70483,1.30615,
-3.72772,1.30005,
-3.75061,1.31073,
-3.77045,1.31073,
-3.79028,1.30157,
-3.80554,1.30463,
-3.82233,1.30157,
-3.84064,1.31073,
-3.86047,1.31073,
-3.88031,1.30768,
-3.89862,1.30615,
-3.91235,1.30463,
-3.93066,1.3092,
-3.94897,1.31073,
-3.96576,1.3031,
-3.97797,1.3031,
-3.99628,1.3031,
-4.00848,1.30768,
-4.02069,1.3092,
-4.03595,1.3092,
-4.05121,1.30463,
-4.06189,1.30157,
-4.0741,1.30463,
-4.08478,1.31073,
-4.10004,1.30463,
-4.11377,1.30463,
-4.13208,1.30157,
-4.14276,1.30768,
-4.15344,1.3092,
-4.16565,1.30615,
-4.1748,1.3031,
-4.18396,1.29852,
-4.19769,1.30768,
-4.2099,1.30768,
-4.22211,1.30157,
-4.23584,1.30463,
-4.24957,1.30157,
-4.26178,1.3031,
-4.27399,1.3092,
-4.28772,1.30463,
-4.30298,1.30157,
-4.31213,1.30005,
-4.32281,1.30615,
-4.33807,1.31073,
-4.35028,1.30005,
-4.37012,1.30157,
-4.38232,1.29547,
-4.39453,1.3031,
-4.40826,1.30768,
-4.41742,1.30005,
-4.43115,1.3031,
-4.44794,1.29852,
-4.45557,1.30615,
-4.46472,1.30768,
-4.48303,1.30005,
-4.49677,1.30157,
-4.50745,1.30005,
-4.51202,1.30463,
-4.51813,1.30768,
-4.53033,1.297,
-4.54102,1.30005,
-4.55017,1.29852,
-4.5578,1.3031,
-4.56696,1.30768,
-4.57916,1.29852,
-4.58832,1.29547,
-4.59442,1.297,
-4.6051,1.3031,
-4.61884,1.3031,
-4.63867,1.297,
-4.64935,1.297,
-4.66156,1.29547,
-4.67224,1.30157,
-4.68292,1.3031,
-4.6936,1.29547,
-4.70428,1.297,
-4.71344,1.29242,
-4.72565,1.297,
-4.73633,1.30157,
-4.75159,1.297,
-4.75922,1.29547,
-4.76837,1.29242,
-4.7821,1.297,
-4.78973,1.29852,
-4.80194,1.297,
-4.80957,1.29089,
-4.8172,1.28937,
-4.82788,1.29547,
-4.83551,1.297,
-4.83856,1.297,
-4.84314,1.28937,
-4.85535,1.28937,
-4.86145,1.29547,
-4.86755,1.29547,
-4.87671,1.28937,
-4.88586,1.28937,
-4.89502,1.28326,
-4.90417,1.29242,
-4.90723,1.29852,
-4.91333,1.29242,
-4.92096,1.28937,
-4.92401,1.28784,
-4.92859,1.29089,
-4.93011,1.29852,
-4.93317,1.29089,
-4.92859,1.28632,
-4.92401,1.28479,
-4.90875,1.28937,
-4.89044,1.29089,
-4.8645,1.28937,
-4.83398,1.28479,
-4.79279,1.28174,
-4.73938,1.29089,
-4.68292,1.29547,
-4.61884,1.28937,
-4.54712,1.28479,
-4.46167,1.28174,
-4.37317,1.28784,
-4.27246,1.29242,
-4.17023,1.28632,
-4.06036,1.28326,
-3.94592,1.28479,
-3.83606,1.28632,
-3.72009,1.28937,
-3.60107,1.28632,
-3.48358,1.28479,
-3.36609,1.28021,
-3.25165,1.28479,
-3.13873,1.28632,
-3.03345,1.28021,
-2.93121,1.28174,
-2.83203,1.28021,
-2.73285,1.28326,
-2.64587,1.28632,
-2.565,1.28632,
-2.48718,1.28021,
-2.41547,1.27563,
-2.35291,1.28021,
-2.29492,1.28479,
-2.24762,1.28479,
-2.20184,1.27563,
-2.15912,1.27716,
-2.1225,1.28021,
-2.09656,1.28326,
-2.07367,1.27869,
-2.06146,1.27563,
-2.04926,1.27258,
-2.0401,1.28021,
-2.03552,1.28021,
-2.03247,1.27869,
-2.034,1.27411,
-2.04315,1.27106,
-2.05231,1.27716,
-2.06146,1.27563,
-2.07825,1.27411,
-2.09351,1.26953,
-2.10724,1.27106,
-2.12097,1.27411,
-2.14081,1.27563,
-2.16064,1.27563,
-2.18506,1.26801,
-2.211,1.26801,
-2.23846,1.27563,
-2.26746,1.27563,
-2.29797,1.27258,
-2.33002,1.26801,
-2.36359,1.26648,
-2.39563,1.27258,
-2.43073,1.27411,
-2.46735,1.27258,
-2.50397,1.26495,
-2.54059,1.26343,
-2.57568,1.26801,
-2.61688,1.27106,
-2.64893,1.26801,
-2.68555,1.26495,
-2.71912,1.26343,
-2.75421,1.26801,
-2.78168,1.26648,
-2.80914,1.26801,
-2.83508,1.25885,
-2.8595,1.25732,
-2.87933,1.26648,
-2.90527,1.26648,
-2.92969,1.26953,
-2.95258,1.25732,
-2.96936,1.25885,
-2.98462,1.25885,
-2.99988,1.26343,
-3.00903,1.26495,
-3.01514,1.25732,
-3.02887,1.25885,
-3.03802,1.26343,
-3.03955,1.26343,
-3.04871,1.25885,
-3.05023,1.2558,
-3.05176,1.2558,
-3.05786,1.26038,
-3.05634,1.25732,
-3.05481,1.26495,
-3.05634,1.25275,
-3.05328,1.25427,
-3.04718,1.25732,
-3.04565,1.25427,
-3.04413,1.2558,
-3.04108,1.25122,
-3.03955,1.25275,
-3.0365,1.26038,
-3.0365,1.25427,
-3.03497,1.25885,
-3.03497,1.25427,
-3.03192,1.25122,
-3.03192,1.25732,
-3.03345,1.25427,
-3.03955,1.2558,
-3.04108,1.24817,
-3.04413,1.25122,
-3.04718,1.2558,
-3.05176,1.25427,
-3.05176,1.25427,
-3.05634,1.24359,
-3.06396,1.24817,
-3.06854,1.25275,
-3.07617,1.25427,
-3.08228,1.25427,
-3.08838,1.24969,
-3.10211,1.24969,
-3.10974,1.25275,
-3.11737,1.25427,
-3.13263,1.25427,
-3.13873,1.24512,
-3.15247,1.23901,
-3.15857,1.25122,
-3.17383,1.24817,
-3.18604,1.24817,
-3.19977,1.24054,
-3.21198,1.24054,
-3.22723,1.24817,
-3.24249,1.24817,
-3.25623,1.24664,
-3.27148,1.23749,
-3.28522,1.23901,
-3.30353,1.24969,
-3.31421,1.24512,
-3.33252,1.24512,
-3.34778,1.23901,
-3.35846,1.23596,
-3.37219,1.24664,
-3.3844,1.23901,
-3.39661,1.24359,
-3.41339,1.23444,
-3.42865,1.23749,
-3.44391,1.24817,
-3.46527,1.23901,
-3.48358,1.24359,
-3.50494,1.23138,
-3.52325,1.23291,
-3.54004,1.24207,
-3.5614,1.23749,
-3.57513,1.24207,
-3.59497,1.23596,
-3.60718,1.23444,
-3.62549,1.23749,
-3.63617,1.23749,
-3.65143,1.23749,
-3.66821,1.23138,
-3.68805,1.22986,
-3.70331,1.23901,
-3.71857,1.23596,
-3.7323,1.23596,
-3.74603,1.22986,
-3.75977,1.22986,
-3.7735,1.23901,
-3.78723,1.23444,
-3.79486,1.23749,
-3.80554,1.22528,
-3.8147,1.22681,
-3.8269,1.23901,
-3.83759,1.23291,
-3.85284,1.23138,
-3.86505,1.22681,
-3.88031,1.22528,
-3.89252,1.23444,
-3.90625,1.23138,
-3.91541,1.23444,
-3.92303,1.22528,
-3.93066,1.2207,
-3.93982,1.23444,
-3.94287,1.22528,
-3.9505,1.23138,
-3.9566,1.22375,
-3.96729,1.22223,
-3.97186,1.23291,
-3.97644,1.22681,
-3.97949,1.23138,
-3.9856,1.22375,
-3.99323,1.21918,
-3.9978,1.23138,
-4.00696,1.22223,
-4.01306,1.22681,
-4.02527,1.22375,
-4.0329,1.21765,
-4.039,1.22681,
-4.05121,1.22375,
-4.05579,1.22528,
-4.06494,1.21918,
-4.06952,1.21918,
-4.07257,1.22986,
-4.07104,1.22223,
-4.0741,1.22986,
-4.07715,1.21765,
-4.07867,1.21765,
-4.08325,1.22375,
-4.08173,1.2207,
-4.08478,1.22223,
-4.08936,1.2146,
-4.08783,1.2146,
-4.08936,1.22528,
-4.09851,1.21765,
-4.10461,1.2207,
-4.10919,1.2146,
-4.10919,1.21307,
-4.1153,1.22528,
-4.1214,1.21918,
-4.1275,1.22223,
-4.13055,1.2146,
-4.13208,1.21155,
-4.13666,1.2207,
-4.14124,1.21918,
-4.14124,1.21613,
-4.14581,1.21307,
-4.15192,1.21002,
-4.15649,1.2207,
-4.1626,1.2146,
-4.17175,1.21613,
-4.1748,1.21307,
-4.17938,1.20697,
-4.18396,1.21918,
-4.19006,1.2146,
-4.19312,1.2146,
-4.19617,1.21307,
-4.19769,1.2085,
-4.20532,1.2146,
-4.2038,1.21765,
-4.20074,1.21613,
-4.2099,1.20697,
-4.2099,1.21155,
-4.21753,1.21155,
-4.216,1.2146,
-4.21906,1.2146,
-4.21906,1.20544,
-4.22058,1.2085,
-4.22058,1.21002,
-4.21906,1.2146,
-4.21143,1.2146,
-4.20227,1.20392,
-4.18243,1.20697,
-4.15802,1.21307,
-4.1275,1.21307,
-4.08325,1.21307,
-4.0329,1.20392,
-3.97491,1.2085,
-3.90778,1.21155,
-3.83148,1.21155,
-3.75519,1.21002,
-3.66211,1.20087,
-3.56598,1.20392,
-3.46375,1.21155,
-3.35388,1.20697,
-3.23639,1.20697,
-3.1189,1.20392,
-2.99683,1.20087,
-2.87323,1.21307,
-2.75574,1.2085,
-2.63214,1.20697,
-2.50854,1.20544,
-2.388,1.20392,
-2.27051,1.2085,
-2.15302,1.21002,
-2.04163,1.20392,
-1.93176,1.20239,
-1.82953,1.20239,
-1.73492,1.20697,
-1.6449,1.2085,
-1.55487,1.20544,
-1.474,1.20239,
-1.40533,1.20239,
-1.3382,1.20544,
-1.27563,1.20392,
-1.2207,1.20392,
-1.18103,1.19934,
-1.14136,1.20087,
-1.10931,1.20392,
-1.0788,1.20392,
-1.05438,1.19781,
-1.0376,1.20087,
-1.03302,1.19934,
-1.02386,1.20392,
-1.02081,1.20544,
-1.01929,1.19629,
-1.02539,1.19781,
-1.03607,1.19781,
-1.0498,1.19934,
-1.06812,1.20544,
-1.0849,1.19324,
-1.09863,1.19629,
-1.12,1.19781,
-1.14288,1.20087,
-1.16425,1.20392,
-1.19324,1.19781,
-1.21918,1.19171,
-1.24969,1.19629,
-1.27563,1.19629,
-1.3031,1.20087,
-1.33362,1.19171,
-1.36871,1.19019,
-1.40686,1.19171,
-1.4389,1.19934,
-1.47552,1.19934,
-1.50757,1.19324,
-1.54114,1.18713,
-1.56708,1.19019,
-1.5976,1.19629,
-1.62659,1.19934,
-1.65558,1.19324,
-1.68152,1.18713,
-1.71051,1.19019,
-1.73645,1.19324,
-1.75781,1.19781,
-1.7807,1.18713,
-1.79596,1.18866,
-1.81122,1.18866,
-1.83105,1.19629,
-1.84631,1.19324,
-1.8631,1.19019,
-1.87683,1.18561,
-1.88904,1.18561,
-1.9043,1.19629,
-1.91498,1.19629,
-1.91956,1.18866,
-1.92719,1.18713,
-1.93481,1.18408,
-1.93787,1.19324,
-1.94397,1.19171,
-1.9455,1.18866,
-1.9455,1.18561,
-1.94855,1.18408,
-1.9455,1.19171,
-1.93939,1.19324,
-1.93634,1.18561,
-1.93176,1.18713,
-1.92261,1.18408,
-1.91498,1.18866,
-1.90887,1.19171,
-1.89972,1.18713,
-1.89514,1.18408,
-1.88904,1.18408,
-1.88293,1.18866,
-1.87836,1.19629,
-1.87073,1.18408,
-1.87378,1.18103,
-1.87378,1.18103,
-1.87225,1.19019,
-1.86615,1.19019,
-1.86157,1.18561,
-1.8631,1.18408,
-1.8631,1.17798,
-1.86005,1.18713,
-1.86005,1.19171,
-1.86462,1.18408,
-1.86615,1.18408,
-1.86768,1.1795,
-1.87073,1.18713,
-1.87378,1.19171,
-1.87836,1.18713,
-1.88446,1.1795,
-1.89514,1.18103,
-1.9043,1.19019,
-1.91498,1.19171,
-1.93024,1.18561,
-1.93939,1.18256,
-1.95007,1.17798,
-1.96228,1.18561,
-1.97601,1.18713,
-1.98822,1.18713,
-2.00195,1.17798,
-2.01416,1.17798,
-2.03247,1.18256,
-2.04468,1.18713,
-2.06146,1.18103,
-2.0752,1.18103,
-2.08893,1.17645,
-2.10419,1.1795,
-2.11792,1.18713,
-2.13013,1.18256,
-2.14996,1.18256,
-2.1698,1.17645,
-2.18964,1.18103,
-2.20947,1.18713,
-2.22626,1.18103,
-2.23694,1.17645,
-2.24915,1.17493,
-2.2644,1.1795,
-2.27509,1.18561,
-2.28882,1.17645,
-2.2995,1.1795,
-2.31934,1.1734,
-2.32697,1.18103,
-2.34528,1.18713,
-2.35138,1.17645,
-2.36206,1.17645,
-2.37579,1.17188,
-2.388,1.17798,
-2.39868,1.18408,
-2.40631,1.17493,
-2.41852,1.17188,
-2.4292,1.17188,
-2.43988,1.17798,
-2.45209,1.18103,
-2.46735,1.17645,
-2.48413,1.17188,
-2.49786,1.16882,
-2.5177,1.17645,
-2.52991,1.18408,
-2.54211,1.17798,
-2.55737,1.17035,
-2.57568,1.1673,
-2.58789,1.17798,
-2.60162,1.18561,
-2.61078,1.17798,
-2.62451,1.17035,
-2.63367,1.16882,
-2.65045,1.17493,
-2.65656,1.18561,
-2.66418,1.17493,
-2.67334,1.17035,
-2.68555,1.17188,
-2.69318,1.17493,
-2.70386,1.18256,
-2.71149,1.17645,
-2.72064,1.17188,
-2.73285,1.16882,
-2.74353,1.1734,
-2.74963,1.18103,
-2.75879,1.17493,
-2.76794,1.1734,
-2.7771,1.16882,
-2.78625,1.17188,
-2.79541,1.17645,
-2.80609,1.17493,
-2.81677,1.1734,
-2.82898,1.17188,
-2.83966,1.17798,
-2.84576,1.1795,
-2.85187,1.17798,
-2.86102,1.16882,
-2.86713,1.17035,
-2.87018,1.17645,
-2.87476,1.17798,
-2.88086,1.17035,
-2.88544,1.17188,
-2.88696,1.1673,
-2.89307,1.17035,
-2.89764,1.18103,
-2.9007,1.16882,
-2.90527,1.17035,
-2.9129,1.17188,
-2.91901,1.1734,
-2.92511,1.1795,
-2.93274,1.16882,
-2.93579,1.1673,
-2.93579,1.1673,
-2.94189,1.1734,
-2.94037,1.18103,
-2.94037,1.16882,
-2.94037,1.1673,
-2.94189,1.16577,
-2.94647,1.17493,
-2.95258,1.1795,
-2.9541,1.1673,
-2.95868,1.1673,
-2.96478,1.1673,
-2.96936,1.17645,
-2.97089,1.17798,
-2.97394,1.16577,
-2.98004,1.17035,
-2.98462,1.1673,
-2.99072,1.17493,
-2.99683,1.1795,
-3.00598,1.1673,
-3.01361,1.1673,
-3.01971,1.16882,
-3.0304,1.1734,
-3.0365,1.17798,
-3.04718,1.1673,
-3.05634,1.16882,
-3.05786,1.16577,
-3.05634,1.1734,
-3.05176,1.18103,
-3.04108,1.17035,
-3.03192,1.16577,
-3.01361,1.1673,
-2.98767,1.17188,
-2.9541,1.17645,
-2.91138,1.16577,
-2.86713,1.1673,
-2.80457,1.16272,
-2.74506,1.1734,
-2.67029,1.17645,
-2.59094,1.16577,
-2.49786,1.16425,
-2.40479,1.1673,
-2.30255,1.1734,
-2.19421,1.1795,
-2.07977,1.1673,
-1.96533,1.16425,
-1.84479,1.16577,
-1.72424,1.17493,
-1.60522,1.17645,
-1.48621,1.16577,
-1.37024,1.16272,
-1.25427,1.16577,
-1.14136,1.17493,
-1.03302,1.17798,
-0.927734,1.1673,
-0.831604,1.1673,
-0.738525,1.16577,
-0.65155,1.17645,
-0.569153,1.1795,
-0.497437,1.16425,
-0.43335,1.1673,
-0.37384,1.16577,
-0.317383,1.17798,
-0.268555,1.17798,
-0.230408,1.16577,
-0.195313,1.16577,
-0.166321,1.1673,
-0.144958,1.17645,
-0.134277,1.17493,
-0.125122,1.16577,
-0.12207,1.16882,
-0.123596,1.1673,
-0.126648,1.17645,
-0.135803,1.17493,
-0.14801,1.16577,
-0.161743,1.16882,
-0.177002,1.17035,
-0.201416,1.1734,
-0.219727,1.1734,
-0.239563,1.1673,
-0.263977,1.1673,
-0.289917,1.1673,
-0.318909,1.17645,
-0.3479,1.17188,
-0.387573,1.16882,
-0.416565,1.1673,
-0.456238,1.16425,
-0.497437,1.17645,
-0.538635,1.1734,
-0.579834,1.16272,
-0.624084,1.16577,
-0.665283,1.16577,
-0.71106,1.17493,
-0.752258,1.1734,
-0.799561,1.16425,
-0.842285,1.16577,
-0.881958,1.16425,
-0.923157,1.1795,
-0.958252,1.17188,
-0.996399,1.16577,
-1.02692,1.16577,
-1.05896,1.16882,
-1.08948,1.1795,
-1.11084,1.17188,
-1.14136,1.16425,
-1.16119,1.16425,
-1.18103,1.17035,
-1.19934,1.17645,
-1.21918,1.17645,
-1.23596,1.16577,
-1.25122,1.16272,
-1.26343,1.16882,
-1.27563,1.17493,
-1.28174,1.17493,
-1.28937,1.16882,
-1.29242,1.16577,
-1.29395,1.16882,
-1.29547,1.17493,
-1.29089,1.17188,
-1.28784,1.16577,
-1.28479,1.16577,
-1.27869,1.16882,
-1.27106,1.17493,
-1.2619,1.17188,
-1.25275,1.16577,
-1.24359,1.16577,
-1.23444,1.1673,
-1.22833,1.17645,
-1.21765,1.17188,
-1.20239,1.16425,
-1.19476,1.16882,
-1.18408,1.16882,
-1.17798,1.1734,
-1.1734,1.17035,
-1.17035,1.1673,
-1.17035,1.16577,
-1.16425,1.17035,
-1.16425,1.17645,
-1.1673,1.1734,
-1.17493,1.16882,
-1.1795,1.16425,
-1.18561,1.1673,
-1.20087,1.17645,
-1.21002,1.1734,
-1.21918,1.1673,
-1.23138,1.16577,
-1.24054,1.16577,
-1.25275,1.17645,
-1.26495,1.17188,
-1.28021,1.16577,
-1.29547,1.16272,
-1.3092,1.1673,
-1.32751,1.1734,
-1.3443,1.17188,
-1.35956,1.16882,
-1.37482,1.16425,
-1.39313,1.16577,
-1.40686,1.17493,
-1.42365,1.1734,
-1.43738,1.1673,
-1.45874,1.1673,
-1.47552,1.16882,
-1.49384,1.17645,
-1.51215,1.1734,
-1.53503,1.16882,
-1.55334,1.16425,
-1.5686,1.1673,
-1.58539,1.1734,
-1.6037,1.17188,
-1.62201,1.15967,
-1.64032,1.16577,
-1.66016,1.1673,
-1.67694,1.1734,
-1.69373,1.17493,
-1.71051,1.17035,
-1.73035,1.16425,
-1.74561,1.16882,
-1.76392,1.17188,
-1.7807,1.17035,
-1.79749,1.1673,
-1.81427,1.16577,
-1.828,1.17035,
-1.84479,1.1734,
-1.86157,1.17493,
-1.87836,1.17035,
-1.89819,1.16272,
-1.91803,1.17035,
-1.93939,1.1734,
-1.95313,1.17035,
-1.97296,1.1673,
-1.98669,1.16425,
-2.00348,1.16882,
-2.02026,1.17645,
-2.03857,1.17493,
-2.05688,1.16882,
-2.07214,1.16425,
-2.0874,1.17035,
-2.10571,1.17645,
-2.11792,1.17493,
-2.1347,1.17493,
-2.14691,1.16425,
-2.16217,1.17035,
-2.18048,1.17798,
-2.19574,1.17645,
-2.21863,1.1734,
-2.24152,1.1673,
-2.25677,1.17035,
-2.27814,1.17798,
-2.29645,1.17798,
-2.31628,1.17188,
-2.32544,1.16882,
-2.34222,1.17035,
-2.35443,1.17645,
-2.36206,1.1795,
-2.36969,1.17493,
-2.37732,1.17188,
-2.38495,1.17493,
-2.388,1.1795,
-2.39563,1.1795,
-2.40326,1.17645,
-2.41547,1.17188,
-2.41699,1.17798,
-2.42462,1.18256,
-2.43073,1.18103,
-2.43835,1.17493,
-2.44446,1.1734,
-2.44904,1.17493,
-2.45361,1.18408,
-2.45819,1.18256,
-2.46124,1.18103,
-2.46735,1.17493,
-2.4704,1.17798,
-2.47955,1.18408,
-2.48413,1.18256,
-2.49634,1.1795,
-2.50244,1.17798,
-2.5116,1.1795,
-2.51923,1.18408,
-2.52533,1.18561,
-2.53296,1.18408,
-2.54211,1.17645,
-2.55127,1.18256,
-2.5589,1.18713,
-2.56805,1.18713,
-2.57721,1.18866,
-2.58331,1.17798,
-2.59094,1.18866,
-2.6001,1.18561,
-2.6062,1.18713,
-2.61078,1.18866,
-2.61993,1.18408,
-2.62909,1.18408,
-2.63672,1.19019,
-2.64587,1.19171,
-2.65808,1.19781,
-2.66418,1.18561,
-2.67029,1.18713,
-2.67792,1.19324,
-2.6886,1.19629,
-2.69165,1.19629,
-2.69623,1.18713,
-2.70386,1.18866,
-2.71301,1.19324,
-2.72369,1.19629,
-2.72522,1.19629,
-2.73285,1.19019,
-2.73438,1.19019,
-2.74353,1.19934,
-2.74811,1.19629,
-2.74811,1.20087,
-2.74506,1.19324,
-2.74353,1.19324,
-2.73438,1.19781,
-2.72217,1.20239,
-2.70538,1.20392,
-2.67944,1.19324,
-2.64893,1.19324,
-2.60773,1.20239,
-2.54974,1.20239,
-2.48566,1.20697,
-2.40936,1.19781,
-2.32544,1.19934,
-2.23236,1.20697,
-2.13013,1.20697,
-2.02026,1.21002,
-1.90277,1.20392,
-1.78375,1.20544,
-1.65558,1.21002,
-1.51825,1.21155,
-1.38245,1.21307,
-1.24512,1.20392,
-1.10779,1.20697,
-0.973511,1.21155,
-0.839233,1.2146,
-0.71106,1.21613,
-0.585938,1.2085,
-0.462341,1.2085,
-0.350952,1.21918,
-0.239563,1.21613,
-0.134277,1.21613,
-0.038147,1.21765,
0.0579834,1.21307,
0.135803,1.2146,
0.212097,1.2207,
0.280762,1.2207,
0.338745,1.2207,
0.390625,1.21155,
0.437927,1.2207,
0.471497,1.22375,
0.502014,1.22375,
0.523376,1.2207,
0.538635,1.21765,
0.544739,1.22528,
0.550842,1.22528,
0.552368,1.22375,
0.544739,1.22681,
0.541687,1.2146,
0.52948,1.22528,
0.509644,1.22681,
0.488281,1.22986,
0.471497,1.23138,
0.45166,1.22223,
0.424194,1.23138,
0.39978,1.22986,
0.370789,1.23291,
0.3479,1.23138,
0.320435,1.22681,
0.289917,1.23444,
0.260925,1.23444,
0.22583,1.23444,
0.195313,1.23138,
0.158691,1.22681,
0.12207,1.23291,
0.0854492,1.23749,
0.0457764,1.23901,
0.00305176,1.23291,
-0.0335693,1.23444,
-0.0732422,1.23749,
-0.111389,1.23901,
-0.151062,1.24359,
-0.189209,1.23901,
-0.222778,1.23444,
-0.260925,1.24054,
-0.294495,1.24207,
-0.334167,1.24359,
-0.360107,1.23749,
-0.389099,1.23901,
-0.42572,1.24207,
-0.45166,1.24512,
-0.479126,1.24512,
-0.50354,1.23901,
-0.526428,1.24054,
-0.546265,1.24969,
-0.567627,1.24512,
-0.585938,1.24817,
-0.602722,1.24359,
-0.614929,1.24207,
-0.628662,1.24664,
-0.636292,1.25122,
-0.645447,1.25427,
-0.650024,1.24969,
-0.65918,1.24512,
-0.668335,1.24969,
-0.668335,1.25122,
-0.671387,1.25427,
-0.671387,1.24969,
-0.674438,1.24969,
-0.674438,1.25427,
-0.682068,1.25427,
-0.683594,1.25732,
-0.682068,1.25275,
-0.68512,1.25122,
-0.686646,1.25427,
-0.691223,1.25732,
-0.686646,1.25885,
-0.692749,1.2558,
-0.692749,1.2558,
-0.695801,1.25732,
-0.695801,1.26038,
-0.700378,1.26495,
-0.704956,1.2558,
-0.714111,1.25427,
-0.714111,1.26343,
-0.721741,1.26343,
-0.732422,1.26495,
-0.738525,1.26343,
-0.746155,1.25732,
-0.753784,1.26495,
-0.764465,1.26648,
-0.779724,1.26495,
-0.793457,1.26038,
-0.805664,1.25732,
-0.813293,1.26495,
-0.831604,1.27106,
-0.845337,1.27258,
-0.863647,1.25885,
-0.878906,1.25885,
-0.898743,1.26801,
-0.917053,1.26801,
-0.939941,1.27106,
-0.9552,1.26801,
-0.970459,1.26038,
-0.991821,1.27106,
-1.01318,1.26801,
-1.03607,1.27258,
-1.05591,1.26953,
-1.0788,1.26343,
-1.09711,1.27106,
-1.11694,1.27411,
-1.13983,1.27716,
-1.16272,1.27106,
-1.18256,1.26495,
-1.2085,1.27258,
-1.23291,1.27563,
-1.25732,1.27563,
-1.28021,1.26953,
-1.30005,1.26801,
-1.32141,1.26953,
-1.34735,1.27563,
-1.36719,1.27716,
-1.3855,1.27411,
-1.40839,1.27106,
-1.4267,1.27258,
-1.45111,1.27716,
-1.474,1.28021,
-1.48926,1.27411,
-1.51825,1.26953,
-1.53503,1.27869,
-1.5564,1.27869,
-1.58539,1.28021,
-1.60217,1.27716,
-1.62354,1.27258,
-1.64795,1.27411,
-1.66931,1.27716,
-1.69373,1.28174,
-1.71661,1.27563,
-1.73798,1.27411,
-1.75629,1.27716,
-1.77765,1.27716,
-1.79443,1.28021,
-1.81427,1.27563,
-1.83716,1.27563,
-1.86005,1.27869,
-1.87683,1.28174,
-1.90125,1.28174,
-1.9165,1.27869,
-1.93329,1.27411,
-1.95007,1.27716,
-1.97144,1.28021,
-1.98669,1.28174,
-2.00653,1.27716,
-2.02484,1.27563,
-2.04315,1.28174,
-2.05841,1.28021,
-2.07214,1.28174,
-2.0874,1.27716,
-2.10266,1.27563,
-2.11639,1.28174,
-2.13318,1.28326,
-2.15149,1.28326,
-2.16827,1.28021,
-2.18048,1.27563,
-2.19574,1.28021,
-2.20795,1.28021,
-2.22321,1.28632,
-2.23236,1.28174,
-2.24457,1.27411,
-2.25067,1.28021,
-2.25983,1.27869,
-2.27203,1.28632,
-2.28119,1.28021,
-2.2934,1.27716,
-2.3056,1.28021,
-2.31934,1.28632,
-2.32849,1.28784,
-2.33612,1.28174,
-2.35138,1.27563,
-2.35901,1.28021,
-2.36969,1.28174,
-2.37885,1.28632,
-2.3941,1.28021,
-2.40936,1.27869,
-2.42157,1.28174,
-2.43225,1.28479,
-2.44751,1.28937,
-2.45361,1.28174,
-2.46429,1.27716,
-2.47955,1.28326,
-2.49023,1.28479,
-2.50397,1.28632,
-2.51312,1.27869,
-2.52838,1.27716,
-2.53601,1.28174,
-2.55127,1.28632,
-2.55585,1.28326,
-2.565,1.28021,
-2.57416,1.27716,
-2.58636,1.28021,
-2.59705,1.28632,
-2.60468,1.28479,
-2.61536,1.27869,
-2.62451,1.27411,
-2.62909,1.28326,
-2.6413,1.28479,
-2.65198,1.28479,
-2.66113,1.28174,
-2.67334,1.27563,
-2.68097,1.27869,
-2.6947,1.28632,
-2.70538,1.28632,
-2.71759,1.27869,
-2.73132,1.27716,
-2.74963,1.28021,
-2.76794,1.28326,
-2.78168,1.28479,
-2.79541,1.27869,
-2.81372,1.27716,
-2.82593,1.27716,
-2.83966,1.28174,
-2.84882,1.28021,
-2.85492,1.27869,
-2.85797,1.27411,
-2.84882,1.28021,
-2.83356,1.28479,
-2.81067,1.28479,
-2.78015,1.28174,
-2.7359,1.27563,
-2.6886,1.28021,
-2.62604,1.28021,
-2.55585,1.28174,
-2.47498,1.27869,
-2.38495,1.27716,
-2.28424,1.27869,
-2.1759,1.28021,
-2.05994,1.28021,
-1.94244,1.27716,
-1.81732,1.27563,
-1.68915,1.27716,
-1.55792,1.28174,
-1.4267,1.28021,
-1.29242,1.27563,
-1.15967,1.27563,
-1.02997,1.27411,
-0.906372,1.28174,
-0.784302,1.27869,
-0.668335,1.27563,
-0.559998,1.27258,
-0.456238,1.27716,
-0.360107,1.28021,
-0.271606,1.28021,
-0.189209,1.27563,
-0.114441,1.27716,
-0.0488281,1.27563,
0.00610352,1.27716,
0.062561,1.27869,
0.108337,1.27411,
0.14801,1.27411,
0.183105,1.27563,
0.209045,1.27869,
0.224304,1.27258,
0.238037,1.27563,
0.241089,1.27411,
0.244141,1.27258,
0.244141,1.27563,
0.233459,1.27411,
0.224304,1.27411,
0.20752,1.27411,
0.189209,1.27258,
0.169373,1.27563,
0.146484,1.27563,
0.123596,1.27106,
0.0961304,1.27258,
0.0732422,1.26801,
0.0442505,1.27563,
0.0137329,1.27106,
-0.0228882,1.27258,
-0.0610352,1.27106,
-0.0961304,1.27106,
-0.140381,1.27411,
-0.180054,1.27106,
-0.219727,1.27106,
-0.263977,1.26801,
-0.306702,1.26648,
-0.354004,1.27258,
-0.402832,1.27258,
-0.444031,1.26801,
-0.489807,1.26343,
-0.535583,1.26648,
-0.578308,1.27106,
-0.622559,1.26953,
-0.666809,1.26648,
-0.706482,1.26343,
-0.744629,1.26495,
-0.787354,1.26953,
-0.822449,1.26801,
-0.85907,1.26495,
-0.889587,1.26343,
-0.921631,1.26495,
-0.946045,1.26801,
-0.968933,1.26648,
-0.990295,1.26038,
-1.01471,1.25885,
-1.02997,1.26343,
-1.04828,1.26953,
-1.06049,1.26343,
-1.07574,1.26343,
-1.08948,1.25885,
-1.09863,1.26343,
-1.10321,1.26648,
-1.11084,1.26648,
-1.11389,1.25732,
-1.11237,1.2558,
-1.11542,1.25732,
-1.11084,1.26495,
-1.11084,1.26495,
-1.10931,1.2558,
-1.11237,1.25427,
-1.11237,1.25732,
-1.10779,1.26038,
-1.10931,1.26038,
-1.10626,1.25427,
-1.10626,1.25427,
-1.10321,1.2558,
-1.10321,1.25732,
-1.10321,1.2558,
-1.09863,1.25275,
-1.10168,1.25275,
-1.10168,1.2558,
-1.09863,1.2558,
-1.09558,1.2558,
-1.09406,1.25275,
-1.09863,1.25732,
-1.10779,1.25275,
-1.11084,1.25732,
-1.11847,1.25427,
-1.12457,1.25122,
-1.13373,1.24969,
-1.14288,1.25275,
-1.14746,1.2558,
-1.15814,1.2558,
-1.17188,1.24817,
-1.18408,1.24969,
-1.19781,1.25122,
-1.21765,1.25427,
-1.23138,1.25427,
-1.24969,1.24664,
-1.27106,1.24817,
-1.28937,1.25122,
-1.31073,1.25427,
-1.33362,1.25122,
-1.35193,1.24359,
-1.37177,1.24664,
-1.39618,1.24817,
-1.41296,1.25427,
-1.43738,1.25275,
-1.46027,1.24512,
-1.48468,1.24512,
-1.51062,1.24512,
-1.53503,1.25275,
-1.56097,1.24817,
-1.58081,1.24359,
-1.6037,1.24207,
-1.62659,1.24359,
-1.64795,1.24664,
-1.67236,1.25275,
-1.6983,1.23596,
-1.71814,1.24054,
-1.73798,1.24207,
-1.75934,1.24664,
-1.77917,1.24664,
-1.80359,1.23901,
-1.8219,1.24054,
-1.84479,1.24207,
-1.86615,1.24664,
-1.88751,1.24664,
-1.9043,1.23596,
-1.92413,1.23901,
-1.94092,1.24207,
-1.95923,1.24359,
-1.97906,1.24512,
-1.9989,1.23901,
-2.01874,1.23901,
-2.04163,1.23749,
-2.05994,1.23901,
-2.07672,1.24054,
-2.09503,1.23749,
-2.11487,1.23596,
-2.1286,1.23596,
-2.14996,1.24207,
-2.16827,1.24207,
-2.18506,1.23138,
-2.20795,1.23291,
-2.22321,1.23596,
-2.24457,1.23901,
-2.2583,1.23901,
-2.27509,1.22681,
-2.29187,1.22986,
-2.30865,1.23444,
-2.32697,1.23596,
-2.34222,1.23901,
-2.35596,1.22681,
-2.37885,1.23291,
-2.39563,1.23291,
-2.41089,1.23749,
-2.42615,1.23596,
-2.43988,1.22375,
-2.45667,1.22681,
-2.4704,1.23291,
-2.48566,1.23901,
-2.49634,1.23444,
-2.50854,1.22528,
-2.5238,1.22681,
-2.53296,1.22986,
-2.54364,1.23596,
-2.55432,1.22986,
-2.56195,1.22223,
-2.57721,1.22681,
-2.58942,1.22986,
-2.59857,1.23291,
-2.6062,1.23291,
-2.61536,1.2207,
-2.62146,1.22375,
-2.63062,1.22681,
-2.63824,1.22986,
-2.64587,1.23138,
-2.6535,1.2207,
-2.66418,1.22223,
-2.67487,1.22528,
-2.68402,1.22986,
-2.69318,1.23138,
-2.69623,1.22223,
-2.70386,1.2207,
-2.71454,1.2207,
-2.72522,1.22986,
-2.73285,1.22681,
-2.73895,1.21613,
-2.74658,1.21918,
-2.75421,1.22223,
-2.76337,1.22375,
-2.77405,1.22681,
-2.78168,1.21613,
-2.79999,1.21765,
-2.81219,1.21765,
-2.8183,1.22223,
-2.83051,1.22528,
-2.84271,1.2146,
-2.85645,1.21765,
-2.87018,1.21918,
-2.88239,1.22375,
-2.9007,1.2207,
-2.90985,1.21613,
-2.92511,1.2146,
-2.93732,1.2146,
-2.94952,1.2207,
-2.96173,1.22223,
-2.97089,1.21613,
-2.98157,1.21765,
-2.98615,1.2146,
-2.98767,1.22223,
-2.9892,1.2146,
-2.98767,1.2146,
-2.97852,1.21155,
-2.96631,1.21613,
-2.94342,1.22375,
-2.91138,1.21765,
-2.87018,1.21765,
-2.82288,1.21613,
-2.75879,1.21613,
-2.68707,1.2207,
-2.61078,1.21613,
-2.51923,1.2146,
-2.4231,1.21155,
-2.31476,1.21765,
-2.20337,1.2207,
-2.0813,1.21765,
-1.95618,1.21002,
-1.828,1.21002,
-1.70135,1.2146,
-1.57166,1.21765,
-1.44806,1.21155,
-1.32599,1.21002,
-1.20239,1.2085,
-1.08643,1.2146,
-0.971985,1.21918,
-0.862122,1.2085,
-0.758362,1.20697,
-0.663757,1.20697,
-0.57373,1.21155,
-0.491333,1.21155,
-0.418091,1.21002,
-0.354004,1.21155,
-0.297546,1.20392,
-0.248718,1.21002,
-0.19989,1.2146,
-0.158691,1.21002,
-0.125122,1.20392,
-0.0976563,1.20697,
-0.0762939,1.21002,
-0.0610352,1.21155,
-0.0549316,1.21002,
-0.0534058,1.2085,
-0.0549316,1.20239,
-0.0640869,1.21155,
-0.0747681,1.21307,
-0.0946045,1.2085,
-0.111389,1.20239,
-0.126648,1.20087,
-0.15564,1.2085,
-0.170898,1.21155,
-0.198364,1.20544,
-0.22583,1.20544,
-0.254822,1.19934,
-0.286865,1.20544,
-0.318909,1.2085,
-0.352478,1.20697,
-0.386047,1.20239,
-0.427246,1.19934,
-0.462341,1.2085,
-0.50354,1.21307,
-0.546265,1.20697,
-0.585938,1.20239,
-0.630188,1.19934,
-0.672913,1.2085,
-0.715637,1.2085,
-0.761414,1.20544,
-0.80719,1.20239,
-0.849915,1.19629,
-0.891113,1.2085,
-0.933838,1.2085,
-0.971985,1.20697,
-1.00403,1.20087,
-1.0376,1.19629,
-1.07117,1.2085,
-1.10168,1.20392,
-1.13068,1.20544,
-1.15509,1.19781,
-1.17798,1.19781,
-1.19934,1.20392,
-1.21918,1.20544,
-1.23291,1.20087,
-1.24664,1.19934,
-1.25275,1.19629,
-1.26038,1.20087,
-1.26495,1.20697,
-1.26953,1.20087,
-1.26801,1.19934,
-1.26801,1.19324,
-1.26801,1.20087,
-1.26495,1.20239,
-1.2619,1.19934,
-1.26038,1.19934,
-1.2558,1.19171,
-1.24969,1.20087,
-1.24969,1.20239,
-1.24664,1.20087,
-1.23749,1.19629,
-1.24054,1.19019,
-1.23291,1.19781,
-1.22833,1.20087,
-1.22528,1.20239,
-1.21613,1.19629,
-1.2146,1.18866,
-1.20697,1.19781,
-1.20544,1.19934,
-1.20087,1.20239,
-1.20087,1.19171,
-1.20239,1.19019,
-1.20239,1.19324,
-1.20544,1.20087,
-1.2146,1.20087,
-1.21918,1.19629,
-1.22833,1.18408,
-1.23749,1.19324,
-1.24664,1.20087,
-1.25275,1.20087,
-1.25732,1.19019,
-1.27869,1.18713,
-1.28784,1.19934,
-1.30005,1.19781,
-1.31378,1.19781,
-1.32904,1.19019,
-1.3504,1.18408,
-1.36261,1.19324,
-1.38245,1.19934,
-1.40076,1.19629,
-1.41907,1.18866,
-1.4389,1.18408,
-1.45569,1.19171,
-1.48163,1.19629,
-1.49841,1.19934,
-1.5213,1.19019,
-1.53961,1.18103,
-1.56403,1.19171,
-1.58844,1.19324,
-1.61133,1.19781,
-1.63422,1.19171,
-1.65558,1.18256,
-1.67389,1.19019,
-1.69067,1.19324,
-1.70898,1.19781,
-1.72729,1.19019,
-1.74866,1.1795,
-1.77307,1.18866,
-1.79596,1.19171,
-1.8158,1.19629,
-1.83563,1.18713,
-1.85394,1.18103,
-1.87378,1.18866,
-1.89667,1.18866,
-1.91345,1.19629,
-1.93481,1.18561,
-1.95465,1.18256,
-1.97449,1.19019,
-1.99585,1.18713,
-2.01263,1.19171,
-2.03552,1.18866,
-2.05078,1.17493,
-2.06757,1.18866,
-2.0874,1.18561,
-2.10571,1.19019,
-2.11945,1.18561,
-2.13776,1.1795,
-2.14996,1.18713,
-2.16522,1.18713,
-2.18353,1.19019,
-2.19727,1.18408,
-2.2171,1.17798,
-2.22778,1.18866,
-2.24457,1.18866,
-2.2583,1.18866,
-2.27356,1.18408,
-2.28577,1.17645,
-2.30103,1.18408,
-2.31018,1.19019,
-2.32391,1.18713,
-2.33459,1.18256,
-2.34985,1.17493,
-2.36206,1.18561,
-2.37122,1.18866,
-2.3819,1.18713,
-2.39105,1.18408,
-2.39716,1.17798,
-2.40631,1.18103,
-2.41547,1.18866,
-2.4231,1.18713,
-2.43073,1.18408,
-2.43835,1.17493,
-2.43988,1.18103,
-2.44904,1.18408,
-2.45819,1.18408,
-2.46582,1.18256,
-2.47803,1.1734,
-2.48718,1.17798,
-2.49634,1.19019,
-2.50244,1.18713,
-2.51312,1.18103,
-2.52228,1.1734,
-2.52838,1.17798,
-2.54059,1.18408,
-2.54974,1.18408,
-2.56042,1.1795,
-2.56805,1.17035,
-2.57416,1.18256,
-2.58179,1.18256,
-2.58789,1.18561,
-2.59552,1.18256,
-2.60315,1.17188,
-2.6123,1.1795,
-2.62146,1.18256,
-2.63062,1.18103,
-2.63672,1.18103,
-2.64893,1.1734,
-2.65503,1.18103,
-2.66571,1.18256,
-2.67487,1.18561,
-2.68555,1.18256,
-2.6947,1.1734,
-2.69928,1.18103,
-2.71301,1.18103,
-2.72522,1.18561,
-2.7359,1.18103,
-2.742,1.1734,
-2.74963,1.18103,
-2.76642,1.17798,
-2.77252,1.18103,
-2.7832,1.17798,
-2.80151,1.17035,
-2.80762,1.18103,
-2.8183,1.18103,
-2.82593,1.18256,
-2.83661,1.1795,
-2.84424,1.17188,
-2.85797,1.1795,
-2.86865,1.1795,
-2.87933,1.18103,
-2.88696,1.17645,
-2.89459,1.17035,
-2.89917,1.1795,
-2.90527,1.18256,
-2.90375,1.17798,
-2.90222,1.17645,
-2.89459,1.17035,
-2.88239,1.18256,
-2.86713,1.18256,
-2.84271,1.18103,
-2.80609,1.17645,
-2.76489,1.17188,
-2.70996,1.1795,
-2.64893,1.18103,
-2.57263,1.18256,
-2.49176,1.17645,
-2.39563,1.17035,
-2.29492,1.18103,
-2.18201,1.1795,
-2.07062,1.18408,
-1.94702,1.17645,
-1.81427,1.17035,
-1.68152,1.18103,
-1.54266,1.18103,
-1.40839,1.18408,
-1.26953,1.17798,
-1.13678,1.1734,
-0.999451,1.18103,
-0.866699,1.18408,
-0.740051,1.1795,
-0.624084,1.18103,
-0.506592,1.17188,
-0.40741,1.18713,
-0.306702,1.18103,
-0.216675,1.18256,
-0.126648,1.17798,
-0.0549316,1.17188,
0.0167847,1.1795,
0.0793457,1.18103,
0.132751,1.18103,
0.183105,1.17493,
0.219727,1.17035,
0.259399,1.18256,
0.288391,1.18103,
0.315857,1.18561,
0.326538,1.17493,
0.335693,1.17493,
0.346375,1.18103,
0.341797,1.18408,
0.341797,1.18408,
0.335693,1.17645,
0.325012,1.1734,
0.309753,1.18256,
0.292969,1.18561,
0.271606,1.18256,
0.253296,1.1795,
0.228882,1.17493,
0.20752,1.18408,
0.183105,1.18408,
0.157166,1.18103,
0.128174,1.17645,
0.0976563,1.17493,
0.0640869,1.18561,
0.038147,1.18713,
0.00457764,1.18408,
-0.0244141,1.17493,
-0.0610352,1.17188,
-0.0976563,1.18408,
-0.128174,1.18561,
-0.164795,1.18103,
-0.202942,1.17645,
-0.242615,1.1734,
-0.283813,1.18408,
-0.32196,1.18713,
-0.358582,1.18408,
-0.395203,1.17493,
-0.434875,1.17493,
-0.471497,1.18408,
-0.500488,1.18408,
-0.532532,1.1795,
-0.567627,1.17493,
-0.596619,1.17188,
-0.624084,1.18408,
-0.646973,1.18713,
-0.672913,1.1795,
-0.694275,1.17493,
-0.718689,1.17493,
-0.743103,1.18408,
-0.758362,1.18408,
-0.776672,1.18256,
-0.788879,1.1795,
-0.802612,1.17493,
-0.811768,1.18713,
-0.819397,1.18561,
-0.828552,1.18256,
-0.83313,1.17798,
-0.830078,1.17798,
-0.828552,1.18713,
-0.828552,1.18561,
-0.831604,1.18408,
-0.828552,1.1795,
-0.822449,1.18103,
-0.827026,1.18561,
-0.822449,1.18561,
-0.819397,1.18713,
-0.817871,1.17645,
-0.811768,1.17493,
-0.805664,1.18408,
-0.805664,1.18713,
-0.804138,1.18561,
-0.805664,1.17645,
-0.804138,1.17493,
-0.802612,1.18713,
-0.80719,1.18713,
-0.80719,1.18561,
-0.80719,1.17493,
-0.814819,1.1795,
-0.820923,1.18866,
-0.828552,1.18713,
-0.834656,1.18408,
-0.840759,1.17645,
-0.848389,1.1795,
-0.856018,1.18408,
-0.868225,1.18866,
-0.87738,1.18561,
-0.889587,1.17645,
-0.904846,1.17798,
-0.917053,1.18866,
-0.932312,1.19171,
-0.944519,1.18866,
-0.964355,1.17798,
-0.984192,1.17798,
-0.999451,1.18713,
-1.02081,1.19629,
-1.04675,1.18561,
-1.06354,1.17798,
-1.0849,1.17798,
-1.10626,1.18408,
-1.12915,1.19019,
-1.15356,1.18561,
-1.17188,1.17798,
-1.19324,1.18103,
-1.21613,1.18561,
-1.23596,1.18866,
-1.25732,1.18866,
-1.28326,1.17798,
-1.3092,1.17798,
-1.33057,1.18713,
-1.35651,1.18713,
-1.37787,1.19019,
-1.39618,1.17798,
-1.41907,1.18103,
-1.4389,1.18408,
-1.46332,1.19171,
-1.48468,1.18713,
-1.50604,1.17798,
-1.53046,1.17798,
-1.55182,1.18866,
-1.57166,1.18866,
-1.59912,1.18561,
-1.61896,1.1795,
-1.63879,1.18103,
-1.65863,1.18561,
-1.67999,1.19019,
-1.69983,1.18408,
-1.72424,1.1795,
-1.74561,1.18103,
-1.76544,1.18713,
-1.78528,1.18866,
-1.80664,1.18256,
-1.82648,1.18256,
-1.84631,1.17645,
-1.86768,1.18866,
-1.88446,1.18866,
-1.90582,1.18256,
-1.9165,1.17645,
-1.93481,1.18103,
-1.94855,1.18713,
-1.96381,1.19019,
-1.97906,1.18408,
-1.99585,1.18103,
-2.01111,1.18103,
-2.02789,1.18866,
-2.04468,1.19019,
-2.05994,1.18256,
-2.07214,1.17798,
-2.08435,1.18103,
-2.09198,1.18713,
-2.10571,1.18713,
-2.11639,1.18103,
-2.12555,1.17798,
-2.13623,1.18103,
-2.14081,1.18561,
-2.14844,1.18866,
-2.15454,1.18561,
-2.15607,1.17798,
-2.16217,1.17645,
-2.16827,1.18408,
-2.17743,1.18713,
-2.18506,1.18256,
-2.18964,1.1795,
-2.19727,1.1795,
-2.20642,1.18408,
-2.2171,1.18713,
-2.22626,1.18408,
-2.23846,1.17645,
-2.24457,1.1795,
-2.25067,1.18408,
-2.2583,1.18866,
-2.27051,1.18103,
-2.27966,1.17645,
-2.28729,1.1795,
-2.29492,1.18256,
-2.30255,1.18866,
-2.31323,1.18103,
-2.32086,1.18408,
-2.32697,1.17645,
-2.33459,1.18256,
-2.3468,1.18866,
-2.3468,1.18256,
-2.35443,1.18103,
-2.35748,1.1795,
-2.36206,1.18408,
-2.36816,1.18713,
-2.37427,1.17645,
-2.38495,1.17798,
-2.39258,1.17798,
-2.39563,1.18256,
-2.40936,1.18866,
-2.41699,1.18103,
-2.43378,1.1795,
-2.44293,1.1795,
-2.45514,1.18408,
-2.46277,1.18713,
-2.47192,1.1795,
-2.48413,1.17493,
-2.49329,1.17645,
-2.50244,1.18256,
-2.5177,1.18866,
-2.5238,1.1795,
-2.53448,1.17798,
-2.54059,1.17493,
-2.55127,1.18408,
-2.56348,1.18866,
-2.57568,1.18103,
-2.59094,1.17798,
-2.60315,1.17798,
-2.61078,1.18103,
-2.62299,1.18866,
-2.63367,1.18103,
-2.6413,1.17798,
-2.6535,1.17798,
-2.66113,1.18256,
-2.65503,1.18561,
-2.65503,1.17798,
-2.6413,1.17645,
-2.62909,1.17645,
-2.60925,1.18256,
-2.58179,1.18561,
-2.54364,1.1795,
-2.50244,1.17493,
-2.45056,1.17798,
-2.38495,1.1795,
-2.31476,1.18561,
-2.23083,1.18103,
-2.13928,1.17493,
-2.03857,1.17798,
-1.92719,1.18408,
-1.80817,1.18713,
-1.68304,1.18408,
-1.5564,1.17645,
-1.41907,1.17645,
-1.29089,1.1795,
-1.15204,1.18561,
-1.01776,1.17798,
-0.883484,1.17188,
-0.753784,1.17493,
-0.628662,1.1795,
-0.506592,1.18561,
-0.392151,1.1795,
-0.282288,1.17493,
-0.180054,1.17493,
-0.0808716,1.17798,
0.00152588,1.18408,
0.0854492,1.17645,
0.157166,1.17645,
0.224304,1.1734,
0.279236,1.17645,
0.323486,1.18408,
0.363159,1.17798,
0.39978,1.17493,
0.42572,1.1734,
0.448608,1.1734,
0.463867,1.18408,
0.473022,1.17798,
0.476074,1.1734,
0.4776,1.1734,
0.476074,1.1734,
0.466919,1.18103,
0.453186,1.17798,
0.434875,1.1734,
0.418091,1.17188,
0.396729,1.17493,
0.370789,1.1795,
0.341797,1.17645,
0.314331,1.17493,
0.282288,1.17188,
0.250244,1.17035,
0.216675,1.17798,
0.177002,1.17493,
0.140381,1.17493,
0.10376,1.17035,
0.062561,1.17035,
0.0198364,1.18103,
-0.0228882,1.17798,
-0.0686646,1.1734,
-0.115967,1.17035,
-0.164795,1.17035,
-0.212097,1.17798,
-0.257874,1.17798,
-0.30365,1.17188,
-0.3479,1.17035,
-0.390625,1.17035,
-0.439453,1.17645,
-0.485229,1.17798,
-0.52948,1.16882,
-0.569153,1.16882,
-0.602722,1.17035,
-0.640869,1.17798,
-0.679016,1.17798,
-0.714111,1.17188,
-0.743103,1.16882,
-0.767517,1.17035,
-0.794983,1.17645,
-0.817871,1.17493,
-0.837708,1.16882,
-0.85144,1.16882,
-0.863647,1.16577,
-0.87738,1.17645,
-0.891113,1.17035,
-0.900269,1.17188,
-0.907898,1.16882,
-0.91095,1.16882,
-0.914001,1.17798,
-0.914001,1.1734,
-0.917053,1.17035,
-0.917053,1.16882,
-0.91095,1.1673,
-0.91095,1.17645,
-0.914001,1.17493,
-0.912476,1.17188,
-0.906372,1.16577,
-0.90332,1.1673,
-0.897217,1.17645,
-0.886536,1.1734,
-0.878906,1.17188,
-0.87738,1.17188,
-0.871277,1.1673,
-0.869751,1.17798,
-0.866699,1.1734,
-0.869751,1.16577,
-0.868225,1.17035,
-0.866699,1.16882,
-0.869751,1.17645,
-0.869751,1.1734,
-0.872803,1.17035,
-0.875854,1.16577,
-0.875854,1.1673,
-0.878906,1.17493,
-0.888062,1.17493,
-0.898743,1.16882,
-0.909424,1.1673,
-0.918579,1.16425,
-0.926208,1.17188,
-0.927734,1.17493,
-0.946045,1.16882,
-0.956726,1.17035,
-0.970459,1.16272,
-0.982666,1.17035,
-0.999451,1.17035,
-1.01013,1.16577,
-1.02844,1.16577,
-1.04828,1.15967,
-1.07117,1.17188,
-1.08795,1.17188,
-1.10779,1.1673,
-1.12457,1.1673,
-1.14746,1.16425,
-1.16577,1.16882,
-1.18713,1.17188,
-1.20697,1.16882,
-1.22528,1.16425,
-1.24207,1.15967,
-1.26343,1.1673,
-1.27869,1.1673,
-1.29242,1.1673,
-1.31531,1.16577,
-1.33514,1.16425,
-1.35498,1.16882,
-1.37329,1.17188,
-1.39618,1.16882,
-1.41449,1.16577,
-1.4328,1.16577,
-1.45721,1.1673,
-1.47705,1.17493,
-1.50299,1.17035,
-1.52588,1.1673,
-1.54877,1.16425,
-1.57013,1.1673,
-1.59302,1.17035,
-1.60828,1.17035,
-1.63574,1.16425,
-1.6571,1.16425,
-1.67236,1.16882,
-1.69525,1.17188,
-1.71509,1.1673,
-1.73492,1.1673,
-1.75629,1.16425,
-1.77917,1.1673,
-1.80206,1.17493,
-1.82495,1.17035,
-1.84326,1.16882,
-1.86462,1.16425,
-1.88293,1.16882,
-1.90277,1.1734,
-1.92108,1.16882,
-1.94397,1.16577,
-1.96228,1.16577,
-1.97601,1.17035,
-1.99738,1.17035,
-2.01111,1.16882,
-2.02332,1.16882,
-2.03705,1.16272,
-2.04773,1.1734,
-2.06451,1.17493,
-2.08282,1.16577,
-2.09656,1.1673,
-2.11182,1.16425,
-2.12402,1.17188,
-2.14081,1.1734,
-2.15149,1.17188,
-2.16522,1.17035,
-2.17743,1.1673,
-2.18811,1.17493,
-2.19879,1.17645,
-2.21558,1.1734,
-2.22626,1.16882,
-2.24152,1.1673,
-2.24762,1.17645,
-2.25983,1.17493,
-2.26593,1.17035,
-2.27661,1.16577,
-2.28729,1.1673,
-2.2995,1.17798,
-2.31171,1.17645,
-2.32086,1.17645,
-2.33459,1.1734,
-2.34833,1.17035,
-2.36053,1.17645,
-2.37885,1.17645,
-2.38953,1.17798,
-2.40326,1.17188,
-2.41699,1.16882,
-2.4292,1.17493,
-2.43988,1.17798,
-2.44751,1.17493,
-2.45819,1.1734,
-2.46887,1.17188,
-2.48108,1.17798,
-2.48413,1.17645,
-2.50397,1.17798,
-2.51465,1.17645,
-2.52228,1.16882,
-2.53296,1.1795,
-2.54669,1.17798,
-2.5589,1.17493,
-2.56958,1.17645,
-2.57721,1.1734,
-2.59094,1.1795,
-2.6001,1.18408,
-2.60773,1.1795,
-2.61841,1.17798,
-2.62909,1.17188,
-2.63672,1.18256,
-2.65198,1.18256,
-2.65808,1.18103,
-2.66571,1.1795,
-2.67792,1.17493,
-2.69165,1.18256,
-2.69928,1.18256,
-2.71454,1.18103,
-2.7298,1.18103,
-2.74353,1.17645,
-2.75726,1.18408,
-2.771,1.18866,
-2.77863,1.18256,
-2.79083,1.18103,
-2.80304,1.17645,
-2.81219,1.18256,
-2.82593,1.18866,
-2.82745,1.18561,
-2.83051,1.18408,
-2.82593,1.17798,
-2.81372,1.18256,
-2.79388,1.18866,
-2.771,1.18713,
-2.73285,1.18561,
-2.68555,1.18103,
-2.62451,1.18866,
-2.55737,1.19171,
-2.47803,1.18866,
-2.388,1.18866,
-2.29187,1.18103,
-2.17743,1.19019,
-2.06146,1.19171,
-1.93787,1.18561,
-1.81122,1.18866,
-1.67999,1.18256,
-1.54572,1.18866,
-1.41144,1.19019,
-1.27716,1.18866,
-1.13678,1.18713,
-1.00403,1.18561,
-0.872803,1.19019,
-0.749207,1.19324,
-0.63324,1.18713,
-0.514221,1.18713,
-0.415039,1.18713,
-0.314331,1.19324,
-0.227356,1.19781,
-0.140381,1.19629,
-0.0686646,1.18713,
-0.00305176,1.18561,
0.0579834,1.19324,
0.117493,1.19629,
0.160217,1.19324,
0.204468,1.19019,
0.233459,1.18256,
0.259399,1.19019,
0.273132,1.19781,
0.285339,1.19171,
0.292969,1.18713,
0.294495,1.18561,
0.297546,1.19629,
0.288391,1.19629,
0.279236,1.19324,
0.267029,1.19171,
0.250244,1.18408,
0.230408,1.19171,
0.210571,1.19781,
0.183105,1.19781,
0.15564,1.19019,
0.120544,1.18866,
0.0900269,1.19629,
0.0595093,1.20087,
0.0228882,1.19324,
-0.0152588,1.18713,
-0.0518799,1.19019,
-0.0823975,1.19324,
-0.12207,1.19934,
-0.161743,1.19324,
-0.205994,1.19019,
-0.245667,1.18713,
-0.285339,1.19629,
-0.328064,1.19934,
-0.369263,1.19934,
-0.416565,1.19019,
-0.45929,1.18713,
-0.500488,1.19781,
-0.543213,1.19934,
-0.587463,1.19629,
-0.627136,1.19171,
-0.665283,1.19324,
-0.701904,1.19629,
-0.743103,1.19629,
-0.776672,1.19324,
-0.811768,1.19324,
-0.845337,1.19171,
-0.874329,1.19781,
-0.901794,1.19781,
-0.930786,1.19781,
-0.956726,1.19324,
-0.973511,1.19171,
-0.994873,1.19781,
-1.01166,1.19934,
-1.02539,1.19629,
-1.03912,1.19324,
-1.0498,1.18866,
-1.05591,1.19781,
-1.06354,1.19934,
-1.07574,1.19629,
-1.08185,1.19171,
-1.08337,1.19019,
-1.0849,1.19629,
-1.08795,1.20239,
-1.091,1.19781,
-1.09406,1.19324,
-1.09558,1.18866,
-1.09711,1.19781,
-1.091,1.19781,
-1.08948,1.19781,
-1.08643,1.19629,
-1.0849,1.18866,
-1.08337,1.20087,
-1.0788,1.20239,
-1.07574,1.19324,
-1.07422,1.19171,
-1.07269,1.18866,
-1.07574,1.19781,
-1.0788,1.20239,
-1.0788,1.20239,
-1.08337,1.18866,
-1.091,1.18866,
-1.09711,1.19781,
-1.10931,1.19781,
-1.11694,1.19629,
-1.1261,1.19324,
-1.13678,1.19019,
-1.14441,1.19934,
-1.15662,1.20087,
-1.16425,1.19629,
-1.17798,1.18866,
-1.19476,1.19019,
-1.20697,1.19781,
-1.22528,1.20087,
-1.23596,1.19781,
-1.25732,1.19324,
-1.27106,1.18713,
-1.29242,1.19629,
-1.31378,1.19781,
-1.33514,1.19781,
-1.35803,1.18713,
-1.37939,1.18713,
-1.40076,1.19781,
-1.41907,1.19629,
-1.44348,1.19324,
-1.46484,1.18713,
-1.48468,1.19019,
-1.50452,1.19629,
-1.5274,1.20087,
-1.55029,1.19781,
-1.57013,1.18866,
-1.58844,1.19019,
-1.6037,1.19171,
-1.63116,1.20087,
-1.6449,1.19781,
-1.66168,1.19019,
-1.67847,1.18866,
-1.69678,1.19629,
-1.71509,1.19324,
-1.73492,1.19934,
-1.75476,1.18866,
-1.77917,1.18866,
-1.80054,1.19629,
-1.8219,1.19934,
-1.84326,1.19781,
-1.86462,1.19171,
-1.87836,1.18866,
-1.90125,1.19629,
-1.92261,1.19629,
-1.94244,1.19781,
-1.96228,1.18866,
-1.98822,1.19019,
-2.01111,1.19019,
-2.03094,1.19629,
-2.05383,1.19629,
-2.07367,1.18713,
-2.09045,1.18866,
-2.10876,1.19324,
-2.12708,1.19629,
-2.14539,1.19934,
-2.16064,1.19171,
-2.17743,1.18866,
-2.19269,1.19629,
-2.2049,1.19781,
-2.22168,1.19781,
-2.23236,1.18713,
-2.24762,1.19019,
-2.25983,1.19019,
-2.27051,1.19629,
-2.28424,1.19629,
-2.2934,1.18866,
-2.30713,1.19171,
-2.31476,1.19324,
-2.32391,1.19629,
-2.33917,1.19781,
-2.35138,1.18866,
-2.35748,1.19171,
-2.36664,1.19171,
-2.37579,1.19171,
-2.38037,1.19629,
-2.38953,1.19019,
-2.39563,1.19019,
-2.40479,1.18866,
-2.41852,1.19629,
-2.42767,1.19324,
-2.43835,1.18713,
-2.44598,1.18866,
-2.45361,1.19019,
-2.46277,1.18866,
-2.4704,1.19324,
-2.4826,1.18866,
-2.49176,1.18713,
-2.49481,1.19019,
-2.50549,1.19171,
-2.51465,1.19324,
-2.5238,1.18561,
-2.53296,1.19019,
-2.53906,1.19019,
-2.54669,1.19019,
-2.5589,1.19629,
-2.56805,1.18866,
-2.57568,1.19019,
-2.58789,1.19019,
-2.59094,1.19324,
-2.59857,1.19019,
-2.60925,1.18408,
-2.61993,1.18713,
-2.63062,1.18866,
-2.63977,1.19019,
-2.64282,1.19019,
-2.65198,1.19019,
-2.65808,1.18866,
-2.66418,1.18866,
-2.67487,1.19324,
-2.67944,1.19019,
-2.69318,1.18408,
-2.70538,1.18713,
-2.71454,1.19171,
-2.72827,1.19629,
-2.74048,1.19171,
-2.75421,1.19019,
-2.76489,1.18866,
-2.77863,1.19629,
-2.78931,1.19324,
-2.80609,1.19324,
-2.8183,1.19019,
-2.83203,1.18713,
-2.84424,1.19324,
-2.85797,1.19324,
-2.87018,1.19324,
-2.88391,1.18561,
-2.89307,1.19019,
-2.9068,1.19781,
-2.91748,1.19629,
-2.92969,1.19324,
-2.93732,1.18713,
-2.94342,1.18713,
-2.95105,1.19324,
-2.95105,1.19324,
-2.94342,1.20087,
-2.92664,1.19171,
-2.90527,1.19019,
-2.87323,1.19934,
-2.83203,1.19781,
-2.77863,1.20087,
-2.71912,1.18866,
-2.6413,1.19171,
-2.56195,1.19781,
-2.46735,1.20239,
-2.36511,1.20087,
-2.25067,1.19171,
-2.12555,1.19171,
-1.98975,1.20087,
-1.85852,1.20087,
-1.71661,1.20392,
-1.57623,1.19629,
-1.4328,1.19629,
-1.29547,1.20392,
-1.14899,1.20087,
-1.01776,1.20087,
-0.880432,1.19781,
-0.750732,1.19781,
-0.628662,1.20087,
-0.512695,1.20544,
-0.404358,1.20544,
-0.306702,1.19629,
-0.213623,1.19934,
-0.126648,1.20392,
-0.0518799,1.20544,
0.0167847,1.20239,
0.0747681,1.19781,
0.1297,1.19934,
0.177002,1.20392,
0.224304,1.20697,
0.259399,1.20697,
0.292969,1.19629,
0.315857,1.20087,
0.334167,1.20544,
0.344849,1.20239,
0.344849,1.20392,
0.346375,1.20087,
0.341797,1.19934,
0.334167,1.2085,
0.32196,1.2085,
0.305176,1.2085,
0.285339,1.20087,
0.260925,1.19934,
0.242615,1.21002,
0.218201,1.2085,
0.189209,1.21307,
0.161743,1.20239,
0.132751,1.20087,
0.0976563,1.21155,
0.0656128,1.2085,
0.0305176,1.21155,
-0.00915527,1.20392,
-0.0411987,1.20392,
-0.0854492,1.21307,
-0.123596,1.21002,
-0.163269,1.21307,
-0.202942,1.20544,
-0.250244,1.20392,
-0.288391,1.2146,
-0.32959,1.2146,
-0.370789,1.21613,
-0.416565,1.21002,
-0.45929,1.20697,
-0.500488,1.21307,
-0.540161,1.21765,
-0.58136,1.21307,
-0.622559,1.21002,
-0.663757,1.20544,
-0.70343,1.21918,
-0.735474,1.2207,
-0.769043,1.21613,
-0.801086,1.21307,
-0.83313,1.21155,
-0.863647,1.2207,
-0.891113,1.21918,
-0.912476,1.21765,
-0.933838,1.2146,
-0.952148,1.21155,
-0.968933,1.22223,
-0.987244,1.22223,
-0.999451,1.21765,
-1.01166,1.21613,
-1.01929,1.21613,
-1.02386,1.22528,
-1.02844,1.22375,
-1.02997,1.22223,
-1.03607,1.21613,
-1.03912,1.21307,
-1.03607,1.22681,
-1.03607,1.22528,
-1.02997,1.22681,
-1.02386,1.21765,
-1.02386,1.21918,
-1.01929,1.22681,
-1.01776,1.23138,
-1.01929,1.22528,
-1.01318,1.2207,
-1.01318,1.22223,
-1.01624,1.22986,
-1.01013,1.23138,
-1.01318,1.22528,
-1.01166,1.22375,
-1.01624,1.21918,
-1.01624,1.23138,
-1.02692,1.23138,
-1.03302,1.22681,
-1.0437,1.22528,
-1.05438,1.2207,
-1.06201,1.23291,
-1.07269,1.22986,
-1.08643,1.23291,
-1.09711,1.22528,
-1.11237,1.22223,
-1.1261,1.23596,
-1.13983,1.23138,
-1.15509,1.23291,
-1.1734,1.22681,
-1.19324,1.22681,
-1.21307,1.23749,
-1.24054,1.23444,
-1.2619,1.23291,
-1.28784,1.22986,
-1.3092,1.22528,
-1.33209,1.23749,
-1.35193,1.23749,
-1.37329,1.23901,
-1.38855,1.22986,
-1.41296,1.22681,
-1.43433,1.23901,
-1.45416,1.23444,
-1.4801,1.23291,
-1.49536,1.22681,
-1.51215,1.22986,
-1.53961,1.23901,
-1.56403,1.23596,
-1.58386,1.23291,
-1.60675,1.23138,
-1.62811,1.22681,
-1.64948,1.23596,
-1.67389,1.23901,
-1.70135,1.23596,
-1.72729,1.23444,
-1.75018,1.23138,
-1.77612,1.24054,
-1.79749,1.23749,
-1.8219,1.23901,
-1.84479,1.23291,
-1.86768,1.23291,
-1.88599,1.24207,
-1.9043,1.24207,
-1.92261,1.23749,
-1.9455,1.22986,
-1.96533,1.23291,
-1.98212,1.24512,
-2.00195,1.23749,
-2.02179,1.23901,
-2.04315,1.23291,
-2.06451,1.23138,
-2.08435,1.24359,
-2.10571,1.24207,
-2.12708,1.23901,
-2.15149,1.23444,
-2.17743,1.23596,
-2.19574,1.24054,
-2.21405,1.24359,
-2.23236,1.23901,
-2.25372,1.23596,
-2.27356,1.23444,
-2.28577,1.24664,
-2.2995,1.24054,
-2.31934,1.24359,
-2.33002,1.23138,
-2.34528,1.23596,
-2.35901,1.24359,
-2.37732,1.24207,
-2.3941,1.23901,
-2.41394,1.23138,
-2.43225,1.23596,
-2.44751,1.24512,
-2.46124,1.24207,
-2.47345,1.24207,
-2.49023,1.22986,
-2.50397,1.23291,
-2.52075,1.24664,
-2.53448,1.24359,
-2.55127,1.24054,
-2.565,1.23291,
-2.58179,1.23596,
-2.59399,1.24512,
-2.60468,1.24359,
-2.62146,1.24054,
-2.63214,1.23444,
-2.64587,1.23444,
-2.65808,1.24664,
-2.66876,1.24207,
-2.67792,1.23291,
-2.69318,1.23596,
-2.69623,1.23749,
-2.70386,1.24359,
-2.71149,1.24359,
-2.72369,1.24054,
-2.73438,1.23444,
-2.74506,1.23444,
-2.75421,1.24512,
-2.76337,1.24054,
-2.771,1.23749,
-2.78168,1.23444,
-2.78625,1.23596,
-2.79236,1.24359,
-2.79846,1.24512,
-2.80457,1.23901,
-2.81067,1.23444,
-2.8183,1.23138,
-2.82593,1.23901,
-2.83356,1.24512,
-2.84271,1.23749,
-2.84729,1.23444,
-2.8595,1.23291,
-2.86713,1.24207,
-2.87628,1.24054,
-2.88391,1.23749,
-2.89612,1.23444,
-2.9007,1.23444,
-2.90985,1.24207,
-2.91901,1.24207,
-2.92816,1.23901,
-2.94495,1.23596,
-2.9541,1.23444,
-2.96783,1.24054,
-2.97852,1.23901,
-2.9892,1.23291,
-2.99988,1.23291,
-3.01056,1.23444,
-3.02124,1.24054,
-3.03192,1.24359,
-3.03955,1.23444,
-3.05023,1.23444,
-3.05786,1.23596,
-3.06702,1.24054,
-3.07159,1.24207,
-3.06854,1.23596,
-3.05786,1.23291,
-3.03955,1.23901,
-3.01208,1.23749,
-2.97699,1.24207,
-2.92511,1.23749,
-2.87018,1.23291,
-2.80151,1.23291,
-2.71912,1.23901,
-2.63062,1.24359,
-2.52838,1.23749,
-2.42462,1.23138,
-2.30713,1.23291,
-2.18964,1.23901,
-2.05994,1.24207,
-1.93329,1.23291,
-1.79749,1.22375,
-1.66779,1.22986,
-1.53656,1.23901,
-1.40533,1.24054,
-1.28784,1.23291,
-1.1673,1.22681,
-1.0498,1.23138,
-0.941467,1.23749,
-0.834656,1.24207,
-0.740051,1.22681,
-0.648499,1.22986,
-0.57373,1.23291,
-0.498962,1.23749,
-0.430298,1.23749,
-0.372314,1.23444,
-0.317383,1.22986,
-0.274658,1.23291,
-0.242615,1.23901,
-0.215149,1.23749,
-0.192261,1.23291,
-0.178528,1.22528,
-0.167847,1.22986,
-0.161743,1.23596,
-0.166321,1.23749,
-0.169373,1.23291,
-0.183105,1.22375,
-0.193787,1.22528,
-0.212097,1.23444,
-0.227356,1.23749,
-0.25177,1.22681,
-0.271606,1.22223,
-0.300598,1.22375,
-0.331116,1.23291,
-0.360107,1.23596,
-0.395203,1.22375,
-0.430298,1.22528,
-0.466919,1.22375,
-0.509644,1.23291,
-0.544739,1.23444,
-0.592041,1.22223,
-0.627136,1.22681,
-0.666809,1.22375,
-0.709534,1.22986,
-0.752258,1.22986,
-0.794983,1.22223,
-0.839233,1.22223,
-0.888062,1.22375,
-0.924683,1.23291,
-0.971985,1.23291,
-1.01776,1.22375,
-1.06506,1.22223,
-1.11084,1.22223,
-1.15967,1.23138,
-1.19934,1.23291,
-1.24359,1.22223,
-1.28632,1.21918,
-1.32599,1.21765,
-1.36719,1.22681,
-1.40228,1.23444,
-1.4328,1.22375,
-1.46179,1.21918,
-1.49231,1.22223,
-1.51825,1.22528,
-1.53503,1.22986,
-1.55182,1.21918,
-1.56403,1.21613,
-1.57928,1.21613,
-1.58691,1.22528,
-1.59607,1.22986,
-1.59607,1.2207,
-1.60217,1.21613,
-1.6037,1.21613,
-1.60522,1.2207,
-1.60522,1.22681,
-1.59454,1.21918,
-1.59302,1.22223,
-1.57928,1.2146,
-1.57471,1.2207,
-1.56708,1.22375,
-1.56097,1.21765,
-1.5564,1.21765,
-1.54266,1.2146,
-1.53503,1.22223,
-1.52588,1.22528,
-1.51825,1.21613,
-1.50757,1.21155,
-1.50452,1.21613,
-1.50604,1.21918,
-1.50299,1.22223,
-1.50146,1.21918,
-1.50299,1.21155,
-1.50909,1.21307,
-1.51672,1.21613,
-1.51825,1.2207,
-1.52893,1.2146,
-1.53961,1.2146,
-1.55487,1.21155,
-1.5686,1.21613,
-1.58386,1.22375,
-1.60065,1.21155,
-1.62201,1.21002,
-1.64185,1.2085,
-1.66016,1.2146,
-1.68152,1.21918,
-1.70288,1.21613,
-1.72424,1.20544,
-1.74866,1.2085,
-1.77002,1.21307,
-1.79443,1.2146,
-1.81732,1.21307,
-1.84326,1.21155,
-1.87073,1.20392,
-1.89056,1.21613,
-1.91498,1.21613,
-1.94397,1.21002,
-1.96838,1.21002,
-1.99585,1.20239,
-2.02179,1.21155,
-2.04926,1.21613,
-2.07825,1.2085,
-2.10724,1.2085,
-2.13318,1.20239,
-2.16217,1.2085,
-2.18964,1.2146,
-2.2171,1.20544,
-2.24915,1.20697,
-2.28119,1.20239,
-2.30865,1.2085,
-2.33459,1.2146,
-2.35748,1.20697,
-2.38342,1.20544,
-2.40936,1.19781,
-2.43073,1.20697,
-2.45209,1.21613,
-2.4704,1.20544,
-2.49481,1.20392,
-2.51465,1.20087,
-2.53754,1.2085,
-2.56195,1.21002,
-2.58484,1.20544,
-2.60773,1.20239,
-2.62604,1.20087,
-2.64893,1.20544,
-2.67029,1.21307,
-2.69012,1.20392,
-2.70844,1.20087,
-2.72827,1.19934,
-2.74963,1.20239,
-2.76947,1.20544,
-2.78778,1.20544,
-2.80304,1.19934,
-2.82593,1.19324,
-2.84576,1.20087,
-2.86102,1.21002,
-2.88086,1.20392,
-2.90222,1.19629,
-2.91901,1.19324,
-2.93884,1.19781,
-2.94952,1.2085,
-2.96478,1.19934,
-2.97546,1.19934,
-2.99377,1.19324,
-3.00903,1.20087,
-3.01971,1.20544,
-3.03345,1.19629,
-3.04871,1.19629,
-3.05939,1.18866,
-3.07007,1.19781,
-3.08685,1.20544,
-3.10364,1.19629,
-3.11279,1.19019,
-3.12653,1.18866,
-3.13416,1.19629,
-3.14178,1.20544,
-3.15399,1.19629,
-3.16772,1.19019,
-3.17993,1.18866,
-3.18909,1.19781,
-3.19672,1.20087,
-3.20892,1.19324,
-3.21503,1.18713,
-3.22723,1.18561,
-3.23486,1.19324,
-3.25012,1.20087,
-3.25928,1.19324,
-3.26843,1.18713,
-3.27454,1.18866,
-3.28064,1.19324,
-3.28827,1.20087,
-3.29285,1.18713,
-3.2959,1.18713,
-3.30963,1.18713,
-3.31573,1.19324,
-3.32184,1.20087,
-3.33252,1.18866,
-3.34473,1.18561,
-3.35388,1.18408,
-3.36609,1.18866,
-3.37372,1.19629,
-3.3844,1.18713,
-3.39508,1.18408,
-3.40881,1.18408,
-3.42102,1.18713,
-3.43323,1.19629,
-3.43933,1.18561,
-3.45154,1.18256,
-3.46069,1.18103,
-3.46527,1.19019,
-3.47595,1.19019,
-3.479,1.18408,
-3.479,1.17798,
-3.47137,1.18103,
-3.46069,1.18561,
-3.43933,1.18866,
-3.40881,1.18103,
-3.36761,1.18713,
-3.31421,1.18103,
-3.25317,1.18408,
-3.17841,1.19019,
-3.09143,1.18713,
-2.99835,1.17798,
-2.89154,1.18408,
-2.77863,1.18408,
-2.66266,1.19019,
-2.52838,1.18103,
-2.39716,1.17493,
-2.26135,1.1795,
-2.12708,1.18408,
-1.98822,1.18866,
-1.85852,1.18256,
-1.72272,1.1795,
-1.59302,1.17645,
-1.4679,1.1795,
-1.35193,1.18713,
-1.24054,1.18103,
-1.1322,1.17798,
-1.03455,1.17798,
-0.939941,1.18408,
-0.852966,1.18866,
-0.773621,1.18256,
-0.70343,1.17798,
-0.643921,1.17493,
-0.588989,1.1795,
-0.544739,1.18866,
-0.506592,1.17798,
-0.471497,1.18103,
-0.442505,1.17493,
-0.422668,1.18103,
-0.40741,1.18866,
-0.39978,1.1795,
-0.393677,1.17493,
-0.390625,1.17035,
-0.392151,1.17798,
-0.398254,1.18713,
-0.408936,1.17493,
-0.424194,1.1734,
-0.440979,1.17188,
-0.460815,1.17798,
-0.483704,1.18408,
-0.506592,1.1795,
-0.532532,1.17798,
-0.558472,1.16882,
-0.590515,1.17493,
-0.614929,1.18256,
-0.650024,1.17798,
-0.682068,1.17493,
-0.715637,1.17035,
-0.749207,1.17645,
-0.790405,1.18256,
-0.828552,1.17493,
-0.866699,1.1734,
-0.907898,1.1734,
-0.947571,1.17493,
-0.98877,1.17798,
-1.03455,1.17798,
-1.07422,1.17035,
-1.11694,1.16577,
-1.15967,1.1734,
-1.20239,1.1795,
-1.24664,1.17188,
-1.28632,1.16882,
-1.32751,1.16882,
-1.37024,1.17035,
-1.40686,1.1795,
-1.44348,1.16882,
-1.474,1.16882,
-1.50604,1.16577,
-1.53198,1.17188,
-1.55487,1.17798,
-1.57471,1.17035,
-1.59454,1.17035,
-1.61285,1.16425,
-1.62964,1.17188,
-1.64337,1.17798,
-1.65253,1.16577,
-1.66473,1.1673,
-1.66779,1.16425,
-1.67236,1.17188,
-1.67542,1.17645,
-1.67236,1.1673,
-1.66779,1.1673,
-1.66931,1.1673,
-1.66321,1.1734,
-1.66321,1.17645,
-1.65253,1.1673,
-1.6449,1.1673,
-1.63727,1.16577,
-1.63269,1.16882,
-1.62354,1.17645,
-1.61743,1.16577,
-1.61133,1.1673,
-1.60675,1.1673,
-1.60065,1.16882,
-1.59302,1.17493,
-1.58997,1.16577,
-1.58844,1.1673,
-1.58844,1.17035,
-1.58844,1.17035,
-1.58844,1.17188,
-1.58539,1.1673,
-1.58844,1.1673,
-1.58844,1.16425,
-1.59912,1.17035,
-1.6037,1.1734,
-1.6098,1.16577,
-1.61896,1.16577,
-1.62811,1.16425,
-1.63727,1.17188,
-1.6449,1.1734,
-1.66016,1.16425,
-1.67236,1.16577,
-1.68762,1.16425,
-1.70288,1.16882,
-1.72119,1.1734,
-1.73798,1.16272,
-1.76697,1.16272,
-1.78223,1.15967,
-1.80817,1.17035,
-1.83105,1.17035,
-1.84631,1.15814,
-1.86462,1.16272,
-1.88599,1.16272,
-1.9043,1.17035,
-1.92413,1.17188,
-1.94702,1.16272,
-1.96533,1.1673,
-1.98212,1.16272,
-2.00806,1.16882,
-2.03094,1.17188,
-2.04773,1.15967,
-2.06757,1.16272,
-2.08893,1.16272,
-2.11334,1.16882,
-2.13623,1.17493,
-2.15302,1.15967,
-2.18048,1.15967,
-2.20337,1.16425,
-2.22321,1.1673,
-2.24609,1.1734,
-2.27203,1.15814,
-2.29187,1.15967,
-2.31018,1.15814,
-2.32849,1.1734,
-2.34985,1.1734,
-2.36206,1.16425,
-2.3819,1.16425,
-2.40021,1.16272,
-2.41394,1.17035,
-2.43225,1.1734,
-2.45209,1.15967,
-2.46887,1.16425,
-2.48718,1.16577,
-2.50397,1.17188,
-2.5238,1.17493,
-2.54364,1.15967,
-2.55585,1.16425,
-2.57416,1.16577,
-2.59399,1.1734,
-2.61078,1.17798,
-2.62604,1.16425,
-2.63977,1.16272,
-2.65961,1.16882,
-2.67334,1.17493,
-2.6886,1.17493,
-2.70386,1.16577,
-2.72064,1.16577,
-2.73285,1.16882,
-2.74658,1.17493,
-2.76337,1.17493,
-2.77557,1.16577,
-2.78931,1.1673,
-2.79541,1.17188,
-2.81067,1.17798,
-2.82135,1.17798,
-2.82593,1.16882,
-2.83051,1.17035,
-2.83813,1.1734,
-2.84729,1.17645,
-2.85034,1.18103,
-2.85797,1.17188,
-2.86713,1.1734,
-2.87476,1.1734,
-2.88391,1.18256,
-2.89154,1.18103,
-2.90375,1.17493,
-2.90833,1.17493,
-2.91595,1.18103,
-2.92053,1.18561,
-2.93121,1.18408,
-2.94189,1.17645,
-2.948,1.17798,
-2.95868,1.18103,
-2.96326,1.19019,
-2.97089,1.19019,
-2.98462,1.17798,
-2.99377,1.18103,
-3.00293,1.18103,
-3.00598,1.19171,
-3.00903,1.19019,
-3.01666,1.18103,
-3.02124,1.18408,
-3.02429,1.18408,
-3.03497,1.19781,
-3.03497,1.19324,
-3.0426,1.18713,
-3.04871,1.18408,
-3.05328,1.18713,
-3.06549,1.20239,
-3.07617,1.19781,
-3.08228,1.19019,
-3.0899,1.18561,
-3.10211,1.19019,
-3.11127,1.20392,
-3.1189,1.20087,
-3.125,1.19629,
-3.13416,1.19171,
-3.14331,1.19171,
-3.15247,1.20697,
-3.15857,1.20697,
-3.16925,1.19781,
-3.17841,1.19629,
-3.19061,1.19934,
-3.19672,1.21155,
-3.2074,1.20697,
-3.21503,1.19934,
-3.22418,1.20087,
-3.23486,1.20392,
-3.24249,1.21613,
-3.25317,1.21002,
-3.25623,1.20697,
-3.26538,1.20392,
-3.27148,1.20392,
-3.27301,1.21918,
-3.26233,1.21765,
-3.25317,1.21155,
-3.23944,1.21002,
-3.20892,1.21155,
-3.17688,1.2207,
-3.1311,1.2207,
-3.07312,1.2146,
-3.00293,1.21155,
-2.92053,1.21765,
-2.82593,1.22528,
-2.72064,1.22375,
-2.6062,1.21613,
-2.48108,1.21918,
-2.35138,1.21918,
-2.21558,1.23138,
-2.07672,1.22681,
-1.93024,1.22223,
-1.7807,1.22223,
-1.62964,1.22375,
-1.48468,1.23901,
-1.34277,1.23138,
-1.20087,1.22223,
-1.07117,1.22528,
-0.944519,1.22986,
-0.817871,1.24054,
-0.709534,1.23444,
-0.604248,1.22986,
-0.505066,1.22681,
-0.410461,1.23444,
-0.328064,1.24207,
-0.248718,1.23749,
-0.184631,1.23291,
-0.119019,1.22986,
-0.0610352,1.23596,
-0.0137329,1.24512,
0.0244141,1.24207,
0.0549316,1.23291,
0.0823975,1.23596,
0.0976563,1.24054,
0.111389,1.25275,
0.119019,1.24664,
0.125122,1.24054,
0.123596,1.23596,
0.120544,1.24207,
0.106812,1.25275,
0.0915527,1.24664,
0.0717163,1.24359,
0.0518799,1.24054,
0.0305176,1.24664,
0.00305176,1.25275,
-0.0213623,1.24969,
-0.0534058,1.24664,
-0.0808716,1.24207,
-0.115967,1.24817,
-0.14801,1.25885,
-0.177002,1.25427,
-0.212097,1.25122,
-0.245667,1.24664,
-0.279236,1.25275,
-0.317383,1.26038,
-0.35553,1.2558,
-0.389099,1.25122,
-0.424194,1.24817,
-0.462341,1.2558,
-0.500488,1.26343,
-0.535583,1.26038,
-0.57373,1.25427,
-0.613403,1.25275,
-0.657654,1.2558,
-0.689697,1.26495,
-0.724792,1.25885,
-0.764465,1.25732,
-0.796509,1.25275,
-0.836182,1.25885,
-0.869751,1.27258,
-0.901794,1.26495,
-0.935364,1.25885,
-0.965881,1.26038,
-0.991821,1.25885,
-1.02234,1.27411,
-1.04675,1.26801,
-1.07117,1.25732,
-1.09253,1.26343,
-1.11237,1.26343,
-1.13678,1.27258,
-1.15356,1.27258,
-1.17035,1.26495,
-1.18256,1.26648,
-1.19171,1.26648,
-1.20239,1.27258,
-1.21307,1.27258,
-1.22223,1.26648,
-1.22375,1.26343,
-1.22833,1.26648,
-1.23444,1.27716,
-1.24207,1.27258,
-1.24664,1.27106,
-1.25732,1.26953,
-1.2619,1.27258,
-1.26801,1.27869,
-1.26801,1.27716,
-1.27106,1.27258,
-1.27411,1.26953,
-1.27716,1.27411,
-1.28174,1.28174,
-1.28479,1.27869,
-1.29242,1.27258,
-1.29242,1.26953,
-1.30157,1.27258,
-1.30615,1.28174,
-1.31836,1.28021,
-1.32751,1.27258,
-1.33667,1.27258,
-1.34888,1.27411,
-1.35956,1.28174,
-1.37024,1.28021,
-1.37939,1.27563,
-1.39618,1.27258,
-1.40381,1.27869,
-1.42212,1.28632,
-1.43585,1.28174,
-1.45111,1.27716,
-1.46637,1.27563,
-1.48926,1.27869,
-1.50909,1.28784,
-1.53198,1.28632,
-1.55334,1.28174,
-1.57471,1.27869,
-1.5976,1.27716,
-1.61896,1.28632,
-1.64185,1.28326,
-1.66321,1.27716,
-1.6922,1.27563,
-1.71356,1.27869,
-1.73798,1.28784,
-1.76392,1.28479,
-1.79138,1.27716,
-1.82037,1.28174,
-1.84174,1.28174,
-1.87073,1.28784,
-1.89819,1.28479,
-1.92108,1.28021,
-1.94855,1.28021,
-1.97754,1.28174,
-2.00195,1.29089,
-2.02789,1.28632,
-2.05536,1.28174,
-2.07825,1.27869,
-2.10266,1.28326,
-2.12555,1.29089,
-2.15302,1.28784,
-2.18048,1.28479,
-2.2049,1.28174,
-2.23236,1.28479,
-2.25983,1.29089,
-2.28577,1.28784,
-2.31323,1.28326,
-2.33307,1.27869,
-2.36053,1.28479,
-2.388,1.29089,
-2.41394,1.29089,
-2.43988,1.28479,
-2.46429,1.28326,
-2.49176,1.28632,
-2.51923,1.29089,
-2.53601,1.29089,
-2.55737,1.28784,
-2.57263,1.28174,
-2.59552,1.28632,
-2.6123,1.29547,
-2.63214,1.29089,
-2.65198,1.28937,
-2.67029,1.28632,
-2.6886,1.28784,
-2.70996,1.29242,
-2.73132,1.28937,
-2.74353,1.28937,
-2.76337,1.28632,
-2.7771,1.28784,
-2.79541,1.297,
-2.80762,1.297,
-2.82593,1.29089,
-2.84119,1.28632,
-2.85797,1.28784,
-2.87323,1.297,
-2.88544,1.28784,
-2.89917,1.28784,
-2.90833,1.28479,
-2.92358,1.28632,
-2.93427,1.29852,
-2.94342,1.29242,
-2.95563,1.29089,
-2.96631,1.28784,
-2.97546,1.28784,
-2.98309,1.29242,
-2.99377,1.29547,
-3.01056,1.28784,
-3.02277,1.28632,
-3.03955,1.29089,
-3.04871,1.29547,
-3.06244,1.29089,
-3.0777,1.28937,
-3.0899,1.28937,
-3.10211,1.29089,
-3.11584,1.29852,
-3.12805,1.30005,
-3.14026,1.28937,
-3.15094,1.28937,
-3.1662,1.29089,
-3.17841,1.297,
-3.18909,1.29547,
-3.20129,1.29089,
-3.21655,1.28784,
-3.22876,1.28937,
-3.24097,1.29852,
-3.25317,1.29547,
-3.26538,1.29089,
-3.28064,1.28937,
-3.29285,1.29089,
-3.30505,1.297,
-3.31726,1.297,
-3.32947,1.29547,
-3.34167,1.29089,
-3.35541,1.29242,
-3.36151,1.297,
-3.3783,1.297,
-3.39203,1.29547,
-3.39966,1.28632,
-3.41339,1.29547,
-3.42865,1.29852,
-3.44238,1.29852,
-3.45612,1.29547,
-3.47137,1.28937,
-3.48816,1.28937,
-3.50037,1.30005,
-3.51868,1.297,
-3.53394,1.297,
-3.54767,1.28632,
-3.56293,1.28937,
-3.57819,1.297,
-3.59497,1.29089,
-3.60718,1.29547,
-3.61938,1.28784,
-3.63007,1.28632,
-3.6499,1.29852,
-3.66516,1.297,
-3.68042,1.29089,
-3.69263,1.28632,
-3.70636,1.28784,
-3.71704,1.29547,
-3.72162,1.29242,
-3.72009,1.29242,
-3.71857,1.28784,
-3.70789,1.28632,
-3.68958,1.297,
-3.66211,1.29242,
-3.62396,1.297,
-3.57208,1.28784,
-3.51257,1.28784,
-3.43628,1.29242,
-3.35541,1.29852,
-3.25775,1.29242,
-3.14941,1.28632,
-3.0365,1.28784,
-2.91138,1.29547,
-2.7832,1.29242,
-2.65198,1.29089,
-2.51617,1.28937,
-2.36969,1.28632,
-2.23083,1.29242,
-2.0874,1.29547,
-1.9516,1.29547,
-1.8158,1.28632,
-1.69373,1.28479,
-1.57166,1.29547,
-1.45874,1.29242,
-1.35498,1.29089,
-1.25732,1.28479,
-1.15814,1.28784,
-1.07727,1.297,
-1.00098,1.297,
-0.93689,1.29547,
-0.871277,1.28479,
-0.822449,1.28479,
-0.779724,1.28784,
-0.741577,1.29089,
-0.71106,1.29242,
-0.686646,1.28479,
-0.669861,1.28479,
-0.656128,1.28784,
-0.65155,1.28632,
-0.650024,1.28937,
-0.65155,1.28174,
-0.65918,1.28326,
-0.672913,1.28784,
-0.68512,1.28937,
-0.704956,1.28937,
-0.730896,1.28174,
-0.762939,1.28021,
-0.798035,1.28632,
-0.828552,1.28479,
-0.866699,1.28937,
-0.901794,1.28021,
-0.93689,1.28174,
-0.979614,1.28479,
-1.01776,1.28174,
-1.06049,1.28632,
-1.10474,1.27869,
-1.14594,1.27869,
-1.19781,1.28479,
-1.24054,1.28479,
-1.29547,1.28326,
-1.3443,1.28174,
-1.39465,1.27869,
-1.44653,1.28326,
-1.49536,1.28479,
-1.54419,1.28326,
-1.59454,1.28021,
-1.64032,1.28021,
-1.6861,1.28021,
-1.73645,1.28021,
-1.77917,1.28326,
-1.81885,1.27716,
-1.86462,1.27563,
-1.9043,1.27869,
-1.93939,1.27869,
-1.97449,1.28174,
-2.00348,1.27411,
-2.03552,1.27563,
-2.06146,1.27563,
-2.08588,1.28174,
-2.11487,1.28174,
-2.13623,1.27563,
-2.15302,1.27258,
-2.1637,1.27411,
-2.1759,1.27563,
-2.18506,1.28174,
-2.19574,1.26953,
-2.19727,1.26801,
-2.19574,1.27716,
-2.19879,1.27716,
-2.19879,1.27869,
-2.19421,1.26953,
-2.18811,1.26801,
-2.18048,1.27411,
-2.1698,1.27411,
-2.1637,1.27411,
-2.15607,1.26953,
-2.14691,1.26801,
-2.13928,1.27106,
-2.1347,1.27258,
-2.13623,1.27411,
-2.1286,1.26343,
-2.12555,1.26953,
-2.12708,1.26953,
-2.12555,1.27258,
-2.12555,1.27258,
-2.12402,1.26495,
-2.12708,1.26038,
-2.13318,1.26801,
-2.13928,1.26801,
-2.14844,1.26801,
-2.15454,1.26038,
-2.16217,1.26343,
-2.17133,1.26801,
-2.18353,1.26648,
-2.19879,1.26648,
-2.20947,1.26038,
-2.22473,1.25732,
-2.23999,1.26343,
-2.2583,1.26648,
-2.27814,1.26648,
-2.29492,1.25885,
-2.31476,1.25732,
-2.33307,1.26495,
-2.35443,1.26343,
-2.37122,1.26495,
-2.39258,1.25732,
-2.41699,1.25732,
-2.4353,1.26495,
-2.45972,1.26343,
-2.4826,1.25885,
-2.50397,1.25732,
-2.52686,1.25427,
-2.54669,1.26038,
-2.56653,1.26343,
-2.59094,1.26038,
-2.61078,1.25427,
-2.63824,1.25275,
-2.66266,1.26038,
-2.6886,1.25885,
-2.70844,1.25885,
-2.7359,1.25732,
-2.75574,1.25427,
-2.77863,1.25427,
-2.79999,1.2558,
-2.8244,1.26343,
-2.84576,1.25275,
-2.87476,1.24969,
-2.89764,1.2558,
-2.92511,1.25275,
-2.95258,1.25732,
-2.97546,1.25122,
-2.99683,1.24664,
-3.02429,1.25275,
-3.04565,1.25122,
-3.07159,1.25275,
-3.09601,1.25122,
-3.11432,1.24664,
-3.13416,1.25275,
-3.15552,1.25275,
-3.17688,1.25275,
-3.20129,1.25122,
-3.21808,1.24359,
-3.23944,1.24817,
-3.25623,1.24664,
-3.27454,1.25275,
-3.29285,1.24817,
-3.30963,1.24359,
-3.32947,1.24359,
-3.35083,1.24207,
-3.36609,1.24664,
-3.3844,1.24664,
-3.40118,1.23596,
-3.42102,1.24207,
-3.4317,1.24359,
-3.45001,1.24359,
-3.46527,1.24054,
-3.48053,1.23901,
-3.49274,1.24054,
-3.50494,1.24359,
-3.52173,1.24512,
-3.53241,1.24054,
-3.55072,1.23749,
-3.56598,1.24207,
-3.58276,1.23901,
-3.59497,1.23901,
-3.61176,1.23901,
-3.62091,1.23291,
-3.63159,1.23901,
-3.64685,1.23596,
-3.65753,1.23749,
-3.66669,1.23596,
-3.67279,1.22681,
-3.68958,1.23596,
-3.6972,1.23596,
-3.71552,1.23901,
-3.72162,1.23444,
-3.72925,1.22681,
-3.74146,1.23596,
-3.75366,1.23444,
-3.76282,1.23596,
-3.77197,1.23138,
-3.78571,1.23138,
-3.79639,1.23444,
-3.80707,1.23138,
-3.82233,1.23749,
-3.83453,1.22986,
-3.84216,1.22375,
-3.85437,1.23291,
-3.862,1.22681,
-3.87421,1.23596,
-3.88947,1.22681,
-3.89709,1.22375,
-3.91083,1.23138,
-3.92456,1.23138,
-3.93677,1.22681,
-3.94897,1.22681,
-3.96118,1.22223,
-3.97339,1.22375,
-3.9856,1.22681,
-3.99933,1.22528,
-4.01611,1.22223,
-4.0329,1.21918,
-4.04053,1.22223,
-4.04816,1.22375,
-4.06189,1.22681,
-4.06952,1.22223,
-4.07715,1.2207,
-4.0802,1.22223,
-4.0863,1.22223,
-4.08783,1.22681,
-4.0863,1.21613,
-4.07715,1.2146,
-4.06036,1.2207,
-4.039,1.22223,
-4.00391,1.22528,
-3.9566,1.21613,
-3.89709,1.21765,
-3.82843,1.2207,
-3.74603,1.22223,
-3.65753,1.2207,
-3.5553,1.21765,
-3.45306,1.21765,
-3.33252,1.21918,
-3.21045,1.21765,
-3.0838,1.21918,
-2.948,1.21765,
-2.81677,1.21307,
-2.68402,1.21918,
-2.54822,1.21613,
-2.42004,1.21765,
-2.29034,1.2146,
-2.16522,1.21002,
-2.04926,1.21155,
-1.93329,1.21155,
-1.82495,1.22223,
-1.72119,1.21155,
-1.62659,1.2085,
-1.53503,1.21002,
-1.45721,1.21155,
-1.38702,1.21613,
-1.32446,1.2085,
-1.26953,1.20392,
-1.22223,1.21155,
-1.17798,1.21002,
-1.14288,1.2146,
-1.11389,1.2085,
-1.08948,1.20392,
-1.07269,1.20697,
-1.05743,1.20697,
-1.05591,1.21002,
-1.05743,1.20697,
-1.06354,1.20392,
-1.07117,1.20544,
-1.08643,1.20544,
-1.10321,1.21002,
-1.12152,1.20087,
-1.14288,1.20087,
-1.1673,1.20392,
-1.19019,1.20392,
-1.21307,1.2085,
-1.24512,1.20087,
-1.27411,1.20087,
-1.30463,1.20544,
-1.33514,1.20239,
-1.36566,1.2085,
-1.39923,1.20087,
-1.43433,1.19629,
-1.47095,1.20392,
-1.51215,1.20239,
-1.55182,1.20697,
-1.59454,1.19934,
-1.63574,1.19629,
-1.67694,1.20239,
-1.72424,1.20239,
-1.76849,1.20392,
-1.80969,1.19781,
-1.85242,1.19324,
-1.88904,1.20087,
-1.93176,1.20087,
-1.97296,1.20239,
-2.01263,1.19019,
-2.05078,1.19019,
-2.09045,1.19934,
-2.12708,1.19324,
-2.15912,1.19934,
-2.19269,1.19629,
-2.22473,1.18866,
-2.2522,1.19781,
-2.27814,1.19934,
-2.30103,1.19781,
-2.32239,1.19324,
-2.3407,1.19019,
-2.35748,1.19324,
-2.36511,1.19171,
-2.37427,1.20087,
-2.37732,1.19324,
-2.37732,1.19019,
-2.37579,1.19324,
-2.37427,1.19171,
-2.37122,1.19781,
-2.37122,1.19019,
-2.36511,1.18408,
-2.35748,1.19324,
-2.34985,1.19171,
-2.34375,1.19781,
-2.33459,1.18713,
-2.32697,1.18713,
-2.31628,1.18866,
-2.31323,1.19171,
-2.29797,1.19324,
-2.2934,1.18713,
-2.28271,1.18561,
-2.27661,1.19019,
-2.27509,1.18713,
-2.27203,1.18866,
-2.27203,1.18408,
-2.26593,1.18103,
-2.26593,1.18713,
-2.26746,1.18256,
-2.27356,1.19019,
-2.28119,1.18561,
-2.28424,1.18103,
-2.28729,1.18561,
-2.2934,1.18408,
-2.30103,1.19019,
-2.30865,1.18408,
-2.32086,1.18256,
-2.33002,1.18408,
-2.3468,1.18408,
-2.35748,1.18713,
-2.37427,1.18408,
-2.388,1.17798,
-2.40173,1.18103,
-2.41699,1.18561,
-2.42767,1.18866,
-2.44446,1.18256,
-2.46124,1.17798,
-2.47803,1.18103,
-2.49634,1.18256,
-2.50854,1.18561,
-2.52838,1.18103,
-2.54822,1.17798,
-2.565,1.18256,
-2.59094,1.18256,
-2.61536,1.18561,
-2.63519,1.17798,
-2.65656,1.17645,
-2.67334,1.18256,
-2.69775,1.18103,
-2.71454,1.18408,
-2.73285,1.18103,
-2.75879,1.17493,
-2.78168,1.17645,
-2.80457,1.17798,
-2.82593,1.18103,
-2.84271,1.17645,
-2.86407,1.1734,
-2.89001,1.1795,
-2.9068,1.17798,
-2.93121,1.18256,
-2.948,1.17493,
-2.97089,1.17035,
-2.99072,1.1795,
-3.01056,1.17798,
-3.02734,1.18256,
-3.0426,1.17798,
-3.06549,1.17035,
-3.07922,1.17798,
-3.09753,1.1734,
-3.11279,1.18103,
-3.12653,1.1734,
-3.14331,1.17035,
-3.16162,1.17493,
-3.17688,1.18103,
-3.19214,1.1795,
-3.20435,1.17188,
-3.21808,1.17645,
-3.23029,1.17493,
-3.24402,1.17645,
-3.25928,1.17798,
-3.27454,1.17645,
-3.28827,1.16882,
-3.29742,1.17188,
-3.31268,1.17798,
-3.32489,1.17645,
-3.33862,1.17188,
-3.35236,1.17188,
-3.36609,1.17493,
-3.3783,1.17798,
-3.39203,1.17645,
-3.41034,1.17035,
-3.41949,1.16882,
-3.43018,1.1734,
-3.44696,1.1734,
-3.45612,1.17645,
-3.4668,1.16882,
-3.47595,1.1673,
-3.48511,1.17035,
-3.49426,1.17493,
-3.50037,1.17035,
-3.508,1.1673,
-3.5141,1.1673,
-3.52173,1.17035,
-3.52325,1.1734,
-3.52783,1.17493,
-3.52936,1.1673,
-3.53546,1.16577,
-3.53851,1.1673,
-3.54767,1.17188,
-3.55225,1.17493,
-3.55835,1.1673,
-3.56598,1.16577,
-3.5675,1.1673,
-3.57208,1.17188,
-3.57819,1.17493,
-3.58429,1.16577,
-3.58734,1.16425,
-3.59497,1.1673,
-3.60107,1.17188,
-3.60718,1.1734,
-3.61938,1.1673,
-3.63007,1.15967,
-3.63312,1.16882,
-3.64838,1.16577,
-3.65295,1.17493,
-3.65906,1.1673,
-3.66516,1.16577,
-3.67279,1.1673,
-3.67584,1.17188,
-3.68042,1.17493,
-3.685,1.16577,
-3.68652,1.16577,
-3.68958,1.1673,
-3.69263,1.17188,
-3.69415,1.17188,
-3.69415,1.16577,
-3.69263,1.16425,
-3.68805,1.1673,
-3.67737,1.17035,
-3.66669,1.16882,
-3.65143,1.1673,
-3.62854,1.1673,
-3.5965,1.16882,
-3.5553,1.17188,
-3.50037,1.17493,
-3.44086,1.16882,
-3.36456,1.16425,
-3.28217,1.16882,
-3.18604,1.17645,
-3.08228,1.17188,
-2.97089,1.1673,
-2.85492,1.1673,
-2.72827,1.16882,
-2.59857,1.17188,
-2.46429,1.1734,
-2.33002,1.17035,
-2.19116,1.16577,
-2.05688,1.17035,
-1.92413,1.17035,
-1.79291,1.1734,
-1.66321,1.16577,
-1.54419,1.1673,
-1.42975,1.16882,
-1.31989,1.17188,
-1.2146,1.17645,
-1.11542,1.1673,
-1.02081,1.16882,
-0.927734,1.17035,
-0.848389,1.1734,
-0.778198,1.17493,
-0.714111,1.17035,
-0.656128,1.1673,
-0.602722,1.1673,
-0.561523,1.1734,
-0.527954,1.17493,
-0.500488,1.16882,
-0.474548,1.1673,
-0.456238,1.1734,
-0.445557,1.17188,
-0.440979,1.17188,
-0.440979,1.17035,
-0.444031,1.16577,
-0.45166,1.1673,
-0.460815,1.1734,
-0.471497,1.17493,
-0.485229,1.16577,
-0.508118,1.1673,
-0.532532,1.16882,
-0.552368,1.17645,
-0.576782,1.17493,
-0.604248,1.17035,
-0.634766,1.16577,
-0.660706,1.16882,
-0.68512,1.17645,
-0.712585,1.1734,
-0.741577,1.17188,
-0.775146,1.16577,
-0.799561,1.17035,
-0.83313,1.1734,
-0.865173,1.17188,
-0.901794,1.16882,
-0.930786,1.17035,
-0.968933,1.16882,
-1.0025,1.1734,
-1.03912,1.1734,
-1.07422,1.17188,
-1.11084,1.17035,
-1.14441,1.16882,
-1.17645,1.1734,
-1.21155,1.17493,
-1.24359,1.16882,
-1.27716,1.16882,
-1.31073,1.17188,
-1.33667,1.1734,
-1.36261,1.17493,
-1.3916,1.16882,
-1.41296,1.1673,
-1.43738,1.17035,
-1.4679,1.17645,
-1.48468,1.17645,
-1.49994,1.17645,
-1.51215,1.16882,
-1.52435,1.17493,
-1.52893,1.17645,
-1.53809,1.17645,
-1.53961,1.1734,
-1.54419,1.16577,
-1.55182,1.17645,
-1.55182,1.18103,
-1.55334,1.17493,
-1.55182,1.1734,
-1.55334,1.16882,
-1.55029,1.17493,
-1.55029,1.17645,
-1.54877,1.17493,
-1.55029,1.18103,
-1.54419,1.17035,
-1.54266,1.1734,
-1.53961,1.1795,
-1.53656,1.17645,
-1.53656,1.17645,
-1.53656,1.17188,
-1.53961,1.17493,
-1.54419,1.1795,
-1.54419,1.17645,
-1.54877,1.17798,
-1.55334,1.17188,
-1.56097,1.17188,
-1.57471,1.1795,
-1.57776,1.17798,
-1.58691,1.1795,
-1.59149,1.1734,
-1.5976,1.17645,
-1.60675,1.1795,
-1.61896,1.17493,
-1.62964,1.17645,
-1.64185,1.1734,
-1.6571,1.1734,
-1.67236,1.18103,
-1.67847,1.17645,
-1.69373,1.1734,
-1.70593,1.17493,
-1.72272,1.17798,
-1.73492,1.18103,
-1.75171,1.1795,
-1.76849,1.17798,
-1.7868,1.17188,
-1.80511,1.17645,
-1.82495,1.18103,
-1.84326,1.17798,
-1.86462,1.17645,
-1.88293,1.17188,
-1.9104,1.17645,
-1.93481,1.1795,
-1.9516,1.17798,
-1.97601,1.17645,
-1.9989,1.17493,
-2.02332,1.17645,
-2.0462,1.1795,
-2.07062,1.1795,
-2.09503,1.17645,
-2.11334,1.17188,
-2.13318,1.17645,
-2.14996,1.17798,
-2.17438,1.1795,
-2.19116,1.17645,
-2.20795,1.17493,
-2.22931,1.17493,
-2.24609,1.1795,
-2.26135,1.17798,
-2.28119,1.17645,
-2.2995,1.17493,
-2.31628,1.17493,
-2.33459,1.18103,
-2.35748,1.17798,
-2.36816,1.18103,
-2.388,1.17493,
-2.40326,1.17798,
-2.4231,1.18256,
-2.44293,1.17645,
-2.45361,1.17798,
-2.46887,1.17493,
-2.48718,1.17645,
-2.50244,1.18256,
-2.5238,1.17798,
-2.54059,1.17645,
-2.55737,1.17493,
-2.57568,1.17798,
-2.58942,1.17798,
-2.60468,1.1795,
-2.62604,1.17798,
-2.63672,1.1734,
-2.65045,1.17798,
-2.66876,1.18256,
-2.68097,1.18103,
-2.6947,1.17798,
-2.71149,1.17798,
-2.72217,1.17798,
-2.73285,1.18256,
-2.74658,1.1795,
-2.75879,1.1795,
-2.771,1.17645,
-2.7832,1.17645,
-2.79999,1.18256,
-2.81219,1.18103,
-2.83051,1.1795,
-2.83508,1.17645,
-2.84882,1.17798,
-2.86255,1.18561,
-2.86713,1.18103,
-2.87933,1.18103,
-2.88544,1.18103,
-2.89764,1.17798,
-2.90222,1.18408,
-2.90985,1.18103,
-2.91748,1.18103,
-2.92511,1.1795,
-2.93274,1.17645,
-2.94495,1.18561,
-2.95258,1.18256,
-2.96021,1.1795,
-2.96783,1.17798,
-2.97394,1.18103,
-2.98004,1.18866,
-2.98462,1.18256,
-2.99072,1.18256,
-2.99988,1.17798,
-3.00598,1.18408,
-3.00903,1.18408,
-3.01361,1.18713,
-3.01971,1.18408,
-3.02429,1.18408,
-3.0304,1.18256,
-3.04108,1.18713,
-3.04718,1.18713,
-3.05786,1.18561,
-3.06854,1.18408,
-3.08075,1.18256,
-3.09143,1.19019,
-3.09906,1.18866,
-3.10516,1.18408,
-3.11432,1.17798,
-3.1189,1.18256,
-3.125,1.19019,
-3.13263,1.18866,
-3.13568,1.18408,
-3.13721,1.18408,
-3.13721,1.18866,
-3.1311,1.19324,
-3.12653,1.19019,
-3.10822,1.18408,
-3.08685,1.18408,
-3.06396,1.18866,
-3.01971,1.19629,
-2.97394,1.19629,
-2.9129,1.19171,
-2.84576,1.18408,
-2.76794,1.18866,
-2.67639,1.20087,
-2.58331,1.19934,
-2.47498,1.19171,
-2.36206,1.18866,
-2.24304,1.19324,
-2.11792,1.19934,
-1.98975,1.19934,
-1.86157,1.19324,
-1.72882,1.19324,
-1.59912,1.19171,
-1.474,1.19781,
-1.3504,1.20239,
-1.22681,1.19629,
-1.10931,1.19019,
-0.994873,1.19934,
-0.891113,1.20544,
-0.794983,1.20392,
-0.701904,1.19934,
-0.621033,1.20087,
-0.543213,1.19934,
-0.4776,1.20392,
-0.416565,1.20392,
-0.363159,1.20239,
-0.315857,1.19934,
-0.270081,1.20087,
-0.238037,1.20544,
-0.205994,1.20544,
-0.186157,1.20392,
-0.164795,1.20087,
-0.15564,1.20544,
-0.15564,1.2146,
-0.149536,1.20697,
-0.152588,1.20544,
-0.160217,1.20544,
-0.170898,1.2085,
-0.187683,1.21613,
-0.209045,1.2146,
-0.230408,1.2085,
-0.254822,1.20697,
-0.285339,1.21002,
-0.320435,1.21613,
-0.352478,1.21307,
-0.390625,1.21155,
-0.424194,1.21155,
-0.462341,1.21155,
-0.498962,1.21613,
-0.532532,1.21765,
-0.572205,1.21002,
-0.611877,1.21155,
-0.653076,1.21307,
-0.694275,1.21918,
-0.738525,1.21918,
-0.782776,1.21002,
-0.828552,1.2146,
-0.872803,1.21765,
-0.920105,1.22375,
-0.965881,1.2207,
-1.00403,1.21307,
-1.04828,1.21613,
-1.08795,1.21918,
-1.12457,1.22528,
-1.16425,1.22681,
-1.20239,1.21765,
-1.23749,1.2207,
-1.27411,1.2207,
-1.30463,1.22986,
-1.33209,1.22986,
-1.35803,1.21918,
-1.3855,1.21918,
-1.40839,1.22375,
-1.4267,1.23138,
-1.44958,1.23138,
-1.45874,1.21918,
-1.47552,1.22528,
-1.48926,1.22681,
-1.49841,1.23444,
-1.50604,1.23444,
-1.51215,1.22223,
-1.5152,1.22681,
-1.5152,1.23138,
-1.51672,1.23596,
-1.51215,1.23444,
-1.50757,1.22681,
-1.50604,1.23138,
-1.49536,1.23444,
-1.48926,1.23901,
-1.47705,1.23901,
-1.474,1.22681,
-1.47095,1.22986,
-1.46484,1.23596,
-1.45721,1.24054,
-1.44653,1.24359,
-1.43738,1.22986,
-1.42822,1.23596,
-1.42212,1.23596,
-1.41296,1.24054,
-1.41144,1.24359,
-1.41144,1.23444,
-1.41144,1.23749,
-1.40686,1.23596,
-1.40839,1.24207,
-1.41296,1.24359,
-1.41296,1.23596,
-1.41602,1.24054,
-1.4267,1.24207,
-1.4389,1.24664,
-1.44806,1.24664,
-1.45874,1.23444,
-1.474,1.24359,
-1.48926,1.24054,
-1.50604,1.24664,
-1.5274,1.25427,
-1.54572,1.23901,
-1.56708,1.24359,
-1.58386,1.24512,
-1.6037,1.24969,
-1.63116,1.25427,
-1.64948,1.24054,
-1.67236,1.24207,
-1.69373,1.24359,
-1.71509,1.24817,
-1.7395,1.25122,
-1.76086,1.24207,
-1.77917,1.24359,
-1.80359,1.24664,
-1.82648,1.25427,
-1.84937,1.2558,
-1.87378,1.24359,
-1.89819,1.24664,
-1.92719,1.24969,
-1.94855,1.25427,
-1.97296,1.25732,
-1.99738,1.24359,
-2.01569,1.24817,
-2.04163,1.24817,
-2.06146,1.2558,
-2.08282,1.25885,
-2.10114,1.24512,
-2.11945,1.24817,
-2.14539,1.24969,
-2.16827,1.25732,
-2.18964,1.25885,
-2.21252,1.24664,
-2.23236,1.24969,
-2.2583,1.25275,
-2.27661,1.2558,
-2.3056,1.26038,
-2.32544,1.24969,
-2.34985,1.24969,
-2.38342,1.24969,
-2.40021,1.25732,
-2.42157,1.26343,
-2.44293,1.24817,
-2.46582,1.25275,
-2.48566,1.2558,
-2.50549,1.26343,
-2.53143,1.26038,
-2.5528,1.25275,
-2.57568,1.25275,
-2.59705,1.2558,
-2.61841,1.26343,
-2.63672,1.25885,
-2.65503,1.25122,
-2.67181,1.25122,
-2.68707,1.25732,
-2.70081,1.26495,
-2.71759,1.26648,
-2.73438,1.25275,
-2.75421,1.2558,
-2.76947,1.25427,
-2.7832,1.26648,
-2.79541,1.26495,
-2.81067,1.25427,
-2.82593,1.25732,
-2.83813,1.25732,
-2.84882,1.26648,
-2.86255,1.26953,
-2.87018,1.25427,
-2.88544,1.2558,
-2.90222,1.26038,
-2.9129,1.26801,
-2.92969,1.26648,
-2.94189,1.25427,
-2.9541,1.25732,
-2.97241,1.26038,
-2.9892,1.26495,
-3.00598,1.26648,
-3.01971,1.2558,
-3.03802,1.25885,
-3.05328,1.26038,
-3.06854,1.26801,
-3.07922,1.26648,
-3.09601,1.2558,
-3.10974,1.25885,
-3.12347,1.26038,
-3.14178,1.26801,
-3.15094,1.26648,
-3.16925,1.25427,
-3.17993,1.25885,
-3.19519,1.25885,
-3.2074,1.26801,
-3.22113,1.26648,
-3.23486,1.25732,
-3.24402,1.26038,
-3.2486,1.25885,
-3.2486,1.26953,
-3.23792,1.26495,
-3.22266,1.25885,
-3.20282,1.25885,
-3.16925,1.26343,
-3.13263,1.26648,
-3.08838,1.26801,
-3.02887,1.26038,
-2.95868,1.25885,
-2.87933,1.26648,
-2.79083,1.27258,
-2.69775,1.26648,
-2.59705,1.26343,
-2.48566,1.26343,
-2.36969,1.26343,
-2.25677,1.26953,
-2.13623,1.26648,
-2.01416,1.26038,
-1.89667,1.26038,
-1.77765,1.26495,
-1.6571,1.26953,
-1.54572,1.27106,
-1.43738,1.25885,
-1.33362,1.26038,
-1.23291,1.26343,
-1.14441,1.26648,
-1.05591,1.26495,
-0.976563,1.2558,
-0.909424,1.25732,
-0.848389,1.26038,
-0.787354,1.26801,
-0.735474,1.26801,
-0.695801,1.2558,
-0.660706,1.25885,
-0.631714,1.25885,
-0.605774,1.27106,
-0.588989,1.26648,
-0.57373,1.25732,
-0.566101,1.26343,
-0.566101,1.26343,
-0.572205,1.26953,
-0.58136,1.26648,
-0.595093,1.25885,
-0.6073,1.25732,
-0.627136,1.26343,
-0.645447,1.26648,
-0.669861,1.26495,
-0.692749,1.26343,
-0.715637,1.2558,
-0.737,1.26343,
-0.765991,1.26953,
-0.790405,1.26495,
-0.817871,1.25732,
-0.85144,1.25732,
-0.888062,1.26038,
-0.923157,1.26648,
-0.959778,1.26648,
-0.999451,1.25885,
-1.04218,1.25732,
-1.08643,1.25885,
-1.12762,1.26648,
-1.17645,1.26648,
-1.2146,1.25885,
-1.25885,1.25732,
-1.30157,1.25885,
-1.3443,1.26801,
-1.39008,1.26648,
-1.4267,1.25885,
-1.46942,1.2558,
-1.51062,1.26038,
-1.54572,1.27106,
-1.58997,1.26648,
-1.62201,1.2558,
-1.65863,1.25885,
-1.69525,1.25885,
-1.72577,1.26801,
-1.75629,1.26343,
-1.78375,1.25732,
-1.81427,1.25885,
-1.83563,1.25885,
-1.85394,1.26495,
-1.87073,1.26648,
-1.88446,1.2558,
-1.89667,1.25732,
-1.90735,1.26038,
-1.91498,1.26343,
-1.91956,1.26495,
-1.91956,1.26038,
-1.92261,1.2558,
-1.9165,1.26648,
-1.91956,1.26648,
-1.9165,1.26038,
-1.91803,1.25275,
-1.90887,1.25732,
-1.9043,1.26495,
-1.89667,1.26801,
-1.89514,1.26343,
-1.88904,1.25885,
-1.88751,1.25732,
-1.88904,1.26801,
-1.89056,1.26648,
-1.88751,1.26038,
-1.89362,1.25885,
-1.88904,1.2558,
-1.89514,1.26495,
-1.89972,1.26801,
-1.90887,1.25885,
-1.91193,1.25732,
-1.92413,1.2558,
-1.93481,1.26648,
-1.94702,1.26648,
-1.96228,1.26648,
-1.97754,1.26038,
-1.99127,1.25427,
-2.00806,1.26648,
-2.01874,1.26801,
-2.034,1.26343,
-2.04468,1.25885,
-2.06451,1.2558,
-2.07825,1.26343,
-2.09351,1.26801,
-2.11487,1.26648,
-2.13318,1.26343,
-2.14844,1.25732,
-2.1698,1.26801,
-2.18811,1.26648,
-2.20795,1.26343,
-2.22473,1.25885,
-2.24915,1.25427,
-2.27203,1.26648,
-2.29492,1.26648,
-2.31628,1.26495,
-2.33917,1.26038,
-2.35596,1.25885,
-2.37732,1.26343,
-2.39563,1.26648,
-2.41699,1.26495,
-2.43988,1.25885,
-2.46277,1.2558,
-2.49176,1.26648,
-2.5177,1.26343,
-2.54059,1.26343,
-2.56653,1.26343,
-2.59552,1.25732,
-2.61688,1.26495,
-2.63977,1.26495,
-2.66113,1.26495,
-2.68097,1.26038,
-2.70386,1.25885,
-2.72675,1.26495,
-2.74811,1.27106,
-2.77252,1.26495,
-2.79694,1.26038,
-2.81677,1.25885,
-2.83813,1.27106,
-2.86713,1.26953,
-2.88696,1.26648,
-2.90985,1.26038,
-2.93274,1.25732,
-2.9541,1.26648,
-2.97394,1.27106,
-2.99835,1.26953,
-3.01361,1.25885,
-3.02887,1.25732,
-3.04871,1.26953,
-3.06244,1.26801,
-3.07922,1.26801,
-3.09143,1.26343,
-3.10364,1.2558,
-3.11737,1.26495,
-3.12653,1.27258,
-3.13873,1.27106,
-3.14941,1.26648,
-3.16162,1.25427,
-3.17078,1.26495,
-3.17841,1.27106,
-3.18451,1.26801,
-3.19366,1.26495,
-3.2074,1.25885,
-3.21503,1.26343,
-3.22418,1.26801,
-3.24249,1.26495,
-3.25317,1.26343,
-3.26233,1.25732,
-3.28064,1.26648,
-3.28979,1.26648,
-3.29742,1.26801,
-3.31116,1.26038,
-3.31879,1.25427,
-3.32947,1.26648,
-3.34015,1.26801,
-3.3493,1.26801,
-3.36151,1.26038,
-3.36609,1.25427,
-3.37677,1.26495,
-3.38745,1.26648,
-3.39813,1.26343,
-3.40576,1.26343,
-3.41492,1.25885,
-3.42407,1.26495,
-3.4317,1.26648,
-3.44238,1.26343,
-3.45459,1.26343,
-3.46069,1.25732,
-3.46985,1.26038,
-3.47595,1.27106,
-3.48816,1.26648,
-3.49731,1.26343,
-3.51105,1.2558,
-3.52325,1.26953,
-3.53699,1.26343,
-3.54767,1.26495,
-3.5614,1.26038,
-3.57361,1.2558,
-3.58276,1.26495,
-3.59344,1.26648,
-3.6026,1.26801,
-3.60718,1.26648,
-3.61176,1.2558,
-3.61633,1.26343,
-3.61328,1.26801,
-3.60718,1.26648,
-3.59497,1.26038,
-3.57208,1.25427,
-3.54919,1.26495,
-3.50952,1.26801,
-3.45459,1.26801,
-3.39966,1.26495,
-3.32642,1.2558,
-3.2486,1.26038,
-3.15704,1.26953,
-3.05481,1.26648,
-2.95258,1.26343,
-2.83813,1.25427,
-2.72064,1.26648,
-2.59247,1.26801,
-2.46429,1.26801,
-2.33917,1.26801,
-2.21558,1.25732,
-2.09045,1.26343,
-1.97144,1.26801,
-1.85089,1.26953,
-1.73492,1.26648,
-1.62964,1.26343,
-1.52283,1.26648,
-1.42059,1.26801,
-1.32599,1.26801,
-1.24207,1.26343,
-1.16119,1.25732,
-1.08948,1.26038,
-1.02386,1.26648,
-0.970459,1.26801,
-0.921631,1.26343,
-0.883484,1.2558,
-0.85144,1.26343,
-0.828552,1.26648,
-0.80719,1.26648,
-0.787354,1.26495,
-0.776672,1.25732,
-0.765991,1.26343,
-0.765991,1.26801,
-0.770569,1.26801,
-0.776672,1.26038,
-0.790405,1.2558,
-0.80719,1.26038,
-0.830078,1.26648,
-0.845337,1.26648,
-0.865173,1.26343,
-0.889587,1.2558,
-0.917053,1.26648,
-0.946045,1.26801,
-0.975037,1.26648,
-1.00403,1.26343,
-1.02997,1.2558,
-1.06354,1.26495,
-1.09558,1.27106,
-1.12762,1.26495,
-1.16425,1.26343,
-1.20087,1.25885,
-1.24512,1.26343,
-1.28326,1.26953,
-1.32446,1.26801,
-1.36414,1.26495,
-1.40533,1.25427,
-1.44958,1.26801,
-1.49078,1.26495,
-1.53198,1.27258,
-1.57166,1.26648,
-1.60828,1.25885,
-1.65253,1.26801,
-1.69067,1.27258,
-1.72882,1.27106,
-1.76392,1.26953,
-1.79749,1.26343,
-1.83105,1.26801,
-1.86157,1.26648,
-1.88751,1.27258,
-1.9165,1.26801,
-1.94397,1.25885,
-1.96991,1.26953,
-1.99585,1.27106,
-2.01263,1.27106,
-2.03552,1.26648,
-2.05536,1.26038,
-2.07367,1.27106,
-2.08893,1.26801,
-2.09961,1.27411,
-2.10876,1.26801,
-2.11792,1.26343,
-2.12402,1.26953,
-2.1286,1.27106,
-2.13623,1.27106,
-2.13776,1.27106,
-2.14386,1.26343,
-2.14844,1.27411,
-2.14844,1.27106,
-2.15454,1.27716,
-2.15912,1.26953,
-2.16217,1.26495,
-2.16827,1.27106,
-2.17133,1.27411,
-2.17743,1.27411,
-2.17743,1.27106,
-2.18201,1.26343,
-2.19116,1.27258,
-2.19421,1.27411,
-2.20337,1.27869,
-2.211,1.27258,
-2.22015,1.26648,
-2.23083,1.27411,
-2.24457,1.27563,
-2.25372,1.27716,
-2.26746,1.27411,
-2.28577,1.26343,
-2.2995,1.27563,
-2.31781,1.27716,
-2.33459,1.27869,
-2.34833,1.27563,
-2.36664,1.26495,
-2.388,1.27869,
-2.40021,1.27716,
-2.41852,1.28021,
-2.43835,1.27716,
-2.46277,1.26801,
-2.48108,1.27563,
-2.50092,1.28021,
-2.5238,1.28174,
-2.53754,1.27716,
-2.55585,1.26648,
-2.57263,1.27563,
-2.59247,1.28021,
-2.61078,1.28326,
-2.63214,1.27716,
-2.65808,1.27106,
-2.67944,1.27869,
-2.70386,1.28021,
-2.72217,1.28174,
-2.742,1.28021,
-2.76642,1.26953,
-2.7832,1.27869,
-2.80914,1.28174,
-2.83356,1.28021,
-2.85492,1.27869,
-2.87628,1.26953,
-2.89917,1.27563,
-2.92053,1.28174,
-2.94342,1.28021,
-2.96478,1.28021,
-2.98615,1.27106,
-3.00751,1.28021,
-3.0304,1.28326,
-3.04871,1.28174,
-3.07159,1.27869,
-3.0899,1.27258,
-3.10974,1.27869,
-3.12347,1.28174,
-3.14331,1.28174,
-3.16162,1.27563,
-3.18146,1.27411,
-3.19672,1.27716,
-3.21808,1.28174,
-3.23792,1.28326,
-3.25928,1.27869,
-3.27911,1.27106,
-3.2959,1.28174,
-3.31421,1.28174,
-3.33252,1.28326,
-3.3493,1.28174,
-3.36304,1.27563,
-3.3844,1.28326,
-3.40118,1.28326,
-3.41644,1.28021,
-3.43018,1.28174,
-3.44543,1.27258,
-3.45917,1.27869,
-3.46832,1.28021,
-3.48663,1.28479,
-3.49579,1.28021,
-3.51257,1.27411,
-3.52478,1.27869,
-3.54614,1.28326,
-3.5614,1.28479,
-3.57361,1.28174,
-3.59497,1.27563,
-3.6087,1.27869,
-3.62549,1.28021,
-3.64227,1.28632,
-3.65753,1.28174,
-3.66821,1.27258,
-3.68347,1.28174,
-3.69415,1.28174,
-3.70941,1.28326,
-3.72314,1.28174,
-3.72925,1.27258,
-3.74146,1.28021,
-3.75366,1.28174,
-3.76434,1.27869,
-3.77502,1.27716,
-3.78571,1.27411,
-3.79791,1.28174,
-3.81012,1.28326,
-3.81775,1.28479,
-3.83148,1.27716,
-3.84064,1.27106,
-3.8559,1.27869,
-3.8681,1.28174,
-3.86963,1.28174,
-3.87726,1.27716,
-3.88184,1.27106,
-3.89252,1.28021,
-3.90167,1.28021,
-3.90625,1.28174,
-3.91541,1.27563,
-3.92609,1.26953,
-3.93372,1.27716,
-3.94592,1.27716,
-3.9505,1.28174,
-3.96271,1.27716,
-3.97797,1.26953,
-3.9856,1.27716,
-3.9978,1.28174,
-4.00391,1.28021,
-4.01306,1.27869,
-4.02069,1.26801,
-4.02985,1.28021,
-4.03748,1.27716,
-4.04663,1.27869,
-4.05579,1.27716,
-4.06799,1.26953,
-4.07715,1.28021,
-4.08478,1.27869,
-4.09698,1.27716,
-4.10767,1.27563,
-4.1153,1.26953,
-4.13361,1.27716,
-4.14276,1.27869,
-4.15649,1.27411,
-4.17175,1.27563,
-4.18091,1.26495,
-4.19006,1.27869,
-4.2038,1.27869,
-4.216,1.28021,
-4.22516,1.26953,
-4.23737,1.26343,
-4.2511,1.27716,
-4.25873,1.27563,
-4.27094,1.27716,
-4.27704,1.26801,
-4.28314,1.26495,
-4.28162,1.27411,
-4.27856,1.27716,
-4.27094,1.27716,
-4.25873,1.26953,
-4.23889,1.26648,
-4.21143,1.27869,
-4.17938,1.27411,
-4.13513,1.27563,
-4.08325,1.26801,
-4.02832,1.26343,
-3.96271,1.27563,
-3.88031,1.27563,
-3.79333,1.27563,
-3.70483,1.26648,
-3.60413,1.26953,
-3.49426,1.27563,
-3.38135,1.27563,
-3.27301,1.27411,
-3.15857,1.26953,
-3.0426,1.26495,
-2.92969,1.27411,
-2.81677,1.27411,
-2.70386,1.27258,
-2.59399,1.26801,
-2.48871,1.26038,
-2.38953,1.27258,
-2.29645,1.27411,
-2.20642,1.26953,
-2.12402,1.26495,
-2.04773,1.25885,
-1.97906,1.27258,
-1.91498,1.27106,
-1.86157,1.26801,
-1.81274,1.26343,
-1.77155,1.25732,
-1.73187,1.26801,
-1.70288,1.26953,
-1.67236,1.26953,
-1.6571,1.26038,
-1.63727,1.25732,
-1.62964,1.26953,
-1.62811,1.26801,
-1.62811,1.26801,
-1.62964,1.2558,
-1.63574,1.25885,
-1.64337,1.26953,
-1.65863,1.26801,
-1.67084,1.26495,
-1.69067,1.25732,
-1.71204,1.25275,
-1.73645,1.26801,
-1.76086,1.26495,
-1.78986,1.26038,
-1.8219,1.25885,
-1.85089,1.25275,
-1.88293,1.26495,
-1.91803,1.26953,
-1.95007,1.25732,
-1.98364,1.25427,
-2.01874,1.25275,
-2.05536,1.26038,
-2.09198,1.26343,
-2.12708,1.25885,
-2.16522,1.25122,
-2.20795,1.24817,
-2.24609,1.26038,
-2.28271,1.26343,
-2.32239,1.25732,
-2.35443,1.24969,
-2.39105,1.24817,
-2.42462,1.25732,
-2.46582,1.25885,
-2.49329,1.25732,
-2.52686,1.25122,
-2.55585,1.24512,
-2.58636,1.2558,
-2.60773,1.26343,
-2.63672,1.25122,
-2.65961,1.24969,
-2.67944,1.24664,
-2.70081,1.25275,
-2.72064,1.2558,
-2.73743,1.25122,
-2.75269,1.24664,
-2.76337,1.24359,
-2.76947,1.25122,
-2.77863,1.2558,
-2.78015,1.25122,
-2.78625,1.24512,
-2.78931,1.24359,
-2.78778,1.25427,
-2.78168,1.25427,
-2.77863,1.25122,
-2.77405,1.24359,
-2.77252,1.24359,
-2.771,1.25122,
-2.76337,1.24817,
-2.76184,1.24969,
-2.75726,1.24207,
-2.75726,1.23901,
-2.75421,1.24817,
-2.74811,1.25122,
-2.74658,1.24359,
-2.74353,1.24054,
-2.74048,1.23901,
-2.74353,1.24969,
-2.74048,1.24969,
-2.742,1.24512,
-2.74353,1.24054,
-2.74048,1.24054,
-2.74353,1.24969,
-2.74811,1.24969,
-2.75879,1.24664,
-2.76947,1.24207,
-2.77863,1.23901,
-2.78168,1.24664,
-2.79388,1.24664,
-2.80457,1.24969,
-2.81525,1.23749,
-2.83203,1.23901,
-2.84576,1.24359,
-2.8595,1.24512,
-2.87323,1.24512,
-2.88696,1.23596,
-2.90222,1.23749,
-2.92358,1.24512,
-2.94189,1.24359,
-2.96326,1.24512,
-2.98309,1.23444,
-3.00446,1.23596,
-3.02124,1.24207,
-3.04108,1.24359,
-3.05786,1.23901,
-3.07617,1.23596,
-3.09753,1.23291,
-3.11432,1.24207,
-3.13568,1.24512,
-3.15552,1.24359,
-3.1723,1.23444,
-3.19061,1.23138,
-3.21045,1.24054,
-3.22723,1.24207,
-3.24402,1.24054,
-3.26233,1.22986,
-3.27911,1.23291,
-3.29742,1.23901,
-3.31421,1.24207,
-3.33099,1.23901,
-3.34778,1.22986,
-3.36151,1.22986,
-3.37982,1.24207,
-3.39508,1.24207,
-3.41339,1.23596,
-3.43018,1.23138,
-3.44696,1.22986,
-3.46375,1.23901,
-3.47748,1.24207,
-3.48816,1.23749,
-3.50494,1.22528,
-3.52325,1.22528,
-3.53699,1.23901,
-3.55682,1.24207,
-3.57513,1.23291,
-3.59039,1.22528,
-3.6087,1.22681,
-3.62396,1.23749,
-3.64075,1.24054,
-3.65906,1.23596,
-3.67126,1.22528,
-3.68805,1.22681,
-3.70026,1.23596,
-3.71857,1.24054,
-3.72925,1.23444,
-3.73993,1.22528,
-3.75214,1.22375,
-3.76282,1.23596,
-3.76434,1.24054,
-3.77655,1.23291,
-3.78418,1.22375,
-3.79181,1.22375,
-3.79791,1.23444,
-3.80859,1.23596,
-3.81317,1.23444,
-3.81927,1.22375,
-3.83148,1.22375,
-3.83453,1.23444,
-3.84521,1.23749,
-3.85284,1.23138,
-3.86047,1.21918,
-3.8681,1.22528,
-3.87878,1.23444,
-3.88641,1.23596,
-3.89404,1.23138,
-3.90015,1.22375,
-3.90625,1.22681,
-3.91846,1.23291,
-3.92914,1.23291,
-3.93829,1.22681,
-3.94897,1.21765,
-3.95813,1.22223,
-3.96881,1.23291,
-3.97339,1.23444,
-3.9856,1.22681,
-3.99628,1.2207,
-4.00238,1.22375,
-4.00543,1.22681,
-4.01611,1.23291,
-4.02679,1.22528,
-4.039,1.2207,
-4.04816,1.22528,
-4.05273,1.22986,
-4.05884,1.23138,
-4.06799,1.22375,
-4.07715,1.21918,
-4.08783,1.22375,
-4.09393,1.22986,
-4.10004,1.23138,
-4.10614,1.22375,
-4.1153,1.21918,
-4.11987,1.22375,
-4.13055,1.22986,
-4.13818,1.23138,
-4.14734,1.22681,
-4.15497,1.21765,
-4.16565,1.2207,
-4.17023,1.22986,
-4.18396,1.22681,
-4.19769,1.22681,
-4.20837,1.2207,
-4.216,1.22223,
-4.22821,1.22528,
-4.23431,1.22986,
-4.24347,1.22528,
-4.25568,1.21918,
-4.26483,1.2207,
-4.27399,1.22681,
-4.28162,1.22986,
-4.29077,1.22681,
-4.29993,1.21918,
-4.30908,1.21918,
-4.31976,1.22528,
-4.32434,1.22681,
-4.33502,1.22223,
-4.3396,1.21765,
-4.3457,1.22375,
-4.3457,1.22375,
-4.34265,1.22681,
-4.3335,1.22681,
-4.31671,1.21765,
-4.29077,1.21613,
-4.26025,1.2207,
-4.21906,1.22681,
-4.17175,1.22223,
-4.11377,1.21918,
-4.04968,1.21765,
-3.97034,1.22375,
-3.88336,1.22681,
-3.79333,1.22375,
-3.69415,1.21765,
-3.58887,1.21613,
-3.46985,1.22375,
-3.35541,1.22528,
-3.23944,1.21765,
-3.1189,1.21765,
-2.99683,1.2207,
-2.87781,1.22375,
-2.76031,1.22681,
-2.64893,1.2207,
-2.53601,1.2146,
-2.43378,1.21613,
-2.32544,1.22528,
-2.22931,1.22681,
-2.13776,1.2207,
-2.05383,1.21613,
-1.97449,1.21613,
-1.90125,1.22223,
-1.83105,1.22375,
-1.77002,1.21765,
-1.71509,1.21307,
-1.66931,1.21613,
-1.63422,1.22223,
-1.59607,1.22375,
-1.56555,1.21613,
-1.54114,1.21307,
-1.51672,1.21613,
-1.49689,1.22223,
-1.48926,1.22528,
-1.48773,1.21613,
-1.48163,1.21155,
-1.48621,1.2146,
-1.49384,1.21613,
-1.49994,1.22375,
-1.51215,1.21613,
-1.53046,1.21002,
-1.54419,1.2146,
-1.56403,1.21918,
-1.58691,1.22223,
-1.60217,1.21613,
-1.63116,1.21002,
-1.64948,1.2146,
-1.68152,1.21765,
-1.70441,1.2207,
-1.7334,1.21765,
-1.76697,1.21155,
-1.80511,1.21155,
-1.83716,1.21307,
-1.87073,1.2207,
-1.90125,1.2146,
-1.93939,1.21002,
-1.97144,1.2085,
-2.00195,1.2146,
-2.04163,1.21918,
-2.07672,1.21613,
-2.11029,1.20697,
-2.14081,1.2085,
-2.17133,1.21613,
-2.2049,1.2207,
-2.22931,1.21307,
-2.26135,1.2085,
-2.28729,1.21002,
-2.31018,1.21613,
-2.33612,1.21765,
-2.35748,1.21155,
-2.37732,1.20392,
-2.39258,1.21002,
-2.40631,1.2146,
-2.42157,1.21307,
-2.43225,1.21613,
-2.44598,1.20697,
-2.45056,1.21002,
-2.45514,1.21307,
-2.46429,1.2146,
-2.46124,1.21307,
-2.46124,1.2085,
-2.45819,1.20544,
-2.45972,1.21002,
-2.45667,1.21613,
-2.45514,1.21002,
-2.45514,1.20544,
-2.45361,1.2085,
-2.44751,1.21002,
-2.44598,1.21765,
-2.44751,1.21002,
-2.44446,1.20392,
-2.44293,1.2085,
-2.44293,1.21155,
-2.44446,1.21307,
-2.43683,1.2085,
-2.4353,1.20544,
-2.43225,1.20392,
-2.43225,1.21002,
-2.42767,1.21613,
-2.42462,1.21307,
-2.42767,1.2085,
-2.42615,1.20697,
-2.42462,1.2085,
-2.42767,1.21613,
-2.43073,1.21155,
-2.43683,1.20392,
-2.44446,1.20544,
-2.45056,1.2085,
-2.46277,1.2146,
-2.47192,1.21002,
-2.47955,1.2085,
-2.49176,1.20544,
-2.49939,1.2085,
-2.5116,1.2146,
-2.5238,1.21155,
-2.53754,1.20544,
-2.54822,1.20544,
-2.56348,1.21155,
-2.57568,1.2146,
-2.59399,1.21155,
-2.60773,1.20697,
-2.62451,1.2085,
-2.6413,1.20697,
-2.65656,1.21613,
-2.67181,1.21002,
-2.68707,1.2085,
-2.70386,1.20697,
-2.72064,1.21155,
-2.73895,1.21918,
-2.75421,1.21155,
-2.77557,1.21002,
-2.79236,1.2085,
-2.80914,1.21002,
-2.82288,1.21765,
-2.83508,1.2146,
-2.85187,1.2085,
-2.86865,1.2085,
-2.88544,1.2085,
-2.90375,1.21765,
-2.92358,1.21613,
-2.93427,1.21002,
-2.95563,1.21155,
-2.97089,1.21155,
-2.9892,1.2207,
-3.00446,1.21307,
-3.01514,1.21307,
-3.03345,1.2146,
-3.04565,1.21307,
-3.06396,1.21918,
-3.08228,1.21765,
-3.09601,1.21307,
-3.11584,1.21307,
-3.12653,1.21613,
-3.14636,1.22375,
-3.16467,1.21918,
-3.17841,1.21613,
-3.19214,1.21613,
-3.20435,1.21613,
-3.21808,1.22528,
-3.22876,1.22223,
-3.24554,1.2207,
-3.2547,1.2207,
-3.26996,1.21918,
-3.28369,1.22986,
-3.2959,1.23138,
-3.30963,1.2207,
-3.31726,1.22528,
-3.32336,1.22375,
-3.33405,1.23291,
-3.34625,1.22681,
-3.35083,1.22528,
-3.36304,1.22375,
-3.37219,1.22375,
-3.3844,1.23291,
-3.39203,1.23291,
-3.40118,1.22986,
-3.41339,1.22528,
-3.41797,1.22681,
-3.4256,1.23901,
-3.4317,1.23444,
-3.43933,1.23444,
-3.44543,1.22986,
-3.45154,1.23138,
-3.45764,1.23901,
-3.46375,1.24054,
-3.47137,1.23749,
-3.47748,1.23749,
-3.48511,1.23444,
-3.48816,1.24207,
-3.49731,1.24054,
-3.50342,1.23749,
-3.508,1.23901,
-3.51257,1.23444,
-3.5202,1.24817,
-3.52325,1.24359,
-3.52631,1.24207,
-3.53394,1.24512,
-3.53394,1.24054,
-3.54309,1.25122,
-3.54767,1.24969,
-3.55377,1.24817,
-3.55225,1.24512,
-3.5553,1.24359,
-3.56293,1.25427,
-3.56598,1.25427,
-3.56903,1.25122,
-3.57361,1.24817,
-3.57819,1.24512,
-3.58124,1.25732,
-3.58429,1.2558,
-3.58887,1.25275,
-3.59497,1.24969,
-3.59955,1.24817,
-3.60718,1.26343,
-3.61481,1.25732,
-3.62549,1.2558,
-3.63312,1.25732,
-3.64227,1.25275,
-3.65143,1.26648,
-3.66211,1.26495,
-3.67126,1.26038,
-3.67737,1.25427,
-3.68805,1.2558,
-3.70026,1.27258,
-3.71094,1.26648,
-3.72314,1.26343,
-3.7384,1.26038,
-3.74908,1.25732,
-3.75824,1.27258,
-3.76587,1.26801,
-3.77045,1.26953,
-3.7735,1.26495,
-3.7735,1.26495,
-3.7674,1.27411,
-3.75824,1.27106,
-3.74298,1.27258,
-3.72162,1.26801,
-3.6911,1.26648,
-3.65906,1.27869,
-3.61481,1.27411,
-3.56293,1.27258,
-3.50037,1.26953,
-3.43323,1.26953,
-3.35388,1.27716,
-3.26996,1.27716,
-3.1723,1.27411,
-3.07159,1.27411,
-2.96478,1.27563,
-2.85797,1.28021,
-2.742,1.27869,
-2.62909,1.27563,
-2.50854,1.27563,
-2.3941,1.27563,
-2.27814,1.28326,
-2.16064,1.28021,
-2.04468,1.28174,
-1.93481,1.27869,
-1.828,1.27716,
-1.72424,1.28632,
-1.62201,1.28326,
-1.52893,1.28174,
-1.44043,1.28174,
-1.36108,1.27869,
-1.28784,1.28784,
-1.22223,1.28632,
-1.16119,1.28632,
-1.10931,1.28326,
-1.05896,1.28326,
-1.02081,1.28784,
-0.98877,1.28784,
-0.961304,1.28784,
-0.944519,1.28632,
-0.927734,1.28479,
-0.923157,1.28784,
-0.915527,1.28784,
-0.912476,1.28937,
-0.917053,1.28174,
-0.924683,1.28479,
-0.933838,1.29547,
-0.941467,1.29547,
-0.952148,1.28632,
-0.965881,1.29089,
-0.978088,1.28479,
-0.990295,1.29089,
-1.00555,1.29089,
-1.01776,1.29089,
-1.03912,1.28937,
-1.05591,1.28784,
-1.0788,1.29242,
-1.10168,1.297,
-1.12762,1.29089,
-1.15204,1.29089,
-1.1795,1.28784,
-1.20544,1.29547,
-1.23291,1.29547,
-1.25885,1.29242,
-1.28784,1.29089,
-1.31683,1.28784,
-1.34583,1.297,
-1.37939,1.29242,
-1.41449,1.29242,
-1.44806,1.29547,
-1.4801,1.29242,
-1.51672,1.29852,
-1.55029,1.30005,
-1.57776,1.29547,
-1.60522,1.29089,
-1.63727,1.29089,
-1.66321,1.297,
-1.68762,1.30005,
-1.70898,1.297,
-1.7334,1.297,
-1.75018,1.29089,
-1.77002,1.29547,
-1.78375,1.30005,
-1.79749,1.30005,
-1.81122,1.29242,
-1.82037,1.28937,
-1.83411,1.30157,
-1.84174,1.29852,
-1.85394,1.30157,
-1.86157,1.29852,
-1.86768,1.29242,
-1.87073,1.297,
-1.87225,1.3031,
-1.87225,1.297,
-1.87836,1.297,
-1.87531,1.29089,
-1.87836,1.30005,
-1.87836,1.30463,
-1.88293,1.30157,
-1.88141,1.29547,
-1.87683,1.29242,
-1.87683,1.30157,
-1.87531,1.30157,
-1.87073,1.297,
-1.8692,1.29852,
-1.8692,1.29089,
-1.87073,1.29852,
-1.87073,1.30157,
-1.87225,1.30005,
-1.88141,1.297,
-1.88904,1.29547,
-1.89819,1.30005,
-1.90582,1.30157,
-1.91498,1.30157,
-1.92261,1.297,
-1.93481,1.29242,
-1.94702,1.3031,
-1.9577,1.3031,
-1.96838,1.29852,
-1.98059,1.297,
-1.99585,1.29089,
-2.01263,1.30463,
-2.02332,1.30463,
-2.04315,1.30157,
-2.05994,1.30157,
-2.0813,1.29242,
-2.09961,1.30005,
-2.11182,1.30005,
-2.1286,1.30005,
-2.14691,1.30157,
-2.16217,1.29547,
-2.17896,1.29852,
-2.19574,1.297,
-2.21252,1.30005,
-2.22626,1.30005,
-2.24457,1.28632,
-2.26593,1.30615,
-2.28577,1.30005,
-2.30103,1.29852,
-2.32086,1.297,
-2.34222,1.29089,
-2.36053,1.30157,
-2.37579,1.297,
-2.40021,1.297,
-2.41852,1.29852,
-2.43988,1.28632,
-2.46277,1.297,
-2.4826,1.29852,
-2.50092,1.29242,
-2.52228,1.29547,
-2.54059,1.29089,
-2.56042,1.29852,
-2.58484,1.29852,
-2.59705,1.297,
-2.62146,1.29242,
-2.6413,1.28632,
-2.65961,1.30005,
-2.67487,1.297,
-2.69928,1.29089,
-2.72217,1.29242,
-2.742,1.28784,
-2.76794,1.297,
-2.79236,1.29852,
-2.81067,1.29242,
-2.83356,1.28937,
-2.84729,1.28784,
-2.86713,1.29852,
-2.88544,1.29547,
-2.89917,1.29242,
-2.91443,1.29242,
-2.93274,1.28326,
-2.94342,1.29547,
-2.95868,1.29852,
-2.96783,1.29242,
-2.98004,1.28784,
-2.9892,1.28632,
-3.0014,1.297,
-3.00903,1.297,
-3.01819,1.29242,
-3.03192,1.29089,
-3.04108,1.28632,
-3.05176,1.297,
-3.05939,1.29242,
-3.06549,1.28784,
-3.0777,1.28937,
-3.0777,1.28784,
-3.08685,1.28937,
-3.09601,1.29089,
-3.10516,1.28784,
-3.11584,1.28937,
-3.125,1.28479,
-3.13568,1.28937,
-3.14941,1.28937,
-3.16467,1.28937,
-3.17535,1.28479,
-3.18756,1.28021,
-3.20892,1.29089,
-3.21503,1.28632,
-3.22723,1.28784,
-3.24097,1.28632,
-3.24707,1.27869,
-3.25928,1.28632,
-3.26538,1.28784,
-3.27454,1.28326,
-3.28827,1.28479,
-3.29437,1.28174,
-3.302,1.28479,
-3.31268,1.28784,
-3.31726,1.28326,
-3.32336,1.28174,
-3.33252,1.28021,
-3.33862,1.28326,
-3.3432,1.28937,
-3.35388,1.28326,
-3.36151,1.28021,
-3.36456,1.27411,
-3.37524,1.28479,
-3.37982,1.28479,
-3.38745,1.28174,
-3.39508,1.28021,
-3.39966,1.27563,
-3.41034,1.28174,
-3.41797,1.28784,
-3.43323,1.28021,
-3.44391,1.27869,
-3.45306,1.27258,
-3.45917,1.28326,
-3.47595,1.28326,
-3.48511,1.27869,
-3.49426,1.27716,
-3.508,1.27106,
-3.51868,1.28174,
-3.52631,1.28174,
-3.53546,1.27716,
-3.54462,1.27563,
-3.54919,1.27106,
-3.55377,1.27716,
-3.5553,1.27869,
-3.55072,1.27716,
-3.54309,1.27563,
-3.52478,1.27411,
-3.50494,1.27563,
-3.479,1.28021,
-3.44543,1.27869,
-3.40271,1.27411,
-3.35236,1.27106,
-3.29285,1.27411,
-3.22113,1.27563,
-3.14484,1.27716,
-3.06549,1.27411,
-2.97241,1.26953,
-2.87628,1.27563,
-2.77557,1.27563,
-2.66266,1.27563,
-2.55432,1.26953,
-2.43683,1.26495,
-2.32544,1.27411,
-2.21558,1.27411,
-2.10419,1.26953,
-1.9989,1.27258,
-1.88751,1.26801,
-1.7868,1.26801,
-1.6861,1.27258,
-1.59302,1.26953,
-1.50299,1.26648,
-1.42212,1.26495,
-1.35193,1.27258,
-1.28479,1.27106,
-1.21918,1.26953,
-1.15662,1.26495,
-1.10626,1.25885,
-1.06049,1.26801,
-1.01929,1.26648,
-0.985718,1.26648,
-0.958252,1.26038,
-0.93689,1.25427,
-0.923157,1.26953,
-0.915527,1.26495,
-0.91095,1.26343,
-0.907898,1.26038,
-0.914001,1.25427,
-0.920105,1.26038,
-0.932312,1.26495,
-0.950623,1.25885,
-0.967407,1.25732,
-0.987244,1.25732,
-1.01013,1.26495,
-1.02997,1.26038,
-1.06049,1.25732,
-1.08795,1.2558,
-1.12,1.25427,
-1.15204,1.2558,
-1.1795,1.25732,
-1.21765,1.25732,
-1.25427,1.25427,
-1.28784,1.25122,
-1.31989,1.25885,
-1.35803,1.25885,
-1.39771,1.25275,
-1.43433,1.25122,
-1.47247,1.24969,
-1.51215,1.25427,
-1.55182,1.25122,
-1.58691,1.25275,
-1.62811,1.25122,
-1.66779,1.24512,
-1.70593,1.2558,
-1.74561,1.25275,
-1.78375,1.25427,
-1.8219,1.24664,
-1.85089,1.24664,
-1.88446,1.25122,
-1.90735,1.25122,
-1.93634,1.24817,
-1.95923,1.24817,
-1.98364,1.24512,
-2.00195,1.24969,
-2.01721,1.25122,
-2.03247,1.24817,
-2.04315,1.24512,
-2.05231,1.24359,
-2.06146,1.24969,
-2.06604,1.24969,
-2.07367,1.24664,
-2.07214,1.24512,
-2.07825,1.24054,
-2.07672,1.24512,
-2.07672,1.24664,
-2.07367,1.24817,
-2.06757,1.24207,
-2.05688,1.23596,
-2.05383,1.24512,
-2.04926,1.24207,
-2.0462,1.24054,
-2.04163,1.23901,
-2.03705,1.23901,
-2.03247,1.24512,
-2.02179,1.24512,
-2.02026,1.24054,
-2.01721,1.23901,
-2.01569,1.23291,
-2.01263,1.24359,
-2.00806,1.23901,
-2.00806,1.23901,
-2.00348,1.23444,
-2.005,1.23291,
-2.00653,1.23749,
-2.01111,1.23901,
-2.01874,1.24207,
-2.02637,1.23444,
-2.03552,1.23138,
-2.04315,1.23749,
-2.05078,1.23749,
-2.06451,1.23901,
-2.07367,1.23291,
-2.0874,1.23444,
-2.10114,1.23596,
-2.11029,1.24054,
-2.1225,1.23444,
-2.13776,1.22528,
-2.15302,1.23291,
-2.1698,1.23749,
-2.18658,1.23596,
-2.2049,1.23444,
-2.22168,1.22375,
-2.23236,1.22681,
-2.25067,1.23444,
-2.26746,1.23291,
-2.28424,1.22986,
-2.30103,1.22986,
-2.31781,1.22375,
-2.33612,1.23291,
-2.35291,1.23291,
-2.37427,1.22986,
-2.39258,1.22375,
-2.41241,1.22375,
-2.42462,1.22528,
-2.44751,1.22986,
-2.46429,1.22681,
-2.47955,1.2207,
-2.50092,1.22528,
-2.51923,1.22681,
-2.53601,1.22986,
-2.5528,1.22681,
-2.57111,1.21918,
-2.59399,1.22375,
-2.61536,1.22528,
-2.63367,1.22986,
-2.65656,1.22528,
-2.67487,1.2207,
-2.70233,1.21918,
-2.72369,1.2207,
-2.74048,1.22681,
-2.75574,1.22375,
-2.771,1.2146,
-2.79236,1.2146,
-2.80457,1.21918,
-2.81677,1.22681,
-2.83051,1.22223,
-2.84119,1.21155,
-2.85034,1.21765,
-2.86255,1.21918,
-2.87323,1.22223,
-2.88391,1.2207,
-2.89154,1.21613,
-2.90222,1.2146,
-2.91138,1.21613,
-2.92511,1.21765,
-2.93274,1.21765,
-2.93732,1.2146,
-2.94647,1.21155,
-2.95258,1.21613,
-2.96173,1.21765,
-2.96478,1.21765,
-2.96936,1.21307,
-2.97546,1.21155,
-2.98462,1.2146,
-2.9892,1.21613,
-2.9953,1.2146,
-3.00751,1.21002,
-3.01514,1.21155,
-3.02734,1.21155,
-3.0365,1.21765,
-3.0426,1.21918,
-3.05481,1.2085,
-3.06396,1.21002,
-3.06854,1.21155,
-3.07312,1.2146,
-3.08228,1.21155,
-3.0899,1.21307,
-3.0899,1.21307,
-3.10364,1.21307,
-3.10822,1.21155,
-3.11432,1.21155,
-3.11584,1.20544,
-3.11737,1.20697,
-3.11737,1.2085,
-3.11737,1.21307,
-3.12195,1.2085,
-3.125,1.20544,
-3.1311,1.20697,
-3.13263,1.2085,
-3.13416,1.21002,
-3.13416,1.21155,
-3.13873,1.20239,
-3.14331,1.20392,
-3.14941,1.21155,
-3.14941,1.20697,
-3.1601,1.2146,
-3.16772,1.20239,
-3.17841,1.20239,
-3.18451,1.20544,
-3.18909,1.20544,
-3.20129,1.20697,
-3.20892,1.20239,
-3.2196,1.20544,
-3.22571,1.20697,
-3.23029,1.2085,
-3.23639,1.2085,
-3.23639,1.20239,
-3.23944,1.20544,
-3.24097,1.20544,
-3.23486,1.20697,
-3.21808,1.2085,
-3.20282,1.20087,
-3.16925,1.20239,
-3.13873,1.20544,
-3.09601,1.20697,
-3.03802,1.2085,
-2.97394,1.19934,
-2.89917,1.20087,
-2.81677,1.2085,
-2.72827,1.20544,
-2.63214,1.2085,
-2.52686,1.19781,
-2.41547,1.20087,
-2.29492,1.20239,
-2.17285,1.20239,
-2.04773,1.20544,
-1.92413,1.19629,
-1.80054,1.19934,
-1.67542,1.20087,
-1.55792,1.20544,
-1.4328,1.20392,
-1.31683,1.19629,
-1.19781,1.19324,
-1.091,1.20087,
-0.993347,1.20392,
-0.900269,1.20392,
-0.810242,1.19629,
-0.732422,1.19629,
-0.65918,1.20239,
-0.593567,1.20392,
-0.537109,1.20239,
-0.486755,1.19171,
-0.437927,1.19324,
-0.402832,1.19781,
-0.367737,1.20544,
-0.334167,1.20239,
-0.317383,1.19324,
-0.296021,1.19171,
-0.280762,1.20239,
-0.270081,1.19934,
-0.268555,1.20087,
-0.270081,1.19171,
-0.271606,1.19171,
-0.280762,1.19781,
-0.291443,1.19934,
-0.30365,1.20087,
-0.318909,1.19324,
-0.340271,1.19019,
-0.358582,1.19934,
-0.379944,1.19629,
-0.39978,1.19781,
-0.424194,1.19019,
-0.45166,1.18866,
-0.479126,1.19934,
-0.509644,1.20087,
-0.538635,1.19629,
-0.57373,1.18713,
-0.601196,1.18713,
-0.634766,1.19781,
-0.666809,1.19781,
-0.704956,1.19324,
-0.738525,1.18866,
-0.778198,1.18866,
-0.814819,1.19629,
-0.85144,1.19629,
-0.883484,1.19781,
-0.921631,1.18713,
-0.961304,1.18256,
-0.994873,1.19324,
-1.02386,1.19019,
-1.05896,1.19171,
-1.08948,1.18561,
-1.12457,1.18408,
-1.15051,1.19781,
-1.17493,1.19019,
-1.20239,1.19324,
-1.22528,1.18408,
-1.24664,1.18561,
-1.26495,1.19629,
-1.28479,1.19019,
-1.297,1.19171,
-1.31226,1.18408,
-1.32294,1.18408,
-1.33057,1.19171,
-1.33972,1.18866,
-1.34583,1.19019,
-1.34735,1.18408,
-1.34888,1.18408,
-1.34583,1.19171,
-1.34583,1.18866,
-1.3443,1.19019,
-1.34277,1.18256,
-1.3382,1.18256,
-1.33667,1.19324,
-1.33057,1.18866,
-1.32751,1.19019,
-1.32294,1.18408,
-1.31989,1.1795,
-1.31683,1.19171,
-1.31073,1.18713,
-1.30615,1.19019,
-1.3031,1.18103,
-1.29852,1.18103,
-1.29242,1.18866,
-1.29547,1.18561,
-1.29395,1.18866,
-1.297,1.18103,
-1.297,1.18103,
-1.30157,1.18866,
-1.30463,1.18866,
-1.31226,1.19019,
-1.31836,1.18103,
-1.32599,1.17798,
-1.33362,1.19171,
-1.34277,1.18408,
-1.35193,1.18713,
-1.35651,1.18103,
-1.37024,1.1795,
-1.3855,1.18866,
-1.39618,1.18866,
-1.40839,1.18561,
-1.41907,1.1795,
-1.43585,1.17798,
-1.45111,1.18561,
-1.46179,1.18561,
-1.47552,1.18561,
-1.49231,1.17645,
-1.50604,1.17645,
-1.52435,1.18561,
-1.53809,1.18256,
-1.55945,1.18561,
-1.57318,1.17645,
-1.58691,1.17493,
-1.60217,1.18713,
-1.62354,1.18103,
-1.64337,1.18408,
-1.66016,1.17645,
-1.68152,1.17645,
-1.70593,1.18713,
-1.72729,1.18408,
-1.74713,1.18561,
-1.76697,1.1795,
-1.78528,1.17493,
-1.80969,1.18713,
-1.83105,1.18256,
-1.85242,1.18561,
-1.87225,1.17645,
-1.89362,1.17798,
-1.91193,1.18103,
-1.93176,1.18256,
-1.94702,1.18408,
-1.96533,1.17645,
-1.97906,1.17493,
-1.9928,1.18561,
-2.01263,1.18408,
-2.03094,1.18256,
-2.04315,1.17645,
-2.05688,1.17645,
-2.0752,1.18561,
-2.08282,1.18408,
-2.10114,1.18256,
-2.11182,1.1795,
-2.1225,1.17493,
-2.13776,1.18408,
-2.14844,1.18103,
-2.16217,1.18408,
-2.17285,1.17493,
-2.18201,1.17493,
-2.18964,1.18408,
-2.20337,1.18256,
-2.21863,1.18256,
-2.23083,1.1734,
-2.24304,1.1734,
-2.26288,1.18408,
-2.27966,1.18103,
-2.2934,1.18103,
-2.31323,1.17645,
-2.33002,1.17188,
-2.34375,1.18408,
-2.35748,1.18408,
-2.36969,1.18408,
-2.38342,1.17493,
-2.39258,1.17493,
-2.40479,1.18256,
-2.41547,1.1795,
-2.42462,1.18103,
-2.43073,1.1734,
-2.43683,1.17188,
-2.44293,1.18408,
-2.45056,1.17798,
-2.46124,1.1795,
-2.47192,1.17188,
-2.4826,1.1734,
-2.49481,1.18103,
-2.50549,1.17798,
-2.51617,1.17798,
-2.52533,1.17493,
-2.53448,1.1734,
-2.54211,1.18408,
-2.5528,1.18256,
-2.55432,1.17798,
-2.56195,1.1734,
-2.56653,1.1734,
-2.57263,1.18256,
-2.58026,1.1795,
-2.58942,1.17798,
-2.59552,1.17188,
-2.60162,1.1734,
-2.6062,1.18256,
-2.62146,1.17798,
-2.62756,1.17798,
-2.63824,1.17035,
-2.65045,1.17188,
-2.65961,1.18103,
-2.67334,1.1795,
-2.67334,1.17798,
-2.67944,1.1734,
-2.68402,1.17035,
-2.67944,1.18408,
-2.67181,1.1795,
-2.66266,1.17645,
-2.65045,1.17035,
-2.62451,1.17188,
-2.59857,1.1795,
-2.5589,1.18256,
-2.5116,1.18103,
-2.45209,1.17188,
-2.38647,1.17035,
-2.31476,1.1795,
-2.22321,1.1795,
-2.12402,1.17798,
-2.01874,1.17188,
-1.90887,1.17493,
-1.78986,1.17493,
-1.66779,1.18713,
-1.53503,1.1795,
-1.40533,1.17493,
-1.27411,1.17493,
-1.14441,1.18103,
-1.00861,1.18103,
-0.878906,1.18103,
-0.758362,1.17188,
-0.63324,1.17493,
-0.512695,1.1795,
-0.396729,1.18103,
-0.291443,1.17798,
-0.195313,1.17493,
-0.0930786,1.17493,
-0.00610352,1.18256,
0.0778198,1.18103,
0.152588,1.17798,
0.215149,1.1734,
0.273132,1.1734,
0.328064,1.18256,
0.370789,1.18103,
0.401306,1.17798,
0.431824,1.17493,
0.456238,1.17645,
0.471497,1.18256,
0.486755,1.18256,
0.495911,1.17798,
0.497437,1.17035,
0.492859,1.1734,
0.492859,1.18408,
0.483704,1.1795,
0.473022,1.17645,
0.457764,1.1734,
0.436401,1.1795,
0.416565,1.18408,
0.39978,1.18408,
0.370789,1.17798,
0.340271,1.17188,
0.311279,1.17645,
0.280762,1.18561,
0.253296,1.18408,
0.224304,1.17645,
0.189209,1.1734,
0.157166,1.17798,
0.12207,1.18561,
0.0869751,1.18561,
0.0549316,1.18256,
0.0228882,1.17188,
-0.012207,1.17798,
-0.0457764,1.18256,
-0.0839233,1.18561,
-0.125122,1.17798,
-0.161743,1.17493,
-0.198364,1.1795,
-0.228882,1.18408,
-0.271606,1.18866,
-0.300598,1.18103,
-0.332642,1.1795,
-0.367737,1.17798,
-0.395203,1.18408,
-0.428772,1.18561,
-0.456238,1.18256,
-0.488281,1.17798,
-0.509644,1.1795,
-0.534058,1.18713,
-0.559998,1.18866,
-0.572205,1.18408,
-0.588989,1.18256,
-0.604248,1.1795,
-0.613403,1.18713,
-0.624084,1.19019,
-0.627136,1.18408,
-0.62561,1.18103,
-0.628662,1.18103,
-0.628662,1.18561,
-0.628662,1.18866,
-0.628662,1.18561,
-0.622559,1.18256,
-0.616455,1.18256,
-0.611877,1.18561,
-0.605774,1.19324,
-0.59967,1.18561,
-0.595093,1.18256,
-0.592041,1.18408,
-0.588989,1.19019,
-0.585938,1.19324,
-0.579834,1.18256,
-0.578308,1.18561,
-0.578308,1.18256,
-0.57373,1.19171,
-0.575256,1.19629,
-0.578308,1.18866,
-0.579834,1.18713,
-0.582886,1.18713,
-0.588989,1.19019,
-0.595093,1.19629,
-0.598145,1.19324,
-0.595093,1.18713,
-0.601196,1.18713,
-0.6073,1.19171,
-0.613403,1.19934,
-0.62561,1.19019,
-0.631714,1.18561,
-0.642395,1.18561,
-0.653076,1.19171,
-0.666809,1.20087,
-0.67749,1.19324,
-0.692749,1.19019,
-0.706482,1.19324,
-0.717163,1.19781,
-0.72937,1.20239,
-0.746155,1.19629,
-0.762939,1.19019,
-0.782776,1.18713,
-0.804138,1.19629,
-0.827026,1.19934,
-0.846863,1.19629,
-0.868225,1.19324,
-0.888062,1.18866,
-0.909424,1.19934,
-0.930786,1.20392,
-0.947571,1.19934,
-0.967407,1.19324,
-0.987244,1.19171,
-1.00861,1.20392,
-1.02539,1.20697,
-1.04218,1.20087,
-1.06506,1.19781,
-1.08643,1.19781,
-1.11084,1.20087,
-1.12915,1.2085,
-1.15051,1.19781,
-1.17035,1.20239,
-1.19629,1.19934,
-1.21307,1.20697,
-1.23596,1.21155,
-1.2558,1.20392,
-1.27869,1.20544,
-1.297,1.19781,
-1.31836,1.20697,
-1.33362,1.21155,
-1.35498,1.20697,
-1.37787,1.20544,
-1.39313,1.20087,
-1.41754,1.21002,
-1.4389,1.21307,
-1.46027,1.20544,
-1.4801,1.20697,
-1.49689,1.20392,
-1.50757,1.21002,
-1.52283,1.21765,
-1.53961,1.20544,
-1.5564,1.20544,
-1.56555,1.20392,
-1.58081,1.21002,
-1.59302,1.21918,
-1.6037,1.2085,
-1.61285,1.2085,
-1.62506,1.20697,
-1.64337,1.2085,
-1.65863,1.21765,
-1.67084,1.21002,
-1.68304,1.2085,
-1.69983,1.20544,
-1.70898,1.21307,
-1.72424,1.22223,
-1.73492,1.21155,
-1.74866,1.21155,
-1.75781,1.21002,
-1.77002,1.21613,
-1.7807,1.2207,
-1.79291,1.21307,
-1.80359,1.21307,
-1.81274,1.21002,
-1.81732,1.2207,
-1.828,1.22223,
-1.84021,1.21613,
-1.85089,1.21307,
-1.86005,1.21155,
-1.86615,1.21918,
-1.87378,1.22375,
-1.88293,1.2146,
-1.89362,1.21613,
-1.9043,1.21307,
-1.91803,1.21765,
-1.92871,1.22528,
-1.93787,1.21765,
-1.95465,1.2146,
-1.96838,1.2146,
-1.98212,1.21918,
-1.99738,1.22528,
-2.00958,1.2207,
-2.02179,1.21765,
-2.03705,1.21613,
-2.0462,1.22375,
-2.05841,1.22986,
-2.0752,1.21918,
-2.09045,1.21918,
-2.09351,1.2146,
-2.10266,1.22223,
-2.11029,1.23138,
-2.11487,1.21918,
-2.11639,1.21765,
-2.10876,1.2207,
-2.09198,1.22528,
-2.07367,1.22986,
-2.0462,1.2207,
-2.01111,1.22528,
-1.96838,1.21765,
-1.91193,1.22528,
-1.84631,1.23749,
-1.77155,1.22986,
-1.69067,1.21918,
-1.5976,1.2207,
-1.49536,1.22986,
-1.39008,1.23749,
-1.27869,1.22986,
-1.15967,1.22223,
-1.03912,1.21918,
-0.917053,1.23291,
-0.793457,1.23749,
-0.669861,1.23138,
-0.552368,1.22375,
-0.43335,1.2207,
-0.318909,1.23138,
-0.209045,1.23901,
-0.100708,1.23291,
0.00152588,1.22681,
0.088501,1.22528,
0.177002,1.22986,
0.253296,1.23901,
0.325012,1.23138,
0.389099,1.23138,
0.442505,1.22528,
0.494385,1.23291,
0.535583,1.24054,
0.567627,1.23749,
0.598145,1.22681,
0.621033,1.22681,
0.636292,1.23291,
0.645447,1.24207,
0.65155,1.23596,
0.650024,1.23291,
0.645447,1.22986,
0.636292,1.23596,
0.619507,1.24054,
0.604248,1.23444,
0.584412,1.23291,
0.563049,1.22986,
0.538635,1.23749,
0.506592,1.24054,
0.474548,1.23291,
0.444031,1.23291,
