-3.08228,0.631714,
-3.08228,0.675964,
-3.08228,0.645447,
-3.0838,0.604248,
-3.08838,0.613403,
-3.0899,0.640869,
-3.09601,0.671387,
-3.09753,0.650024,
-3.10364,0.601196,
-3.10974,0.608826,
-3.11584,0.637817,
-3.12347,0.680542,
-3.13263,0.650024,
-3.13721,0.601196,
-3.14636,0.617981,
-3.15247,0.646973,
-3.15399,0.674438,
-3.1601,0.648499,
-3.16162,0.576782,
-3.16772,0.616455,
-3.17078,0.624084,
-3.17841,0.679016,
-3.18146,0.65155,
-3.18604,0.59967,
-3.19061,0.613403,
-3.19366,0.643921,
-3.19672,0.682068,
-3.20129,0.65155,
-3.20587,0.601196,
-3.21503,0.616455,
-3.21503,0.642395,
-3.22266,0.67749,
-3.22571,0.650024,
-3.23486,0.605774,
-3.24097,0.613403,
-3.24554,0.65155,
-3.2486,0.679016,
-3.25928,0.654602,
-3.26233,0.601196,
-3.26538,0.619507,
-3.26538,0.645447,
-3.26996,0.682068,
-3.27148,0.65155,
-3.27911,0.601196,
-3.28064,0.6073,
-3.28522,0.642395,
-3.28522,0.674438,
-3.29285,0.65918,
-3.29437,0.601196,
-3.302,0.611877,
-3.30811,0.646973,
-3.30963,0.675964,
-3.31573,0.653076,
-3.31573,0.593567,
-3.32336,0.588989,
-3.32184,0.645447,
-3.32794,0.67749,
-3.32794,0.657654,
-3.32947,0.608826,
-3.33405,0.611877,
-3.33405,0.691223,
-3.34015,0.672913,
-3.34015,0.653076,
-3.34473,0.608826,
-3.34625,0.608826,
-3.34778,0.646973,
-3.35083,0.679016,
-3.35388,0.675964,
-3.35693,0.604248,
-3.36456,0.614929,
-3.37372,0.643921,
-3.37677,0.67749,
-3.3783,0.656128,
-3.38287,0.605774,
-3.3905,0.611877,
-3.39661,0.628662,
-3.39661,0.675964,
-3.40271,0.656128,
-3.40729,0.6073,
-3.41034,0.605774,
-3.41034,0.643921,
-3.41339,0.682068,
-3.42102,0.656128,
-3.41797,0.608826,
-3.41949,0.608826,
-3.4256,0.648499,
-3.42255,0.67749,
-3.41797,0.656128,
-3.41644,0.6073,
-3.40576,0.608826,
-3.39966,0.656128,
-3.38593,0.675964,
-3.3783,0.65918,
-3.36456,0.605774,
-3.35388,0.610352,
-3.3371,0.654602,
-3.32184,0.675964,
-3.30505,0.656128,
-3.29285,0.608826,
-3.28217,0.610352,
-3.26996,0.646973,
-3.25775,0.682068,
-3.24707,0.656128,
-3.23639,0.608826,
-3.22571,0.608826,
-3.21198,0.65155,
-3.20587,0.657654,
-3.19214,0.660706,
-3.18604,0.6073,
-3.17688,0.611877,
-3.17383,0.648499,
-3.16772,0.675964,
-3.1601,0.65918,
-3.16162,0.616455,
-3.15857,0.610352,
-3.15704,0.650024,
-3.15247,0.679016,
-3.14941,0.656128,
-3.14941,0.608826,
-3.15399,0.62561,
-3.15399,0.654602,
-3.15704,0.67749,
-3.15704,0.65918,
-3.15857,0.613403,
-3.16162,0.608826,
-3.16162,0.65155,
-3.16467,0.666809,
-3.16772,0.65918,
-3.1723,0.610352,
-3.17535,0.613403,
-3.17535,0.646973,
-3.17688,0.67749,
-3.18451,0.665283,
-3.18298,0.608826,
-3.18451,0.611877,
-3.19061,0.646973,
-3.19366,0.680542,
-3.19672,0.665283,
-3.20282,0.611877,
-3.20892,0.611877,
-3.21045,0.645447,
-3.21198,0.683594,
-3.21655,0.660706,
-3.22113,0.613403,
-3.22571,0.6073,
-3.23486,0.650024,
-3.23486,0.679016,
-3.24097,0.665283,
-3.24554,0.611877,
-3.25165,0.621033,
-3.25775,0.648499,
-3.26233,0.682068,
-3.26843,0.650024,
-3.27301,0.613403,
-3.27759,0.610352,
-3.28217,0.653076,
-3.28979,0.675964,
-3.29437,0.660706,
-3.29742,0.614929,
-3.2959,0.6073,
-3.29742,0.65155,
-3.302,0.679016,
-3.29895,0.662231,
-3.302,0.613403,
-3.29437,0.610352,
-3.2959,0.65155,
-3.29437,0.679016,
-3.2959,0.668335,
-3.29132,0.614929,
-3.28827,0.610352,
-3.28979,0.654602,
-3.28979,0.679016,
-3.28979,0.671387,
-3.28827,0.614929,
-3.29285,0.614929,
-3.28979,0.648499,
-3.28979,0.67749,
-3.28827,0.671387,
-3.28979,0.601196,
-3.2959,0.610352,
-3.28979,0.648499,
-3.28979,0.67749,
-3.29132,0.662231,
-3.29285,0.616455,
-3.29285,0.613403,
-3.29742,0.648499,
-3.30353,0.679016,
-3.30658,0.666809,
-3.31421,0.619507,
-3.31879,0.610352,
-3.32336,0.650024,
-3.32642,0.679016,
-3.32947,0.668335,
-3.33099,0.611877,
-3.33405,0.613403,
-3.33405,0.650024,
-3.33862,0.680542,
-3.3432,0.662231,
-3.34625,0.616455,
-3.35083,0.611877,
-3.35388,0.650024,
-3.35388,0.679016,
-3.35388,0.665283,
-3.35693,0.616455,
-3.36304,0.608826,
-3.36609,0.645447,
-3.37219,0.680542,
-3.37677,0.668335,
-3.38135,0.619507,
-3.3905,0.614929,
-3.39203,0.653076,
-3.39966,0.680542,
-3.40729,0.672913,
-3.41034,0.602722,
-3.41492,0.613403,
-3.41492,0.646973,
-3.42255,0.674438,
-3.42407,0.666809,
-3.42255,0.621033,
-3.4256,0.613403,
-3.42865,0.654602,
-3.43018,0.680542,
-3.43628,0.634766,
-3.43628,0.622559,
-3.44086,0.611877,
-3.44543,0.648499,
-3.44696,0.679016,
-3.45154,0.668335,
-3.45459,0.604248,
-3.45917,0.63324,
-3.4668,0.666809,
-3.46527,0.675964,
-3.47595,0.666809,
-3.479,0.622559,
-3.48358,0.613403,
-3.48969,0.654602,
-3.48816,0.675964,
-3.49274,0.665283,
-3.49579,0.621033,
-3.50037,0.611877,
-3.50189,0.646973,
-3.50189,0.674438,
-3.50342,0.665283,
-3.50952,0.622559,
-3.50494,0.608826,
-3.51105,0.666809,
-3.50952,0.68512,
-3.51105,0.666809,
-3.51715,0.622559,
-3.51868,0.611877,
-3.52325,0.648499,
-3.52783,0.675964,
-3.53088,0.665283,
-3.53241,0.62561,
-3.53851,0.6073,
-3.54767,0.656128,
-3.55072,0.674438,
-3.5553,0.668335,
-3.55988,0.628662,
-3.56445,0.610352,
-3.5675,0.650024,
-3.57056,0.67749,
-3.57208,0.668335,
-3.57513,0.624084,
-3.58276,0.610352,
-3.58582,0.650024,
-3.59039,0.674438,
-3.58887,0.668335,
-3.5965,0.627136,
-3.60107,0.611877,
-3.60107,0.650024,
-3.60565,0.675964,
-3.61328,0.671387,
-3.61938,0.639343,
-3.62396,0.616455,
-3.62701,0.65155,
-3.63007,0.679016,
-3.63464,0.668335,
-3.63464,0.627136,
-3.63922,0.611877,
-3.63922,0.65155,
-3.64685,0.662231,
-3.6499,0.669861,
-3.64838,0.628662,
-3.65295,0.613403,
-3.65601,0.654602,
-3.66058,0.679016,
-3.66669,0.666809,
-3.67432,0.616455,
-3.67584,0.613403,
-3.68042,0.654602,
-3.68347,0.675964,
-3.685,0.666809,
-3.68958,0.627136,
-3.68805,0.611877,
-3.68652,0.65155,
-3.685,0.674438,
-3.68195,0.660706,
-3.68042,0.62561,
-3.67279,0.613403,
-3.66669,0.654602,
-3.65906,0.674438,
-3.6499,0.665283,
-3.63464,0.63324,
-3.62549,0.613403,
-3.61786,0.653076,
-3.59955,0.668335,
-3.58582,0.666809,
-3.56903,0.628662,
-3.55682,0.613403,
-3.54309,0.65155,
-3.52783,0.674438,
-3.51105,0.662231,
-3.49579,0.668335,
-3.48816,0.614929,
-3.47443,0.650024,
-3.46069,0.672913,
-3.45459,0.668335,
-3.44696,0.628662,
-3.43323,0.614929,
-3.42865,0.65155,
-3.4256,0.672913,
-3.41797,0.662231,
-3.41492,0.643921,
-3.41034,0.614929,
-3.41034,0.653076,
-3.41034,0.672913,
-3.40271,0.666809,
-3.40118,0.631714,
-3.40118,0.616455,
-3.39966,0.656128,
-3.39661,0.668335,
-3.39508,0.665283,
-3.39203,0.627136,
-3.39661,0.616455,
-3.39508,0.65155,
-3.39661,0.675964,
-3.39813,0.65918,
-3.40576,0.628662,
-3.41034,0.616455,
-3.41492,0.653076,
-3.42102,0.668335,
-3.4256,0.660706,
-3.42865,0.65155,
-3.4317,0.640869,
-3.44086,0.636292,
-3.44238,0.669861,
-3.45001,0.662231,
-3.44849,0.627136,
-3.45612,0.616455,
-3.45306,0.653076,
-3.45764,0.675964,
-3.45917,0.662231,
-3.46069,0.62561,
-3.46527,0.619507,
-3.47595,0.65155,
-3.479,0.669861,
-3.479,0.65918,
-3.48206,0.637817,
-3.48053,0.611877,
-3.48511,0.648499,
-3.48816,0.669861,
-3.48969,0.660706,
-3.49579,0.636292,
-3.50037,0.614929,
-3.51257,0.648499,
-3.52631,0.671387,
-3.54309,0.65918,
-3.56445,0.636292,
-3.58734,0.611877,
-3.61176,0.65155,
-3.63312,0.671387,
-3.65448,0.665283,
-3.68347,0.628662,
-3.70636,0.621033,
-3.73077,0.645447,
-3.75519,0.671387,
-3.77655,0.662231,
-3.80249,0.637817,
-3.82538,0.614929,
-3.84521,0.65155,
-3.86658,0.674438,
-3.88184,0.660706,
-3.90472,0.637817,
-3.91693,0.614929,
-3.93524,0.65155,
-3.94745,0.672913,
-3.95813,0.65918,
-3.96881,0.637817,
-3.97949,0.619507,
-3.99017,0.636292,
-4.00238,0.67749,
-4.01154,0.660706,
-4.01764,0.640869,
-4.02985,0.616455,
-4.039,0.65155,
-4.04663,0.68512,
-4.05273,0.65918,
-4.06342,0.643921,
-4.07104,0.619507,
-4.07562,0.654602,
-4.08478,0.671387,
-4.09546,0.660706,
-4.10156,0.643921,
-4.10614,0.614929,
-4.1153,0.65155,
-4.11987,0.679016,
-4.1214,0.65918,
-4.12903,0.616455,
-4.13666,0.602722,
-4.14124,0.646973,
-4.14429,0.672913,
-4.14734,0.665283,
-4.14886,0.631714,
-4.15344,0.622559,
-4.15344,0.672913,
-4.15497,0.669861,
-4.16565,0.654602,
-4.16718,0.639343,
-4.17023,0.617981,
-4.17175,0.650024,
-4.17023,0.669861,
-4.17175,0.65918,
-4.1748,0.636292,
-4.17938,0.617981,
-4.17938,0.653076,
-4.18243,0.666809,
-4.18091,0.657654,
-4.18243,0.639343,
-4.18549,0.619507,
-4.18854,0.650024,
-4.19159,0.671387,
-4.19159,0.656128,
-4.19617,0.636292,
-4.2038,0.617981,
-4.20227,0.648499,
-4.20227,0.671387,
-4.20074,0.654602,
-4.20532,0.639343,
-4.2099,0.619507,
-4.21295,0.646973,
-4.21753,0.666809,
-4.216,0.656128,
-4.22211,0.639343,
-4.21906,0.617981,
-4.22211,0.656128,
-4.216,0.668335,
-4.21906,0.65918,
-4.216,0.63324,
-4.22058,0.616455,
-4.22058,0.65155,
-4.22058,0.669861,
-4.21753,0.65155,
-4.22211,0.63324,
-4.21906,0.614929,
-4.22211,0.643921,
-4.22211,0.671387,
-4.21753,0.654602,
-4.22058,0.634766,
-4.21753,0.610352,
-4.21448,0.645447,
-4.21753,0.666809,
-4.216,0.656128,
-4.21295,0.63324,
-4.21143,0.613403,
-4.21143,0.643921,
-4.21448,0.666809,
-4.216,0.656128,
-4.216,0.636292,
-4.216,0.614929,
-4.21753,0.643921,
-4.216,0.668335,
-4.216,0.657654,
-4.21906,0.637817,
-4.22363,0.619507,
-4.22516,0.640869,
-4.22821,0.668335,
-4.23737,0.65918,
-4.24042,0.640869,
-4.24652,0.616455,
-4.24957,0.656128,
-4.2511,0.668335,
-4.25415,0.65918,
-4.25415,0.640869,
-4.25873,0.616455,
-4.26025,0.643921,
-4.26025,0.668335,
-4.26483,0.65918,
-4.26636,0.640869,
-4.26483,0.619507,
-4.26178,0.646973,
-4.26788,0.674438,
-4.26788,0.656128,
-4.26941,0.639343,
-4.27551,0.619507,
-4.28009,0.640869,
-4.28009,0.669861,
-4.28162,0.657654,
-4.28467,0.637817,
-4.28162,0.619507,
-4.28314,0.640869,
-4.28467,0.665283,
-4.28619,0.657654,
-4.28925,0.639343,
-4.2923,0.621033,
-4.29382,0.639343,
-4.29535,0.665283,
-4.29382,0.669861,
-4.29535,0.646973,
-4.30145,0.621033,
-4.30298,0.640869,
-4.3045,0.668335,
-4.3045,0.65918,
-4.3045,0.648499,
-4.3045,0.587463,
-4.3045,0.645447,
-4.30603,0.666809,
-4.3045,0.660706,
-4.3045,0.639343,
-4.30756,0.619507,
-4.31366,0.637817,
-4.31519,0.672913,
-4.31519,0.653076,
-4.32281,0.640869,
-4.32587,0.617981,
-4.32587,0.637817,
-4.32587,0.675964,
-4.32587,0.645447,
-4.32281,0.689697,
-4.32129,0.619507,
-4.31519,0.648499,
-4.30756,0.665283,
-4.2923,0.665283,
-4.28009,0.636292,
-4.27094,0.621033,
-4.25262,0.640869,
-4.23889,0.718689,
-4.22058,0.65155,
-4.20227,0.639343,
-4.18396,0.622559,
-4.16718,0.639343,
-4.14429,0.666809,
-4.1275,0.65918,
-4.10919,0.640869,
-4.09546,0.619507,
-4.07715,0.639343,
-4.06342,0.668335,
-4.04663,0.660706,
-4.02985,0.637817,
-4.01611,0.622559,
-4.00085,0.639343,
-3.9856,0.671387,
-3.97186,0.666809,
-3.95813,0.639343,
-3.95203,0.619507,
-3.94135,0.639343,
-3.93219,0.669861,
-3.92761,0.662231,
-3.91693,0.639343,
-3.90778,0.622559,
-3.9032,0.63324,
-3.89404,0.671387,
-3.89252,0.666809,
-3.88794,0.628662,
-3.88336,0.617981,
-3.88031,0.637817,
-3.87726,0.669861,
-3.87115,0.662231,
-3.8681,0.639343,
-3.86658,0.619507,
-3.86505,0.639343,
-3.87421,0.668335,
-3.87268,0.668335,
-3.88336,0.628662,
-3.88031,0.62561,
-3.88031,0.636292,
-3.87878,0.671387,
-3.87878,0.666809,
-3.88184,0.642395,
-3.88794,0.636292,
-3.88641,0.643921,
-3.89099,0.672913,
-3.89404,0.662231,
-3.90015,0.637817,
-3.90015,0.611877,
-3.90625,0.636292,
-3.91083,0.665283,
-3.91388,0.669861,
-3.91693,0.637817,
-3.92151,0.622559,
-3.92456,0.637817,
-3.93219,0.668335,
-3.93372,0.665283,
-3.93982,0.62561,
-3.93829,0.621033,
-3.93982,0.63324,
-3.94135,0.668335,
-3.94592,0.665283,
-3.94897,0.639343,
-3.94897,0.621033,
-3.94745,0.63324,
-3.9444,0.666809,
-3.94287,0.665283,
-3.94135,0.637817,
-3.93372,0.621033,
-3.93524,0.636292,
-3.93524,0.668335,
-3.93066,0.67749,
-3.92914,0.645447,
-3.93066,0.654602,
-3.92609,0.63324,
-3.92609,0.668335,
-3.92609,0.669861,
-3.92303,0.639343,
-3.91693,0.622559,
-3.91693,0.657654,
-3.91541,0.666809,
-3.9093,0.669861,
-3.90778,0.640869,
-3.90778,0.622559,
-3.90472,0.631714,
-3.89862,0.668335,
-3.89404,0.669861,
-3.89252,0.640869,
-3.89252,0.621033,
-3.89099,0.63324,
-3.88794,0.669861,
-3.88336,0.671387,
-3.88336,0.634766,
-3.88641,0.621033,
-3.88336,0.634766,
-3.88794,0.672913,
-3.88336,0.669861,
-3.87878,0.639343,
-3.88641,0.622559,
-3.88641,0.63324,
-3.88947,0.671387,
-3.89404,0.662231,
-3.89252,0.640869,
-3.89862,0.622559,
-3.90167,0.63324,
-3.90778,0.671387,
-3.90625,0.669861,
-3.90778,0.622559,
-3.9093,0.627136,
-3.91235,0.631714,
-3.92151,0.648499,
-3.92456,0.666809,
-3.92914,0.643921,
-3.93219,0.622559,
-3.93829,0.628662,
-3.93829,0.674438,
-3.94287,0.669861,
-3.94745,0.621033,
-3.9505,0.622559,
-3.95508,0.63324,
-3.9566,0.674438,
-3.95966,0.669861,
-3.96271,0.642395,
-3.96576,0.621033,
-3.97491,0.634766,
-3.98102,0.674438,
-3.98254,0.666809,
-3.99323,0.640869,
-3.9978,0.621033,
-4.00391,0.634766,
-4.00696,0.672913,
-4.01306,0.672913,
-4.01611,0.639343,
-4.02679,0.622559,
-4.0329,0.637817,
-4.03748,0.674438,
-4.04358,0.683594,
-4.05121,0.640869,
-4.06036,0.631714,
-4.06494,0.63324,
-4.06647,0.669861,
-4.07257,0.672913,
-4.08173,0.639343,
-4.08478,0.62561,
-4.0863,0.634766,
-4.08783,0.669861,
-4.09241,0.672913,
-4.09393,0.639343,
-4.09851,0.622559,
-4.09851,0.63324,
-4.10309,0.666809,
-4.10156,0.672913,
-4.10309,0.640869,
-4.10614,0.62561,
-4.10767,0.63324,
-4.10919,0.672913,
-4.1153,0.65918,
-4.1153,0.643921,
-4.11835,0.62561,
-4.12292,0.63324,
-4.1275,0.671387,
-4.12903,0.675964,
-4.13208,0.642395,
-4.13055,0.622559,
-4.13666,0.63324,
-4.13513,0.674438,
-4.13513,0.674438,
-4.13666,0.639343,
-4.14124,0.622559,
-4.14276,0.63324,
-4.14734,0.675964,
-4.14734,0.671387,
-4.15497,0.643921,
-4.15497,0.622559,
-4.15802,0.634766,
-4.15802,0.672913,
-4.1626,0.67749,
-4.16412,0.643921,
-4.1687,0.62561,
-4.16718,0.628662,
-4.16565,0.679016,
-4.16718,0.67749,
-4.1687,0.643921,
-4.1687,0.628662,
-4.17023,0.634766,
-4.1687,0.674438,
-4.16565,0.675964,
-4.16565,0.648499,
-4.15955,0.637817,
-4.1626,0.628662,
-4.15955,0.727844,
-4.15649,0.666809,
-4.15344,0.646973,
-4.15344,0.624084,
-4.15497,0.63324,
-4.15192,0.671387,
-4.15497,0.67749,
-4.15497,0.645447,
-4.15955,0.627136,
-4.15955,0.619507,
-4.16412,0.674438,
-4.16412,0.67749,
-4.16565,0.645447,
-4.16718,0.622559,
-4.17023,0.634766,
-4.17175,0.672913,
-4.17175,0.674438,
-4.17633,0.643921,
-4.18091,0.622559,
-4.18549,0.639343,
-4.18854,0.675964,
-4.18549,0.675964,
-4.19006,0.646973,
-4.19159,0.62561,
-4.19006,0.631714,
-4.18854,0.672913,
-4.18549,0.679016,
-4.18396,0.648499,
-4.17786,0.624084,
-4.17328,0.63324,
-4.1626,0.675964,
-4.15192,0.679016,
-4.14124,0.650024,
-4.1275,0.622559,
-4.11224,0.636292,
-4.09851,0.671387,
-4.0802,0.675964,
-4.06342,0.648499,
-4.04816,0.622559,
-4.0329,0.639343,
-4.01306,0.674438,
-4.00085,0.679016,
-3.98712,0.65155,
-3.97491,0.624084,
-3.96576,0.639343,
-3.95203,0.674438,
-3.9444,0.67749,
-3.93524,0.648499,
-3.93219,0.621033,
-3.92761,0.634766,
-3.92151,0.675964,
-3.91693,0.679016,
-3.91388,0.650024,
-3.91388,0.622559,
-3.91541,0.640869,
-3.91541,0.675964,
-3.91541,0.679016,
-3.91388,0.646973,
-3.91388,0.62561,
-3.9093,0.639343,
-3.91083,0.680542,
-3.9093,0.680542,
-3.9093,0.646973,
-3.91235,0.624084,
-3.91083,0.639343,
-3.9093,0.679016,
-3.91083,0.679016,
-3.91083,0.648499,
-3.91235,0.62561,
-3.91541,0.639343,
-3.91541,0.666809,
-3.91541,0.683594,
-3.91235,0.650024,
-3.91693,0.622559,
-3.92456,0.639343,
-3.92609,0.675964,
-3.92914,0.679016,
-3.93219,0.650024,
-3.93677,0.622559,
-3.94135,0.636292,
-3.9444,0.67749,
-3.94592,0.68512,
-3.94897,0.650024,
-3.9566,0.622559,
-3.96271,0.636292,
-3.96271,0.67749,
-3.96729,0.682068,
-3.97186,0.648499,
-3.97186,0.62561,
-3.98102,0.636292,
-3.98254,0.674438,
-3.98712,0.679016,
-3.98712,0.650024,
-3.9856,0.624084,
-3.98407,0.646973,
-3.9856,0.679016,
-3.98407,0.683594,
-3.98407,0.650024,
-3.9856,0.624084,
-3.97949,0.637817,
-3.97949,0.695801,
-3.97339,0.680542,
-3.97034,0.662231,
-3.97339,0.624084,
-3.96729,0.639343,
-3.96423,0.680542,
-3.96423,0.682068,
-3.96118,0.653076,
-3.95813,0.621033,
-3.95966,0.639343,
-3.95966,0.67749,
-3.95508,0.680542,
-3.9505,0.653076,
-3.9505,0.622559,
-3.95203,0.639343,
-3.94287,0.675964,
-3.9444,0.683594,
-3.9444,0.654602,
-3.94287,0.621033,
-3.93829,0.636292,
-3.93677,0.674438,
-3.93524,0.692749,
-3.93982,0.65918,
-3.93677,0.624084,
-3.93982,0.639343,
-3.93982,0.680542,
-3.94135,0.680542,
-3.9444,0.650024,
-3.9444,0.619507,
-3.93982,0.634766,
-3.94592,0.679016,
-3.9444,0.680542,
-3.9505,0.653076,
-3.95813,0.622559,
-3.9566,0.637817,
-3.95813,0.679016,
-3.9566,0.686646,
-3.96271,0.653076,
-3.97186,0.622559,
-3.97644,0.640869,
-3.98254,0.680542,
-3.99017,0.682068,
-3.99323,0.653076,
-3.99475,0.624084,
-4.00085,0.636292,
-3.99933,0.67749,
-4.00696,0.67749,
-4.01611,0.653076,
-4.01917,0.62561,
-4.02527,0.637817,
-4.02985,0.67749,
-4.0329,0.682068,
-4.03595,0.648499,
-4.04205,0.621033,
-4.04663,0.646973,
-4.04968,0.662231,
-4.04968,0.680542,
-4.05426,0.653076,
-4.06342,0.617981,
-4.06189,0.639343,
-4.06494,0.672913,
-4.06799,0.682068,
-4.07257,0.656128,
-4.07104,0.611877,
-4.07562,0.636292,
-4.07867,0.672913,
-4.08325,0.682068,
-4.08173,0.65155,
-4.08783,0.622559,
-4.08783,0.639343,
-4.08936,0.679016,
-4.09546,0.691223,
-4.09546,0.653076,
-4.10004,0.62561,
-4.10156,0.640869,
-4.10614,0.680542,
-4.10614,0.679016,
-4.10919,0.650024,
-4.11224,0.62561,
-4.11377,0.639343,
-4.11835,0.680542,
-4.1214,0.68512,
-4.1214,0.656128,
-4.1214,0.631714,
-4.1214,0.631714,
-4.12292,0.679016,
-4.1275,0.683594,
-4.12903,0.65155,
-4.1275,0.619507,
-4.13055,0.640869,
-4.13361,0.682068,
-4.13666,0.683594,
-4.13513,0.650024,
-4.13361,0.619507,
-4.13361,0.643921,
-4.13666,0.682068,
-4.13971,0.683594,
-4.13818,0.65155,
-4.13818,0.62561,
-4.14124,0.640869,
-4.14429,0.682068,
-4.15039,0.683594,
-4.15192,0.653076,
-4.15497,0.624084,
-4.15192,0.642395,
-4.15497,0.679016,
-4.15497,0.680542,
-4.15802,0.648499,
-4.1626,0.680542,
-4.16718,0.642395,
-4.16718,0.679016,
-4.16412,0.680542,
-4.17023,0.650024,
-4.17023,0.608826,
-4.17328,0.646973,
-4.17633,0.679016,
-4.17633,0.682068,
-4.17938,0.648499,
-4.18243,0.62561,
-4.18243,0.643921,
-4.18854,0.682068,
-4.19006,0.691223,
-4.19159,0.65155,
-4.19159,0.62561,
-4.19617,0.645447,
-4.19769,0.683594,
-4.19922,0.682068,
-4.19922,0.65155,
-4.20074,0.627136,
-4.19922,0.646973,
-4.20074,0.682068,
-4.19922,0.680542,
-4.20074,0.648499,
-4.2038,0.622559,
-4.2038,0.648499,
-4.2038,0.679016,
-4.20074,0.68512,
-4.19769,0.646973,
-4.18854,0.622559,
-4.18091,0.648499,
-4.17175,0.683594,
-4.1626,0.683594,
-4.15192,0.650024,
-4.14276,0.627136,
-4.13055,0.653076,
-4.1153,0.682068,
-4.10156,0.688171,
-4.08478,0.648499,
-4.06952,0.621033,
-4.05579,0.642395,
-4.039,0.660706,
-4.02069,0.67749,
-4.00696,0.648499,
-3.9917,0.627136,
-3.97644,0.648499,
-3.96271,0.68512,
-3.94897,0.679016,
-3.93829,0.650024,
-3.92761,0.622559,
-3.92456,0.646973,
-3.91235,0.682068,
-3.9032,0.680542,
-3.89862,0.650024,
-3.89404,0.62561,
-3.88947,0.648499,
-3.88031,0.675964,
-3.87573,0.683594,
-3.86963,0.640869,
-3.86963,0.627136,
-3.86353,0.657654,
-3.86047,0.682068,
-3.85742,0.686646,
-3.8559,0.646973,
-3.85437,0.617981,
-3.84827,0.695801,
-3.84369,0.674438,
-3.84369,0.683594,
-3.83911,0.640869,
-3.83606,0.631714,
-3.83301,0.650024,
-3.83301,0.67749,
-3.83148,0.679016,
-3.83301,0.627136,
-3.83606,0.621033,
-3.83453,0.650024,
-3.83606,0.67749,
-3.83606,0.680542,
-3.83606,0.653076,
-3.83759,0.619507,
-3.84827,0.653076,
-3.84979,0.683594,
-3.85895,0.665283,
-3.86353,0.65155,
-3.8681,0.622559,
-3.8681,0.650024,
-3.87115,0.680542,
-3.87115,0.682068,
-3.87115,0.643921,
-3.87573,0.621033,
-3.87573,0.648499,
-3.87421,0.686646,
-3.87573,0.680542,
-3.87726,0.648499,
-3.88031,0.622559,
-3.88336,0.646973,
-3.88641,0.682068,
-3.88641,0.682068,
-3.88031,0.65155,
-3.88947,0.619507,
-3.88641,0.648499,
-3.88336,0.683594,
-3.88336,0.680542,
-3.88794,0.645447,
-3.88794,0.621033,
-3.88031,0.648499,
-3.88031,0.668335,
-3.88031,0.680542,
-3.88031,0.656128,
-3.88336,0.604248,
-3.87726,0.65155,
-3.87726,0.688171,
-3.87573,0.683594,
-3.87421,0.646973,
-3.87268,0.608826,
-3.8681,0.62561,
-3.86963,0.683594,
-3.86658,0.682068,
-3.862,0.643921,
-3.85895,0.619507,
-3.8559,0.648499,
-3.8559,0.672913,
-3.85284,0.666809,
-3.85437,0.646973,
-3.8559,0.617981,
-3.84979,0.648499,
-3.84827,0.67749,
-3.84674,0.680542,
-3.84979,0.643921,
-3.85437,0.617981,
-3.84674,0.65155,
-3.84064,0.675964,
-3.84216,0.679016,
-3.84369,0.643921,
-3.84216,0.622559,
-3.84674,0.650024,
-3.84979,0.675964,
-3.84979,0.682068,
-3.85437,0.646973,
-3.85742,0.617981,
-3.85895,0.654602,
-3.86353,0.675964,
-3.86658,0.679016,
-3.86658,0.642395,
-3.87573,0.614929,
-3.87268,0.642395,
-3.87421,0.653076,
-3.87573,0.679016,
-3.87421,0.645447,
-3.87115,0.619507,
-3.87421,0.657654,
-3.87421,0.683594,
-3.87421,0.660706,
-3.87573,0.645447,
-3.87878,0.616455,
-3.88031,0.657654,
-3.87878,0.68512,
-3.88184,0.675964,
-3.87878,0.643921,
-3.87878,0.614929,
-3.88184,0.657654,
-3.88031,0.682068,
-3.88031,0.675964,
-3.88184,0.645447,
-3.88336,0.617981,
-3.88184,0.654602,
-3.88336,0.683594,
-3.88641,0.682068,
-3.89252,0.640869,
-3.89252,0.604248,
-3.89252,0.653076,
-3.89709,0.683594,
-3.89557,0.679016,
-3.89862,0.646973,
-3.89862,0.616455,
-3.89709,0.653076,
-3.89862,0.674438,
-3.89862,0.688171,
-3.89709,0.640869,
-3.89252,0.614929,
-3.89252,0.648499,
-3.89252,0.67749,
-3.89404,0.675964,
-3.89252,0.639343,
-3.88794,0.613403,
-3.88947,0.645447,
-3.88641,0.679016,
-3.88031,0.679016,
-3.87878,0.637817,
-3.87878,0.611877,
-3.87726,0.646973,
-3.88031,0.671387,
-3.87878,0.660706,
-3.87878,0.640869,
-3.88031,0.611877,
-3.88031,0.642395,
-3.88336,0.668335,
-3.88184,0.679016,
-3.88641,0.639343,
-3.88794,0.634766,
-3.88947,0.643921,
-3.89252,0.675964,
-3.89709,0.668335,
-3.89709,0.639343,
-3.89862,0.616455,
-3.9032,0.646973,
-3.90015,0.669861,
-3.9032,0.680542,
-3.90472,0.643921,
-3.9093,0.601196,
-3.91083,0.640869,
-3.91541,0.675964,
-3.91541,0.674438,
-3.91846,0.640869,
-3.92151,0.611877,
-3.92151,0.640869,
-3.91846,0.679016,
-3.92151,0.683594,
-3.91846,0.648499,
-3.91846,0.613403,
-3.92151,0.639343,
-3.92914,0.679016,
-3.92914,0.679016,
-3.92914,0.637817,
-3.92914,0.613403,
-3.92456,0.637817,
-3.93066,0.662231,
-3.93066,0.679016,
-3.92914,0.643921,
-3.92914,0.611877,
-3.93066,0.67749,
-3.92914,0.688171,
-3.92761,0.675964,
-3.92456,0.636292,
-3.91541,0.608826,
-3.90778,0.628662,
-3.90167,0.680542,
-3.88794,0.669861,
-3.87573,0.637817,
-3.86353,0.587463,
-3.84979,0.634766,
-3.83453,0.679016,
-3.81775,0.672913,
-3.80249,0.640869,
-3.79181,0.59967,
-3.77197,0.637817,
-3.75824,0.679016,
-3.73993,0.669861,
-3.7262,0.636292,
-3.70636,0.610352,
-3.69568,0.634766,
-3.68042,0.675964,
-3.66516,0.669861,
-3.6499,0.621033,
-3.6377,0.595093,
-3.62396,0.631714,
-3.61176,0.675964,
-3.60107,0.675964,
-3.58887,0.639343,
-3.58124,0.605774,
-3.57208,0.67749,
-3.56293,0.674438,
-3.55072,0.668335,
-3.54614,0.637817,
-3.54462,0.611877,
-3.53699,0.63324,
-3.53241,0.671387,
-3.52936,0.715637,
-3.52783,0.63324,
-3.52173,0.611877,
-3.52173,0.628662,
-3.52173,0.67749,
-3.5202,0.672913,
-3.51563,0.639343,
-3.51715,0.608826,
-3.51257,0.628662,
-3.508,0.672913,
-3.508,0.675964,
-3.50342,0.637817,
-3.50189,0.6073,
-3.50189,0.628662,
-3.50189,0.672913,
-3.50037,0.671387,
-3.50342,0.636292,
-3.50342,0.610352,
-3.50494,0.62561,
-3.50952,0.671387,
-3.51105,0.669861,
-3.51715,0.637817,
-3.51715,0.610352,
-3.5202,0.62561,
-3.52783,0.674438,
-3.52783,0.672913,
-3.53088,0.619507,
-3.53546,0.6073,
-3.53699,0.627136,
-3.54309,0.671387,
-3.54767,0.669861,
-3.55225,0.637817,
-3.55377,0.588989,
-3.55377,0.627136,
-3.55682,0.671387,
-3.55682,0.666809,
-3.55988,0.634766,
-3.55682,0.59967,
-3.55682,0.631714,
-3.55377,0.674438,
-3.55072,0.672913,
-3.55072,0.636292,
-3.54614,0.604248,
-3.54309,0.622559,
-3.54004,0.671387,
-3.54004,0.669861,
-3.53851,0.637817,
-3.54004,0.604248,
-3.54004,0.622559,
-3.53699,0.669861,
-3.53699,0.671387,
-3.53394,0.637817,
-3.53241,0.6073,
-3.53088,0.622559,
-3.52936,0.669861,
-3.52783,0.669861,
-3.5202,0.631714,
-3.51715,0.605774,
-3.51868,0.622559,
-3.51105,0.668335,
-3.51105,0.669861,
-3.51257,0.634766,
-3.50494,0.608826,
-3.50494,0.627136,
-3.508,0.669861,
-3.50037,0.669861,
-3.50494,0.634766,
-3.49884,0.602722,
-3.49884,0.622559,
-3.49579,0.675964,
-3.49579,0.669861,
-3.49274,0.631714,
-3.49121,0.601196,
-3.48663,0.622559,
-3.48511,0.666809,
-3.48511,0.669861,
-3.48358,0.63324,
-3.48511,0.601196,
-3.48358,0.619507,
-3.48663,0.666809,
-3.48206,0.671387,
-3.479,0.627136,
-3.479,0.602722,
-3.47748,0.622559,
-3.47748,0.668335,
-3.47137,0.666809,
-3.4668,0.631714,
-3.47443,0.602722,
-3.46985,0.619507,
-3.47595,0.665283,
-3.47595,0.671387,
-3.47443,0.631714,
-3.47595,0.6073,
-3.47137,0.621033,
-3.47595,0.666809,
-3.47443,0.668335,
-3.47137,0.628662,
-3.47443,0.601196,
-3.47137,0.619507,
-3.47595,0.666809,
-3.47748,0.666809,
-3.48053,0.631714,
-3.48358,0.602722,
-3.48663,0.622559,
-3.48511,0.665283,
-3.48511,0.666809,
-3.48816,0.631714,
-3.49121,0.601196,
-3.48969,0.622559,
-3.49121,0.665283,
-3.49121,0.666809,
-3.49426,0.627136,
-3.49579,0.59967,
-3.49579,0.616455,
-3.49731,0.668335,
-3.50037,0.666809,
-3.49884,0.628662,
-3.50189,0.598145,
-3.49884,0.619507,
-3.50189,0.668335,
-3.50342,0.666809,
-3.50189,0.631714,
-3.50342,0.582886,
-3.50342,0.619507,
-3.50342,0.665283,
-3.50494,0.666809,
-3.50189,0.62561,
-3.50189,0.59967,
-3.50037,0.617981,
-3.50037,0.660706,
-3.49884,0.669861,
-3.50037,0.627136,
-3.49731,0.592041,
-3.49579,0.616455,
-3.49579,0.665283,
-3.49884,0.671387,
-3.49731,0.614929,
-3.49884,0.593567,
-3.49884,0.616455,
-3.49884,0.660706,
-3.49579,0.668335,
-3.49884,0.628662,
-3.50037,0.59967,
-3.50189,0.616455,
-3.50037,0.65918,
-3.50342,0.669861,
-3.50342,0.624084,
-3.50189,0.59967,
-3.50189,0.614929,
-3.508,0.660706,
-3.51257,0.668335,
-3.51257,0.624084,
-3.51105,0.59967,
-3.51257,0.617981,
-3.51105,0.656128,
-3.50952,0.666809,
-3.508,0.631714,
-3.50494,0.595093,
-3.50952,0.613403,
-3.508,0.657654,
-3.50494,0.657654,
-3.508,0.640869,
-3.50494,0.595093,
-3.50952,0.617981,
-3.50952,0.656128,
-3.508,0.662231,
-3.50494,0.627136,
-3.508,0.602722,
-3.51105,0.611877,
-3.51105,0.654602,
-3.50952,0.666809,
-3.50494,0.622559,
-3.5141,0.604248,
-3.5141,0.614929,
-3.51563,0.654602,
-3.51715,0.662231,
-3.51257,0.63324,
-3.51715,0.58136,
-3.5141,0.613403,
-3.50952,0.656128,
-3.50952,0.666809,
-3.50189,0.627136,
-3.49426,0.595093,
-3.48816,0.613403,
-3.47443,0.654602,
-3.46527,0.665283,
-3.45001,0.63324,
-3.44086,0.601196,
-3.42102,0.616455,
-3.40271,0.65155,
-3.38593,0.660706,
-3.36456,0.631714,
-3.34625,0.595093,
-3.32184,0.613403,
-3.30353,0.648499,
-3.28064,0.666809,
-3.26233,0.62561,
-3.24554,0.604248,
-3.22876,0.616455,
-3.21808,0.653076,
-3.20435,0.668335,
-3.18298,0.628662,
-3.17535,0.601196,
-3.15857,0.614929,
-3.14789,0.653076,
-3.13721,0.662231,
-3.125,0.624084,
-3.11584,0.59967,
-3.10974,0.613403,
-3.10211,0.653076,
-3.09601,0.668335,
-3.08533,0.628662,
-3.07922,0.598145,
-3.0777,0.616455,
-3.07465,0.650024,
-3.07159,0.662231,
-3.06854,0.627136,
-3.06702,0.59967,
-3.06549,0.616455,
-3.05786,0.650024,
-3.05634,0.665283,
-3.05786,0.627136,
-3.05634,0.59967,
-3.05481,0.614929,
-3.05328,0.646973,
-3.04565,0.660706,
-3.04718,0.62561,
-3.04718,0.59967,
-3.04718,0.614929,
-3.04718,0.648499,
-3.04413,0.666809,
-3.0365,0.624084,
-3.03802,0.59967,
-3.0365,0.614929,
-3.03497,0.648499,
-3.03802,0.665283,
-3.03955,0.621033,
-3.03802,0.598145,
-3.03802,0.616455,
-3.03802,0.645447,
-3.0365,0.666809,
-3.0365,0.624084,
-3.0365,0.59967,
-3.03497,0.604248,
-3.03802,0.645447,
-3.03955,0.660706,
-3.03497,0.627136,
-3.03955,0.602722,
-3.03802,0.614929,
-3.04108,0.650024,
-3.0365,0.65918,
-3.03955,0.62561,
-3.03802,0.59967,
-3.04108,0.616455,
-3.03497,0.646973,
-3.03497,0.662231,
-3.03345,0.624084,
-3.02887,0.595093,
-3.03345,0.614929,
-3.03192,0.645447,
-3.02887,0.660706,
-3.02429,0.624084,
-3.02124,0.602722,
-3.02277,0.614929,
-3.01514,0.643921,
-3.00751,0.662231,
-3.00598,0.627136,
-3.0014,0.605774,
-2.9953,0.614929,
-2.98767,0.645447,
-2.98004,0.660706,
-2.97546,0.627136,
-2.97089,0.601196,
-2.96326,0.616455,
-2.9541,0.646973,
-2.95563,0.65918,
-2.95105,0.627136,
-2.94495,0.6073,
-2.94342,0.614929,
-2.93884,0.645447,
-2.93427,0.660706,
-2.93121,0.622559,
-2.92816,0.605774,
-2.92511,0.621033,
-2.92053,0.639343,
-2.91901,0.660706,
-2.9129,0.62561,
-2.91443,0.604248,
-2.90985,0.619507,
-2.90833,0.637817,
-2.90833,0.656128,
-2.90985,0.631714,
-2.90833,0.602722,
-2.9068,0.617981,
-2.90527,0.639343,
-2.90222,0.65918,
-2.90222,0.62561,
-2.90375,0.602722,
-2.89917,0.614929,
-2.89917,0.640869,
-2.90222,0.662231,
-2.89917,0.636292,
-2.89764,0.602722,
-2.89764,0.621033,
-2.89917,0.640869,
-2.89612,0.656128,
-2.89612,0.63324,
-2.89307,0.602722,
-2.89612,0.616455,
-2.89764,0.643921,
-2.89612,0.65918,
-2.89764,0.628662,
-2.89764,0.601196,
-2.9007,0.614929,
-2.89917,0.642395,
-2.89764,0.656128,
-2.90222,0.628662,
-2.90527,0.608826,
-2.90375,0.613403,
-2.90527,0.636292,
-2.90375,0.654602,
-2.90375,0.631714,
-2.90222,0.605774,
-2.9007,0.619507,
-2.90527,0.639343,
-2.9068,0.654602,
-2.9007,0.627136,
-2.90222,0.608826,
-2.89764,0.619507,
-2.89917,0.639343,
-2.90222,0.653076,
-2.89917,0.631714,
-2.89764,0.604248,
-2.89764,0.616455,
-2.89612,0.642395,
-2.89001,0.653076,
-2.89307,0.628662,
-2.89154,0.601196,
-2.89001,0.624084,
-2.89154,0.637817,
-2.88391,0.653076,
-2.88696,0.627136,
-2.89001,0.605774,
-2.88391,0.617981,
-2.88696,0.639343,
-2.88696,0.653076,
-2.88696,0.631714,
-2.88696,0.605774,
-2.89001,0.617981,
-2.89459,0.637817,
-2.89001,0.653076,
-2.89001,0.63324,
-2.88696,0.6073,
-2.89612,0.624084,
-2.89307,0.636292,
-2.89154,0.653076,
-2.89307,0.63324,
-2.89612,0.604248,
-2.89307,0.616455,
-2.89001,0.637817,
-2.89154,0.650024,
-2.88696,0.628662,
-2.89001,0.59967,
-2.89001,0.617981,
-2.89154,0.637817,
-2.88696,0.65155,
-2.88544,0.628662,
-2.88391,0.604248,
-2.87933,0.616455,
-2.88239,0.639343,
-2.87628,0.65155,
-2.87628,0.627136,
-2.87018,0.602722,
-2.86865,0.617981,
-2.8656,0.634766,
-2.86255,0.650024,
-2.85797,0.634766,
-2.85187,0.604248,
-2.84576,0.624084,
-2.83966,0.639343,
-2.83203,0.65155,
-2.82745,0.631714,
-2.81677,0.605774,
-2.80762,0.617981,
-2.79846,0.640869,
-2.78625,0.648499,
-2.77405,0.631714,
-2.76489,0.6073,
-2.75574,0.617981,
-2.74048,0.637817,
-2.72217,0.648499,
-2.70386,0.617981,
-2.69012,0.608826,
-2.66876,0.614929,
-2.65198,0.639343,
-2.63519,0.653076,
-2.61841,0.634766,
-2.6001,0.605774,
-2.58484,0.619507,
-2.56348,0.636292,
-2.54364,0.650024,
-2.52838,0.636292,
-2.5177,0.608826,
-2.50244,0.614929,
-2.48718,0.634766,
-2.47192,0.65155,
-2.46582,0.634766,
-2.45667,0.605774,
-2.44904,0.613403,
-2.43683,0.636292,
-2.42615,0.657654,
-2.42004,0.619507,
-2.41394,0.604248,
-2.40479,0.614929,
-2.40326,0.639343,
-2.40021,0.653076,
-2.39563,0.634766,
-2.3941,0.6073,
-2.39258,0.619507,
-2.388,0.63324,
-2.37732,0.65155,
-2.37732,0.634766,
-2.37579,0.604248,
-2.36969,0.616455,
-2.36206,0.637817,
-2.36206,0.650024,
-2.35901,0.637817,
-2.35596,0.604248,
-2.35748,0.617981,
-2.35596,0.636292,
-2.35596,0.648499,
-2.35443,0.634766,
-2.35291,0.601196,
-2.35138,0.613403,
-2.34985,0.645447,
-2.34833,0.650024,
-2.3468,0.628662,
-2.34375,0.604248,
-2.34528,0.613403,
-2.34222,0.637817,
-2.34375,0.650024,
-2.34375,0.637817,
-2.34375,0.598145,
-2.34222,0.613403,
-2.34528,0.636292,
-2.34222,0.648499,
-2.34222,0.636292,
-2.34375,0.604248,
-2.3468,0.610352,
-2.3468,0.639343,
-2.35291,0.657654,
-2.35138,0.637817,
-2.35291,0.65918,
-2.35443,0.6073,
-2.35138,0.637817,
-2.34985,0.646973,
-2.3468,0.637817,
-2.34528,0.598145,
-2.33612,0.622559,
-2.33154,0.636292,
-2.32697,0.645447,
-2.32544,0.636292,
-2.32086,0.601196,
-2.32239,0.610352,
-2.31934,0.636292,
-2.31171,0.650024,
-2.30713,0.637817,
-2.29797,0.628662,
-2.29797,0.598145,
-2.29034,0.631714,
-2.28729,0.648499,
-2.27966,0.634766,
-2.27966,0.602722,
-2.27966,0.610352,
-2.27814,0.637817,
-2.27966,0.646973,
-2.27661,0.639343,
-2.27814,0.601196,
-2.27814,0.610352,
-2.27814,0.621033,
-2.27509,0.65918,
-2.27814,0.640869,
-2.27356,0.595093,
-2.27203,0.605774,
-2.27051,0.639343,
-2.2644,0.650024,
-2.26288,0.639343,
-2.25983,0.602722,
-2.26135,0.611877,
-2.25983,0.631714,
-2.25677,0.694275,
-2.25067,0.636292,
-2.24915,0.604248,
-2.24457,0.608826,
-2.24152,0.639343,
-2.23389,0.648499,
-2.23083,0.639343,
-2.22931,0.601196,
-2.23236,0.616455,
-2.23389,0.631714,
-2.22931,0.650024,
-2.23236,0.639343,
-2.22931,0.59967,
-2.23236,0.6073,
-2.23389,0.640869,
-2.23236,0.650024,
-2.22626,0.639343,
-2.22626,0.601196,
-2.22778,0.604248,
-2.22931,0.628662,
-2.22626,0.65155,
-2.22473,0.642395,
-2.22473,0.602722,
-2.22168,0.608826,
-2.22015,0.636292,
-2.22321,0.646973,
-2.22321,0.637817,
-2.22473,0.59967,
-2.22168,0.602722,
-2.22168,0.634766,
-2.22015,0.650024,
-2.22321,0.639343,
-2.22321,0.601196,
-2.22626,0.602722,
-2.22626,0.628662,
-2.22931,0.648499,
-2.22626,0.639343,
-2.22778,0.601196,
-2.22778,0.602722,
-2.22473,0.634766,
-2.22778,0.648499,
-2.23083,0.636292,
-2.23083,0.59967,
-2.23083,0.605774,
-2.22626,0.631714,
-2.23389,0.648499,
-2.23694,0.637817,
-2.23846,0.605774,
-2.24152,0.608826,
-2.24457,0.624084,
-2.24457,0.691223,
-2.24915,0.645447,
-2.2522,0.595093,
-2.25067,0.590515,
-2.24915,0.637817,
-2.24915,0.645447,
-2.25067,0.640869,
-2.2522,0.595093,
-2.2522,0.566101,
-2.24762,0.627136,
-2.24915,0.648499,
-2.24915,0.640869,
-2.25067,0.598145,
-2.25067,0.601196,
-2.25067,0.627136,
-2.25067,0.646973,
-2.2522,0.648499,
-2.2522,0.601196,
-2.25372,0.602722,
-2.25525,0.627136,
-2.25525,0.646973,
-2.25525,0.642395,
-2.2583,0.595093,
-2.25677,0.595093,
-2.25677,0.628662,
-2.25677,0.648499,
-2.2583,0.639343,
-2.26288,0.598145,
-2.26746,0.601196,
-2.27051,0.640869,
-2.27356,0.650024,
-2.27203,0.642395,
-2.26746,0.59967,
-2.27051,0.602722,
-2.27051,0.614929,
-2.26593,0.648499,
-2.26288,0.611877,
-2.25983,0.59967,
-2.25677,0.602722,
-2.25067,0.628662,
-2.24304,0.65155,
-2.23236,0.634766,
-2.22015,0.59967,
-2.20795,0.598145,
-2.19269,0.627136,
-2.18048,0.648499,
-2.1637,0.634766,
-2.14691,0.593567,
-2.13013,0.59967,
-2.11487,0.627136,
-2.09351,0.65155,
-2.0752,0.636292,
-2.05383,0.595093,
-2.03857,0.598145,
-2.01721,0.631714,
-2.00348,0.653076,
-1.98364,0.636292,
-1.96838,0.595093,
-1.95618,0.593567,
-1.93939,0.608826,
-1.92261,0.639343,
-1.9104,0.636292,
-1.89667,0.593567,
-1.88599,0.598145,
-1.87378,0.624084,
-1.86005,0.65155,
-1.84937,0.642395,
-1.84021,0.592041,
-1.82953,0.631714,
-1.8219,0.617981,
-1.81274,0.650024,
-1.80664,0.637817,
-1.79901,0.595093,
-1.79291,0.59967,
-1.7868,0.624084,
-1.78375,0.660706,
-1.78223,0.601196,
-1.77917,0.595093,
-1.77612,0.593567,
-1.77612,0.622559,
-1.7746,0.65918,
-1.77155,0.636292,
-1.77307,0.593567,
-1.77002,0.593567,
-1.77155,0.621033,
-1.7746,0.648499,
-1.77307,0.639343,
-1.7746,0.593567,
-1.7746,0.590515,
-1.7746,0.624084,
-1.77612,0.648499,
-1.77765,0.636292,
-1.78223,0.595093,
-1.77917,0.595093,
-1.78375,0.622559,
-1.7868,0.65155,
-1.78375,0.637817,
-1.78528,0.593567,
-1.78528,0.582886,
-1.78986,0.621033,
-1.79138,0.65155,
-1.7868,0.636292,
-1.7868,0.590515,
-1.7868,0.590515,
-1.7807,0.619507,
-1.7807,0.628662,
-1.7746,0.642395,
-1.77765,0.588989,
-1.77612,0.590515,
-1.77612,0.619507,
-1.7746,0.650024,
-1.77612,0.639343,
-1.7746,0.595093,
-1.77765,0.590515,
-1.77765,0.622559,
-1.77612,0.65155,
-1.77307,0.637817,
-1.7746,0.590515,
-1.77612,0.590515,
-1.77765,0.621033,
-1.77307,0.65155,
-1.76849,0.634766,
-1.76544,0.590515,
-1.75934,0.590515,
-1.75781,0.617981,
-1.75476,0.645447,
-1.74866,0.637817,
-1.74713,0.590515,
-1.74408,0.592041,
-1.7395,0.621033,
-1.73645,0.650024,
-1.73187,0.634766,
-1.72577,0.598145,
-1.72577,0.587463,
-1.72272,0.622559,
-1.72272,0.65918,
-1.71356,0.602722,
-1.71661,0.588989,
-1.71204,0.592041,
-1.70898,0.614929,
-1.70898,0.648499,
-1.70288,0.634766,
-1.70288,0.595093,
-1.70288,0.588989,
-1.70135,0.621033,
-1.70135,0.65155,
-1.6983,0.634766,
-1.70135,0.593567,
-1.70135,0.590515,
-1.70288,0.621033,
-1.69983,0.650024,
-1.6983,0.63324,
-1.70135,0.592041,
-1.70288,0.588989,
-1.70593,0.617981,
-1.70746,0.650024,
-1.70593,0.63324,
-1.70898,0.592041,
-1.71051,0.592041,
-1.71051,0.621033,
-1.71356,0.648499,
-1.71509,0.636292,
-1.71509,0.587463,
-1.72119,0.587463,
-1.72424,0.619507,
-1.72729,0.640869,
-1.72729,0.631714,
-1.73035,0.588989,
-1.73035,0.587463,
-1.73187,0.621033,
-1.73187,0.646973,
-1.72882,0.63324,
-1.72882,0.590515,
-1.7334,0.595093,
-1.73492,0.619507,
-1.73492,0.645447,
-1.73492,0.628662,
-1.7334,0.587463,
-1.7395,0.592041,
-1.74561,0.622559,
-1.75018,0.648499,
-1.75629,0.631714,
-1.76544,0.587463,
-1.76544,0.598145,
-1.76697,0.621033,
-1.77002,0.642395,
-1.77612,0.62561,
-1.78223,0.588989,
-1.78223,0.590515,
-1.78528,0.619507,
-1.7868,0.646973,
-1.79291,0.628662,
-1.79138,0.590515,
-1.79443,0.590515,
-1.79749,0.624084,
-1.80054,0.646973,
-1.80664,0.62561,
-1.80511,0.588989,
-1.81122,0.588989,
-1.80969,0.619507,
-1.81122,0.650024,
-1.81122,0.627136,
-1.81427,0.585938,
-1.8158,0.588989,
-1.81427,0.619507,
-1.8158,0.646973,
-1.8158,0.622559,
-1.81427,0.585938,
-1.82037,0.592041,
-1.82495,0.628662,
-1.828,0.645447,
-1.83105,0.622559,
-1.83563,0.585938,
-1.83716,0.593567,
-1.84326,0.63324,
-1.84937,0.645447,
-1.84784,0.627136,
-1.84784,0.578308,
-1.85089,0.584412,
-1.85089,0.628662,
-1.85394,0.636292,
-1.85547,0.621033,
-1.8631,0.590515,
-1.85547,0.598145,
-1.85394,0.595093,
-1.85242,0.636292,
-1.85852,0.621033,
-1.85394,0.585938,
-1.85852,0.587463,
-1.86005,0.624084,
-1.85547,0.62561,
-1.85242,0.619507,
-1.85394,0.593567,
-1.85852,0.588989,
-1.85547,0.622559,
-1.85547,0.642395,
-1.85242,0.619507,
-1.85852,0.592041,
-1.86005,0.587463,
-1.86005,0.619507,
-1.84937,0.643921,
-1.84479,0.617981,
-1.83868,0.590515,
-1.828,0.595093,
-1.81732,0.6073,
-1.80206,0.646973,
-1.78986,0.617981,
-1.77307,0.588989,
-1.75629,0.588989,
-1.74103,0.622559,
-1.72577,0.650024,
-1.71204,0.621033,
-1.69525,0.584412,
-1.67389,0.587463,
-1.66168,0.624084,
-1.64337,0.648499,
-1.62811,0.619507,
-1.61133,0.590515,
-1.5976,0.593567,
-1.58081,0.622559,
-1.5686,0.645447,
-1.55487,0.622559,
-1.53961,0.584412,
-1.53351,0.593567,
-1.5213,0.622559,
-1.51062,0.653076,
-1.50299,0.637817,
-1.49231,0.588989,
-1.48773,0.595093,
-1.48468,0.62561,
-1.48315,0.648499,
-1.47705,0.622559,
-1.47095,0.595093,
-1.46942,0.6073,
-1.4679,0.62561,
-1.46027,0.654602,
-1.46179,0.624084,
-1.45874,0.587463,
-1.45721,0.593567,
-1.45569,0.619507,
-1.45569,0.645447,
-1.45416,0.62561,
-1.45721,0.585938,
-1.46027,0.587463,
-1.46027,0.628662,
-1.45721,0.653076,
-1.45264,0.621033,
-1.45416,0.584412,
-1.45569,0.558472,
-1.45874,0.622559,
-1.45874,0.657654,
-1.45874,0.616455,
-1.46179,0.595093,
-1.46027,0.595093,
-1.46332,0.613403,
-1.46637,0.654602,
-1.46637,0.622559,
-1.4679,0.598145,
-1.474,0.592041,
-1.48163,0.627136,
-1.48468,0.650024,
-1.48926,0.627136,
-1.49078,0.587463,
-1.49231,0.593567,
-1.49536,0.628662,
-1.49384,0.65155,
-1.49231,0.616455,
-1.49689,0.593567,
-1.49689,0.595093,
-1.50299,0.628662,
-1.50146,0.653076,
-1.50452,0.610352,
-1.50604,0.590515,
-1.50452,0.595093,
-1.50909,0.627136,
-1.50757,0.65155,
-1.51215,0.610352,
-1.51062,0.602722,
-1.50757,0.593567,
-1.50604,0.631714,
-1.50604,0.656128,
-1.50604,0.614929,
-1.50909,0.585938,
-1.50757,0.59967,
-1.50757,0.628662,
-1.50757,0.653076,
-1.50452,0.611877,
-1.50604,0.590515,
-1.50452,0.595093,
-1.50604,0.627136,
-1.50146,0.648499,
-1.50146,0.617981,
-1.49994,0.584412,
-1.50299,0.595093,
-1.50146,0.628662,
-1.49689,0.654602,
-1.49689,0.616455,
-1.49384,0.592041,
-1.49841,0.593567,
-1.49841,0.62561,
-1.49536,0.654602,
-1.49536,0.617981,
-1.49689,0.593567,
-1.49078,0.595093,
-1.49536,0.627136,
-1.49078,0.656128,
-1.48621,0.617981,
-1.48315,0.595093,
-1.48315,0.598145,
-1.48315,0.631714,
-1.48468,0.657654,
-1.48315,0.617981,
-1.48468,0.6073,
-1.48621,0.595093,
-1.48773,0.631714,
-1.49231,0.656128,
-1.49231,0.62561,
-1.49384,0.602722,
-1.49536,0.59967,
-1.49994,0.63324,
-1.50299,0.657654,
-1.50757,0.624084,
-1.51062,0.601196,
-1.51215,0.601196,
-1.51672,0.63324,
-1.5152,0.645447,
-1.51825,0.63324,
-1.5152,0.6073,
-1.52283,0.601196,
-1.5274,0.631714,
-1.5274,0.657654,
-1.53046,0.628662,
-1.53656,0.605774,
-1.54266,0.59967,
-1.54266,0.631714,
-1.55334,0.65918,
-1.55487,0.627136,
-1.55487,0.592041,
-1.56097,0.604248,
-1.56708,0.637817,
-1.57013,0.657654,
-1.57166,0.63324,
-1.57623,0.593567,
-1.57928,0.604248,
-1.58386,0.628662,
-1.58081,0.657654,
-1.58386,0.62561,
-1.58081,0.593567,
-1.58386,0.598145,
-1.58081,0.628662,
-1.58386,0.65918,
-1.58539,0.634766,
-1.58539,0.590515,
-1.58997,0.59967,
-1.58997,0.631714,
-1.58691,0.65918,
-1.58997,0.636292,
-1.59149,0.585938,
-1.59302,0.595093,
-1.5976,0.628662,
-1.59912,0.65918,
-1.6037,0.636292,
-1.60217,0.588989,
-1.6037,0.601196,
-1.60522,0.63324,
-1.6098,0.65918,
-1.61133,0.637817,
-1.61133,0.590515,
-1.6098,0.608826,
-1.61743,0.63324,
-1.62201,0.662231,
-1.62354,0.639343,
-1.62811,0.588989,
-1.62964,0.585938,
-1.63422,0.634766,
-1.63269,0.662231,
-1.63422,0.639343,
-1.63574,0.590515,
-1.63574,0.598145,
-1.63879,0.631714,
-1.6449,0.662231,
-1.64642,0.640869,
-1.64948,0.593567,
-1.64795,0.601196,
-1.65405,0.636292,
-1.64948,0.662231,
-1.64795,0.642395,
-1.64642,0.598145,
-1.64795,0.601196,
-1.64642,0.63324,
-1.64795,0.65918,
-1.65405,0.645447,
-1.64948,0.592041,
-1.65253,0.59967,
-1.65253,0.631714,
-1.65405,0.65918,
-1.65253,0.643921,
-1.65253,0.601196,
-1.64948,0.605774,
-1.64795,0.634766,
-1.64337,0.660706,
-1.64185,0.643921,
-1.63574,0.593567,
-1.63116,0.601196,
-1.62201,0.634766,
-1.6098,0.65918,
-1.60217,0.639343,
-1.59454,0.598145,
-1.58539,0.602722,
-1.57318,0.63324,
-1.55945,0.65918,
-1.54419,0.642395,
-1.53198,0.595093,
-1.52283,0.601196,
-1.51062,0.634766,
-1.49078,0.660706,
-1.47552,0.645447,
-1.46332,0.598145,
-1.45264,0.605774,
-1.43585,0.650024,
-1.42975,0.671387,
-1.41449,0.640869,
-1.40686,0.601196,
-1.39465,0.602722,
-1.3855,0.628662,
-1.38092,0.662231,
-1.36566,0.639343,
-1.35803,0.598145,
-1.34888,0.601196,
-1.3443,0.639343,
-1.3382,0.665283,
-1.33057,0.643921,
-1.32751,0.595093,
-1.32294,0.59967,
-1.32446,0.636292,
-1.32141,0.662231,
-1.32294,0.646973,
-1.32294,0.598145,
-1.31989,0.601196,
-1.31836,0.636292,
-1.31378,0.665283,
-1.31531,0.646973,
-1.31531,0.59967,
-1.31989,0.601196,
-1.31836,0.634766,
-1.31989,0.665283,
-1.32141,0.648499,
-1.32294,0.598145,
-1.32446,0.601196,
-1.32904,0.639343,
-1.33209,0.660706,
-1.33667,0.648499,
-1.3382,0.598145,
-1.34583,0.604248,
-1.34888,0.646973,
-1.35803,0.662231,
-1.36566,0.648499,
-1.37482,0.593567,
-1.37939,0.602722,
-1.38397,0.639343,
-1.3855,0.643921,
-1.38855,0.648499,
-1.39465,0.598145,
-1.40076,0.59967,
-1.40228,0.639343,
-1.40381,0.65918,
-1.40686,0.689697,
-1.41449,0.604248,
-1.41754,0.601196,
-1.42059,0.640869,
-1.42212,0.662231,
-1.42822,0.648499,
-1.42822,0.601196,
-1.43127,0.59967,
-1.43433,0.614929,
-1.43127,0.665283,
-1.42975,0.646973,
-1.42975,0.604248,
-1.43127,0.601196,
-1.42975,0.631714,
-1.42822,0.668335,
-1.42365,0.642395,
-1.42365,0.601196,
-1.42059,0.576782,
-1.41907,0.636292,
-1.41602,0.666809,
-1.40839,0.646973,
-1.40686,0.601196,
-1.40228,0.59967,
-1.40076,0.639343,
-1.39618,0.665283,
-1.39465,0.650024,
-1.39771,0.59967,
-1.39771,0.598145,
-1.40076,0.639343,
-1.40228,0.662231,
-1.40381,0.648499,
-1.40533,0.59967,
-1.40839,0.602722,
-1.41144,0.637817,
-1.41449,0.665283,
-1.40839,0.650024,
-1.41296,0.59967,
-1.41144,0.598145,
-1.41296,0.639343,
-1.40839,0.665283,
-1.41144,0.648499,
-1.41144,0.602722,
-1.41449,0.579834,
-1.41907,0.643921,
-1.41602,0.662231,
-1.41907,0.660706,
-1.42059,0.602722,
-1.42517,0.59967,
-1.42975,0.668335,
-1.4328,0.692749,
-1.43738,0.642395,
-1.44348,0.601196,
-1.44958,0.601196,
-1.45264,0.62561,
-1.45721,0.662231,
-1.45569,0.654602,
-1.45569,0.65155,
-1.45874,0.602722,
-1.46027,0.637817,
-1.46179,0.662231,
-1.46332,0.634766,
-1.47095,0.6073,
-1.474,0.601196,
-1.474,0.636292,
-1.47705,0.665283,
-1.48315,0.646973,
-1.48773,0.602722,
-1.48773,0.605774,
-1.49231,0.640869,
-1.49536,0.672913,
-1.49689,0.653076,
-1.50146,0.604248,
-1.50604,0.598145,
-1.50452,0.639343,
-1.51215,0.666809,
-1.51215,0.640869,
-1.51825,0.604248,
-1.5213,0.598145,
-1.51978,0.637817,
-1.5274,0.666809,
-1.53046,0.65155,
-1.53656,0.605774,
-1.53503,0.604248,
-1.53809,0.63324,
-1.54114,0.662231,
-1.54419,0.65155,
-1.55029,0.604248,
-1.55334,0.59967,
-1.55945,0.636292,
-1.55945,0.668335,
-1.5625,0.653076,
-1.5686,0.604248,
-1.57318,0.59967,
-1.57471,0.634766,
-1.57776,0.665283,
-1.57471,0.65155,
-1.57471,0.592041,
-1.57776,0.59967,
-1.58539,0.631714,
-1.58844,0.666809,
-1.59454,0.666809,
-1.59607,0.636292,
-1.60065,0.59967,
-1.60522,0.642395,
-1.60675,0.665283,
-1.60828,0.650024,
-1.61438,0.608826,
-1.62048,0.59967,
-1.62201,0.642395,
-1.62201,0.660706,
-1.62201,0.645447,
-1.62506,0.59967,
-1.62659,0.595093,
-1.62964,0.634766,
-1.63574,0.662231,
-1.63879,0.653076,
-1.64032,0.610352,
-1.64795,0.601196,
-1.65558,0.634766,
-1.66016,0.662231,
-1.66168,0.65155,
-1.66473,0.6073,
-1.66779,0.602722,
-1.66931,0.628662,
-1.67389,0.666809,
-1.67999,0.65155,
-1.6861,0.608826,
-1.6861,0.595093,
-1.6861,0.634766,
-1.68762,0.662231,
-1.68915,0.653076,
-1.69067,0.610352,
-1.69678,0.595093,
-1.69983,0.634766,
-1.69983,0.65918,
-1.70135,0.654602,
-1.70288,0.610352,
-1.70593,0.598145,
-1.70441,0.634766,
-1.70135,0.660706,
-1.70135,0.65155,
-1.70135,0.624084,
-1.6983,0.593567,
-1.69678,0.63324,
-1.69525,0.660706,
-1.68762,0.648499,
-1.67847,0.610352,
-1.66931,0.59967,
-1.65558,0.622559,
-1.64642,0.657654,
-1.62811,0.646973,
-1.62048,0.611877,
-1.60675,0.595093,
-1.59454,0.639343,
-1.57928,0.656128,
-1.56097,0.650024,
-1.54877,0.611877,
-1.53351,0.59967,
-1.51978,0.636292,
-1.49994,0.662231,
-1.48926,0.645447,
-1.47552,0.608826,
-1.46484,0.593567,
-1.45416,0.605774,
-1.44196,0.656128,
-1.43433,0.640869,
-1.42822,0.608826,
-1.42212,0.595093,
-1.41754,0.63324,
-1.41449,0.65918,
-1.41144,0.650024,
-1.40686,0.614929,
-1.40533,0.598145,
-1.40228,0.637817,
-1.40228,0.648499,
-1.39923,0.648499,
-1.40076,0.614929,
-1.40381,0.595093,
-1.40228,0.63324,
-1.40839,0.653076,
-1.40839,0.643921,
-1.41144,0.613403,
-1.41296,0.595093,
-1.41754,0.634766,
-1.42059,0.654602,
-1.42212,0.643921,
-1.42365,0.614929,
-1.42212,0.593567,
-1.42212,0.631714,
-1.42517,0.653076,
-1.42517,0.645447,
-1.4328,0.614929,
-1.43127,0.637817,
-1.44043,0.614929,
-1.43433,0.657654,
-1.43738,0.646973,
-1.44348,0.611877,
-1.44806,0.59967,
-1.44653,0.63324,
-1.45264,0.656128,
-1.45874,0.643921,
-1.46179,0.616455,
-1.4679,0.598145,
-1.46942,0.634766,
-1.47247,0.65155,
-1.47552,0.642395,
-1.47705,0.616455,
-1.48315,0.595093,
-1.48621,0.634766,
-1.48621,0.653076,
-1.48773,0.643921,
-1.48926,0.601196,
-1.49078,0.648499,
-1.49231,0.62561,
-1.49536,0.653076,
-1.49384,0.648499,
-1.49231,0.613403,
-1.49231,0.590515,
-1.49384,0.631714,
-1.49231,0.650024,
-1.48926,0.621033,
-1.48926,0.616455,
-1.48621,0.601196,
-1.48315,0.636292,
-1.48773,0.65155,
-1.48163,0.639343,
-1.48468,0.617981,
-1.48315,0.592041,
-1.4801,0.631714,
-1.4801,0.657654,
-1.47552,0.640869,
-1.47705,0.617981,
-1.4801,0.598145,
-1.4801,0.627136,
-1.4801,0.648499,
-1.4801,0.627136,
-1.48163,0.584412,
-1.47552,0.593567,
-1.48163,0.628662,
-1.48163,0.650024,
-1.48621,0.643921,
-1.48468,0.622559,
-1.48468,0.595093,
-1.48926,0.627136,
-1.49078,0.645447,
-1.49078,0.639343,
-1.49078,0.614929,
-1.49689,0.593567,
-1.49689,0.627136,
-1.49994,0.646973,
-1.50299,0.662231,
-1.50757,0.639343,
-1.50909,0.595093,
-1.5152,0.62561,
-1.51825,0.648499,
-1.5213,0.637817,
-1.52588,0.617981,
-1.53046,0.59967,
-1.53198,0.627136,
-1.53503,0.645447,
-1.54114,0.639343,
-1.54572,0.617981,
-1.55334,0.598145,
-1.55792,0.624084,
-1.55945,0.646973,
-1.56097,0.637817,
-1.56555,0.614929,
-1.57013,0.59967,
-1.57013,0.624084,
-1.57166,0.646973,
-1.57776,0.637817,
-1.57776,0.614929,
-1.58081,0.598145,
-1.57928,0.622559,
-1.58081,0.634766,
-1.58844,0.639343,
-1.58997,0.624084,
-1.59302,0.611877,
-1.5976,0.611877,
-1.5976,0.646973,
-1.5976,0.636292,
-1.60065,0.614929,
-1.60217,0.604248,
-1.6037,0.616455,
-1.60522,0.642395,
-1.60828,0.634766,
-1.6098,0.614929,
-1.61285,0.601196,
-1.61438,0.622559,
-1.61743,0.646973,
-1.61438,0.639343,
-1.61285,0.614929,
-1.61133,0.598145,
-1.61438,0.621033,
-1.61438,0.648499,
-1.61896,0.634766,
-1.61896,0.617981,
-1.62201,0.604248,
-1.62964,0.621033,
-1.62964,0.614929,
-1.63116,0.631714,
-1.62964,0.614929,
-1.63422,0.598145,
-1.63727,0.624084,
-1.64337,0.645447,
-1.6449,0.636292,
-1.64795,0.656128,
-1.65405,0.59967,
-1.65405,0.619507,
-1.65863,0.645447,
-1.6571,0.636292,
-1.66168,0.613403,
-1.66168,0.59967,
-1.66626,0.645447,
-1.67084,0.646973,
-1.67084,0.636292,
-1.67694,0.614929,
-1.67999,0.598145,
-1.6861,0.619507,
-1.68762,0.643921,
-1.6922,0.634766,
-1.6922,0.613403,
-1.6983,0.595093,
-1.6983,0.617981,
-1.69678,0.646973,
-1.69983,0.631714,
-1.70135,0.614929,
-1.70746,0.598145,
-1.70746,0.616455,
-1.70898,0.642395,
-1.71204,0.63324,
-1.71356,0.613403,
-1.71204,0.601196,
-1.71356,0.617981,
-1.71356,0.642395,
-1.71509,0.634766,
-1.72119,0.614929,
-1.72272,0.592041,
-1.72424,0.614929,
-1.72577,0.639343,
-1.72729,0.634766,
-1.72882,0.614929,
-1.73187,0.595093,
-1.73798,0.616455,
-1.73798,0.640869,
-1.7395,0.643921,
-1.74408,0.614929,
-1.75018,0.595093,
-1.75171,0.613403,
-1.75781,0.639343,
-1.76086,0.636292,
-1.76544,0.614929,
-1.77155,0.59967,
-1.77765,0.614929,
-1.77917,0.636292,
-1.7868,0.634766,
-1.79596,0.613403,
-1.80206,0.602722,
-1.80817,0.602722,
-1.81122,0.643921,
-1.8158,0.640869,
-1.81732,0.611877,
-1.81885,0.595093,
-1.8158,0.614929,
-1.80969,0.642395,
-1.80664,0.637817,
-1.80054,0.604248,
-1.79291,0.598145,
-1.77917,0.613403,
-1.76697,0.640869,
-1.75629,0.637817,
-1.7395,0.613403,
-1.72577,0.598145,
-1.71204,0.613403,
-1.6983,0.645447,
-1.67999,0.639343,
-1.66473,0.614929,
-1.65405,0.593567,
-1.63879,0.613403,
-1.62506,0.642395,
-1.61285,0.639343,
-1.60675,0.590515,
-1.59607,0.595093,
-1.58691,0.613403,
-1.57928,0.642395,
-1.57471,0.636292,
-1.56555,0.613403,
-1.5625,0.598145,
-1.55792,0.614929,
-1.55029,0.642395,
-1.55029,0.637817,
-1.54572,0.614929,
-1.54572,0.595093,
-1.54572,0.608826,
-1.54266,0.643921,
-1.54266,0.639343,
-1.54114,0.608826,
-1.54419,0.598145,
-1.54572,0.617981,
-1.54877,0.642395,
-1.54572,0.643921,
-1.54572,0.611877,
-1.54877,0.595093,
-1.55029,0.611877,
-1.54572,0.640869,
-1.54572,0.637817,
-1.54572,0.610352,
-1.55029,0.602722,
-1.55182,0.610352,
-1.55182,0.643921,
-1.55487,0.639343,
-1.5564,0.613403,
-1.5625,0.595093,
-1.56403,0.610352,
-1.5686,0.643921,
-1.5686,0.639343,
-1.57318,0.611877,
-1.57471,0.595093,
-1.57471,0.610352,
-1.58081,0.645447,
-1.58539,0.640869,
-1.59149,0.611877,
-1.5976,0.595093,
-1.60065,0.614929,
-1.60217,0.642395,
-1.60675,0.640869,
-1.61438,0.610352,
-1.62048,0.595093,
-1.62506,0.608826,
-1.62659,0.639343,
-1.62964,0.640869,
-1.63116,0.610352,
-1.63574,0.59967,
-1.63879,0.6073,
-1.63727,0.645447,
-1.64185,0.642395,
-1.6449,0.611877,
-1.64642,0.59967,
-1.64948,0.610352,
-1.64948,0.643921,
-1.65405,0.643921,
-1.65863,0.614929,
-1.66016,0.59967,
-1.66321,0.610352,
-1.66779,0.645447,
-1.66626,0.642395,
-1.67084,0.614929,
-1.67236,0.601196,
-1.67084,0.608826,
-1.66931,0.645447,
-1.66626,0.643921,
-1.67084,0.622559,
-1.66779,0.595093,
-1.67084,0.6073,
-1.67542,0.645447,
-1.67694,0.646973,
-1.67542,0.614929,
-1.67694,0.59967,
-1.67847,0.619507,
-1.68152,0.637817,
-1.67847,0.648499,
-1.67999,0.616455,
-1.6861,0.602722,
-1.68304,0.608826,
-1.68762,0.643921,
-1.68915,0.643921,
-1.6922,0.616455,
-1.69678,0.59967,
-1.6983,0.605774,
-1.70288,0.646973,
-1.70746,0.645447,
-1.71051,0.6073,
-1.71204,0.59967,
-1.71814,0.602722,
-1.72424,0.654602,
-1.72729,0.645447,
-1.73035,0.614929,
-1.73492,0.601196,
-1.7334,0.59967,
-1.7334,0.648499,
-1.74103,0.642395,
-1.74103,0.6073,
-1.74866,0.595093,
-1.74561,0.605774,
-1.74866,0.653076,
-1.75476,0.65155,
-1.75934,0.616455,
-1.76239,0.601196,
-1.76544,0.608826,
-1.76849,0.653076,
-1.77155,0.650024,
-1.77002,0.62561,
-1.77155,0.595093,
-1.7746,0.611877,
-1.77765,0.656128,
-1.78528,0.646973,
-1.7868,0.619507,
-1.79596,0.601196,
-1.79749,0.608826,
-1.79901,0.653076,
-1.80664,0.654602,
-1.81122,0.610352,
-1.81732,0.593567,
-1.82037,0.616455,
-1.828,0.657654,
-1.82648,0.648499,
-1.83105,0.621033,
-1.83716,0.604248,
-1.84326,0.610352,
-1.84937,0.695801,
-1.85852,0.657654,
-1.86462,0.628662,
-1.86768,0.598145,
-1.87531,0.614929,
-1.87988,0.65155,
-1.88293,0.653076,
-1.88751,0.63324,
-1.89667,0.598145,
-1.89819,0.622559,
-1.9043,0.654602,
-1.90735,0.654602,
-1.91498,0.624084,
-1.9165,0.598145,
-1.92261,0.613403,
-1.93024,0.654602,
-1.93024,0.653076,
-1.93329,0.627136,
-1.93481,0.598145,
-1.93939,0.613403,
-1.9455,0.656128,
-1.94855,0.65155,
-1.95007,0.624084,
-1.95313,0.602722,
-1.95923,0.616455,
-1.96228,0.657654,
-1.96533,0.657654,
-1.97296,0.624084,
-1.97296,0.598145,
-1.97296,0.617981,
-1.97754,0.657654,
-1.98212,0.656128,
-1.98364,0.59967,
-1.98822,0.587463,
-1.98975,0.624084,
-1.98975,0.654602,
-1.99585,0.660706,
-1.99585,0.628662,
-1.99738,0.601196,
-2.00348,0.619507,
-2.00806,0.657654,
-2.00958,0.65918,
-2.01111,0.627136,
-2.01416,0.601196,
-2.02026,0.619507,
-2.02332,0.654602,
-2.02484,0.662231,
-2.03247,0.636292,
-2.03247,0.604248,
-2.034,0.619507,
-2.034,0.660706,
-2.034,0.660706,
-2.03705,0.63324,
-2.04315,0.59967,
-2.04163,0.616455,
-2.0462,0.660706,
-2.04315,0.668335,
-2.04468,0.636292,
-2.04468,0.605774,
-2.04468,0.619507,
-2.04926,0.648499,
-2.04926,0.669861,
-2.05231,0.637817,
-2.05841,0.605774,
-2.06146,0.621033,
-2.06604,0.668335,
-2.07062,0.668335,
-2.06909,0.637817,
-2.0752,0.604248,
-2.07825,0.624084,
-2.07977,0.665283,
-2.08435,0.669861,
-2.08893,0.639343,
-2.09045,0.602722,
-2.09198,0.622559,
-2.09351,0.668335,
-2.09503,0.668335,
-2.09656,0.639343,
-2.10114,0.604248,
-2.10266,0.62561,
-2.09656,0.666809,
-2.09198,0.672913,
-2.08588,0.653076,
-2.07825,0.608826,
-2.07214,0.624084,
-2.06146,0.665283,
-2.05231,0.668335,
-2.04315,0.65155,
-2.03247,0.602722,
-2.01416,0.627136,
-2.00348,0.671387,
-1.98822,0.671387,
-1.97906,0.637817,
-1.96533,0.610352,
-1.95465,0.628662,
-1.94397,0.666809,
-1.93634,0.675964,
-1.92413,0.639343,
-1.9165,0.610352,
-1.90582,0.628662,
-1.89819,0.669861,
-1.88599,0.672913,
-1.88141,0.639343,
-1.87378,0.611877,
-1.86768,0.627136,
-1.86462,0.674438,
-1.86462,0.671387,
-1.86005,0.642395,
-1.86005,0.613403,
-1.85394,0.63324,
-1.86005,0.669861,
-1.85394,0.675964,
-1.85547,0.645447,
-1.8631,0.613403,
-1.86157,0.627136,
-1.86462,0.666809,
-1.8692,0.67749,
-1.87531,0.640869,
-1.87988,0.611877,
-1.88141,0.631714,
-1.88751,0.674438,
-1.88751,0.672913,
-1.89056,0.645447,
-1.89514,0.616455,
-1.89819,0.634766,
-1.89972,0.675964,
-1.89972,0.680542,
-1.90735,0.643921,
-1.9104,0.614929,
-1.91956,0.637817,
-1.92261,0.674438,
-1.92871,0.672913,
-1.93329,0.637817,
-1.93634,0.619507,
-1.94244,0.642395,
-1.9455,0.672913,
-1.95007,0.682068,
-1.95313,0.646973,
-1.95923,0.624084,
-1.96228,0.639343,
-1.96838,0.680542,
-1.96838,0.680542,
-1.96991,0.645447,
-1.97296,0.619507,
-1.98059,0.642395,
-1.98517,0.675964,
-1.98517,0.671387,
-1.98975,0.646973,
-1.99127,0.616455,
-1.99738,0.642395,
-1.99585,0.674438,
-1.99738,0.674438,
-1.99585,0.645447,
-2.00195,0.619507,
-2.005,0.640869,
-2.005,0.680542,
-2.005,0.67749,
-2.01111,0.645447,
-2.01263,0.619507,
-2.01416,0.645447,
-2.01416,0.682068,
-2.01721,0.67749,
-2.01569,0.646973,
-2.01416,0.631714,
-2.01263,0.627136,
-2.01416,0.688171,
-2.02026,0.682068,
-2.01721,0.646973,
-2.02026,0.621033,
-2.01569,0.645447,
-2.01569,0.686646,
-2.01569,0.683594,
-2.01416,0.648499,
-2.01416,0.619507,
-2.01263,0.645447,
-2.01416,0.680542,
-2.01263,0.68512,
-2.01263,0.646973,
-2.00958,0.624084,
-2.00806,0.650024,
-2.005,0.680542,
-2.00806,0.683594,
-2.00806,0.645447,
-2.01111,0.622559,
-2.01416,0.648499,
-2.01721,0.672913,
-2.02026,0.688171,
-2.02179,0.648499,
-2.02332,0.624084,
-2.02789,0.65155,
-2.034,0.675964,
-2.034,0.683594,
-2.03552,0.650024,
-2.0401,0.622559,
-2.0462,0.653076,
-2.04773,0.680542,
-2.05231,0.683594,
-2.05688,0.645447,
-2.06757,0.624084,
-2.06757,0.653076,
-2.07672,0.682068,
-2.08435,0.680542,
-2.08893,0.648499,
-2.09351,0.622559,
-2.10419,0.654602,
-2.10876,0.68512,
-2.11182,0.680542,
-2.11792,0.650024,
-2.12402,0.624084,
-2.1286,0.648499,
-2.13318,0.686646,
-2.14386,0.683594,
-2.14691,0.645447,
-2.15454,0.62561,
-2.15454,0.653076,
-2.15912,0.689697,
-2.15912,0.721741,
-2.16217,0.650024,
-2.16522,0.62561,
-2.1698,0.653076,
-2.1759,0.689697,
-2.18201,0.68512,
-2.18811,0.653076,
-2.19269,0.6073,
-2.19727,0.653076,
-2.211,0.686646,
-2.21252,0.686646,
-2.22015,0.646973,
-2.22778,0.62561,
-2.23389,0.653076,
-2.23999,0.686646,
-2.24304,0.68512,
-2.24762,0.65155,
-2.25525,0.62561,
-2.25983,0.656128,
-2.2644,0.683594,
-2.27814,0.68512,
-2.28119,0.65155,
-2.28882,0.619507,
-2.2995,0.662231,
-2.30865,0.688171,
-2.31781,0.68512,
-2.32086,0.650024,
-2.32544,0.627136,
-2.33612,0.662231,
-2.3468,0.682068,
-2.35291,0.714111,
-2.35901,0.657654,
-2.36511,0.627136,
-2.37122,0.668335,
-2.3819,0.683594,
-2.38647,0.683594,
-2.39258,0.654602,
-2.40479,0.640869,
-2.40936,0.666809,
-2.42004,0.686646,
-2.42462,0.683594,
-2.43225,0.65155,
-2.44446,0.62561,
-2.45361,0.662231,
-2.45667,0.688171,
-2.46582,0.688171,
-2.47498,0.646973,
-2.4826,0.622559,
-2.49329,0.665283,
-2.50244,0.691223,
-2.5116,0.683594,
-2.51923,0.653076,
-2.52838,0.621033,
-2.53448,0.665283,
-2.54669,0.694275,
-2.55127,0.688171,
-2.5589,0.653076,
-2.56805,0.627136,
-2.58026,0.660706,
-2.58331,0.688171,
-2.59094,0.686646,
-2.59705,0.656128,
-2.60925,0.621033,
-2.61688,0.660706,
-2.62604,0.686646,
-2.63214,0.688171,
-2.6413,0.653076,
-2.64587,0.624084,
-2.65656,0.657654,
-2.66113,0.686646,
-2.66266,0.686646,
-2.67029,0.65155,
-2.67487,0.62561,
-2.68097,0.657654,
-2.68097,0.68512,
-2.68402,0.686646,
-2.67792,0.653076,
-2.68097,0.622559,
-2.68097,0.660706,
-2.67792,0.68512,
-2.67334,0.683594,
-2.66724,0.65155,
-2.66418,0.62561,
-2.65503,0.656128,
-2.64587,0.67749,
-2.6413,0.682068,
-2.63672,0.65155,
-2.62756,0.645447,
-2.62604,0.656128,
-2.61993,0.68512,
-2.61536,0.68512,
-2.60925,0.65155,
-2.60468,0.62561,
-2.59705,0.653076,
-2.59094,0.680542,
-2.59094,0.68512,
-2.59094,0.65155,
-2.58942,0.624084,
-2.58789,0.656128,
-2.59247,0.694275,
-2.58942,0.683594,
-2.59247,0.65155,
-2.59705,0.624084,
-2.59857,0.654602,
-2.6062,0.688171,
-2.60925,0.682068,
-2.60925,0.654602,
-2.6123,0.622559,
-2.62299,0.653076,
-2.62756,0.692749,
-2.63367,0.682068,
-2.63824,0.657654,
-2.64282,0.624084,
-2.65045,0.65155,
-2.65198,0.694275,
-2.65961,0.686646,
-2.66571,0.653076,
-2.67181,0.62561,
-2.67944,0.648499,
-2.68707,0.698853,
-2.69318,0.682068,
-2.69928,0.653076,
-2.70996,0.624084,
-2.72217,0.645447,
-2.72675,0.694275,
-2.7359,0.688171,
-2.74353,0.654602,
-2.74963,0.62561,
-2.75574,0.645447,
-2.76489,0.694275,
-2.771,0.688171,
-2.77863,0.65155,
-2.79236,0.605774,
-2.80151,0.645447,
-2.81067,0.692749,
-2.8183,0.68512,
-2.82745,0.654602,
-2.83508,0.622559,
-2.84271,0.643921,
-2.84729,0.689697,
-2.85034,0.683594,
-2.86102,0.653076,
-2.86865,0.62561,
-2.87476,0.643921,
-2.87933,0.691223,
-2.88239,0.680542,
-2.88239,0.643921,
-2.88239,0.62561,
-2.88544,0.621033,
-2.88696,0.691223,
-2.88391,0.68512,
-2.88391,0.653076,
-2.88239,0.62561,
-2.88239,0.643921,
-2.88391,0.68512,
-2.87781,0.683594,
-2.87933,0.65155,
-2.87628,0.622559,
-2.87628,0.650024,
-2.87781,0.695801,
-2.87628,0.689697,
-2.87476,0.650024,
-2.87476,0.622559,
-2.8717,0.640869,
-2.87781,0.686646,
-2.87781,0.688171,
-2.87933,0.653076,
-2.87933,0.617981,
-2.88239,0.643921,
-2.88391,0.68512,
-2.88544,0.68512,
-2.88696,0.648499,
-2.89154,0.622559,
-2.89307,0.643921,
-2.89459,0.689697,
-2.89307,0.683594,
-2.90222,0.653076,
-2.89917,0.621033,
-2.90527,0.639343,
-2.9068,0.688171,
-2.90833,0.700378,
-2.91138,0.650024,
-2.91443,0.621033,
-2.91748,0.642395,
-2.92511,0.683594,
-2.92969,0.682068,
-2.93427,0.65155,
-2.94647,0.616455,
-2.94952,0.637817,
-2.95868,0.688171,
-2.96021,0.691223,
-2.96631,0.650024,
-2.97241,0.602722,
-2.97852,0.642395,
-2.98462,0.68512,
-2.98615,0.688171,
-2.9892,0.650024,
-2.99377,0.613403,
-2.99835,0.639343,
-2.99988,0.682068,
-3.00293,0.68512,
-3.00751,0.653076,
-3.01056,0.62561,
-3.01819,0.640869,
-3.02429,0.686646,
-3.03497,0.686646,
-3.0365,0.653076,
-3.04413,0.619507,
-3.04718,0.622559,
-3.05176,0.68512,
-3.05328,0.688171,
-3.05481,0.648499,
-3.05786,0.617981,
-3.05939,0.640869,
-3.06396,0.683594,
-3.07007,0.68512,
-3.07159,0.646973,
-3.07617,0.617981,
-3.08075,0.640869,
-3.08685,0.686646,
-3.09601,0.688171,
-3.10211,0.650024,
-3.10516,0.617981,
-3.10974,0.634766,
-3.11737,0.683594,
-3.125,0.688171,
-3.12653,0.648499,
-3.13263,0.624084,
-3.13568,0.636292,
-3.14178,0.68512,
-3.14484,0.692749,
-3.14636,0.648499,
-3.15704,0.614929,
-3.16467,0.636292,
-3.17078,0.683594,
-3.17688,0.683594,
-3.17993,0.646973,
-3.18298,0.63324,
-3.18756,0.637817,
-3.19366,0.683594,
-3.19672,0.68512,
-3.20129,0.65155,
-3.20587,0.622559,
-3.21045,0.639343,
-3.21655,0.682068,
-3.2196,0.686646,
-3.22418,0.688171,
-3.22571,0.616455,
-3.22876,0.637817,
-3.23029,0.679016,
-3.23792,0.689697,
-3.23944,0.65155,
-3.23944,0.614929,
-3.24554,0.63324,
-3.24402,0.686646,
-3.24707,0.694275,
-3.2486,0.646973,
-3.2547,0.614929,
-3.25775,0.642395,
-3.25928,0.683594,
-3.25928,0.68512,
-3.26538,0.645447,
-3.27148,0.614929,
-3.27148,0.634766,
-3.27148,0.68512,
-3.27454,0.686646,
-3.27606,0.646973,
-3.27759,0.619507,
-3.27911,0.634766,
-3.28217,0.683594,
-3.28369,0.686646,
-3.28979,0.646973,
-3.28979,0.613403,
-3.29132,0.63324,
-3.29742,0.683594,
-3.302,0.688171,
-3.30505,0.640869,
-3.30811,0.613403,
-3.31116,0.634766,
-3.31268,0.680542,
-3.31268,0.686646,
-3.31726,0.646973,
-3.32031,0.616455,
-3.32336,0.636292,
-3.32794,0.683594,
-3.33099,0.68512,
-3.33099,0.648499,
-3.3371,0.616455,
-3.3371,0.639343,
-3.33405,0.682068,
-3.33405,0.689697,
-3.32642,0.653076,
-3.32031,0.627136,
-3.31421,0.637817,
-3.30658,0.683594,
-3.29285,0.691223,
-3.28217,0.648499,
-3.26996,0.627136,
-3.25928,0.637817,
-3.24707,0.682068,
-3.23486,0.691223,
-3.21808,0.645447,
-3.20587,0.622559,
-3.19366,0.636292,
-3.18298,0.682068,
-3.17535,0.689697,
-3.1601,0.646973,
-3.15552,0.62561,
-3.14331,0.640869,
-3.13568,0.682068,
-3.125,0.68512,
-3.11737,0.656128,
-3.10974,0.613403,
-3.10516,0.634766,
-3.10364,0.682068,
-3.09296,0.691223,
-3.08685,0.65155,
-3.0838,0.617981,
-3.08228,0.634766,
-3.07159,0.68512,
-3.06549,0.688171,
-3.05786,0.650024,
-3.05176,0.65155,
-3.04871,0.643921,
-3.04565,0.67749,
-3.04413,0.682068,
-3.03802,0.650024,
-3.03955,0.614929,
-3.04108,0.628662,
-3.03497,0.669861,
-3.03345,0.686646,
-3.0365,0.648499,
-3.03345,0.621033,
-3.03802,0.634766,
-3.0365,0.682068,
-3.0365,0.68512,
-3.03802,0.643921,
-3.03802,0.622559,
-3.04108,0.628662,
-3.04413,0.686646,
-3.05023,0.701904,
-3.05176,0.645447,
-3.05786,0.617981,
-3.05481,0.637817,
-3.05786,0.675964,
-3.06854,0.68512,
-3.07007,0.646973,
-3.07617,0.616455,
-3.08228,0.634766,
-3.08685,0.669861,
-3.08838,0.68512,
-3.08838,0.645447,
-3.0899,0.616455,
-3.09753,0.642395,
-3.10516,0.671387,
-3.10669,0.68512,
-3.11127,0.646973,
-3.11279,0.619507,
-3.1189,0.624084,
-3.11432,0.674438,
-3.11584,0.68512,
-3.1189,0.636292,
-3.11737,0.662231,
-3.1189,0.648499,
-3.12195,0.672913,
-3.12195,0.688171,
-3.12042,0.648499,
-3.12042,0.619507,
-3.1189,0.634766,
-3.12042,0.672913,
-3.11737,0.741577,
-3.11737,0.648499,
-3.11737,0.616455,
-3.11432,0.634766,
-3.11279,0.669861,
-3.10974,0.688171,
-3.10669,0.648499,
-3.10822,0.622559,
-3.11127,0.634766,
-3.11432,0.669861,
-3.11737,0.686646,
-3.11584,0.645447,
-3.11584,0.621033,
-3.12195,0.634766,
-3.12195,0.669861,
-3.12042,0.683594,
-3.125,0.645447,
-3.12042,0.627136,
-3.125,0.639343,
-3.12195,0.669861,
-3.125,0.688171,
-3.12347,0.645447,
-3.12195,0.621033,
-3.12195,0.639343,
-3.125,0.668335,
-3.12653,0.688171,
-3.12805,0.643921,
-3.1311,0.621033,
-3.12805,0.634766,
-3.1311,0.671387,
-3.12805,0.682068,
-3.13263,0.645447,
-3.13873,0.624084,
-3.14026,0.636292,
-3.14178,0.669861,
-3.14484,0.682068,
-3.14789,0.646973,
-3.15094,0.622559,
-3.15247,0.637817,
-3.15704,0.668335,
-3.15704,0.682068,
-3.1601,0.646973,
-3.1601,0.622559,
-3.1662,0.637817,
-3.16925,0.671387,
-3.1723,0.683594,
-3.17535,0.646973,
-3.17383,0.624084,
-3.18146,0.634766,
-3.18451,0.666809,
-3.18756,0.682068,
-3.18909,0.648499,
-3.19519,0.634766,
-3.19214,0.639343,
-3.19977,0.680542,
-3.20282,0.683594,
-3.20587,0.643921,
-3.2074,0.628662,
-3.2074,0.634766,
-3.21045,0.634766,
-3.2135,0.657654,
-3.21655,0.636292,
-3.22113,0.621033,
-3.22113,0.636292,
-3.22266,0.666809,
-3.21808,0.679016,
-3.2196,0.657654,
-3.2196,0.65918,
-3.2196,0.639343,
-3.22266,0.666809,
-3.2196,0.682068,
-3.2196,0.646973,
-3.21808,0.628662,
-3.2196,0.639343,
-3.2196,0.668335,
-3.2196,0.682068,
-3.2196,0.65155,
-3.22418,0.628662,
-3.22266,0.640869,
-3.22418,0.660706,
-3.22571,0.68512,
-3.22571,0.65155,
-3.23334,0.62561,
-3.23029,0.646973,
-3.23334,0.665283,
-3.23792,0.682068,
-3.23792,0.656128,
-3.24097,0.639343,
-3.24249,0.631714,
-3.24249,0.666809,
-3.24554,0.686646,
-3.25012,0.656128,
-3.25165,0.634766,
-3.25012,0.65155,
-3.25317,0.669861,
-3.2547,0.688171,
-3.25165,0.654602,
-3.2547,0.628662,
-3.25623,0.645447,
-3.25775,0.666809,
-3.2608,0.68512,
-3.25928,0.653076,
-3.25623,0.628662,
-3.25928,0.645447,
-3.25928,0.665283,
-3.25623,0.683594,
-3.25928,0.653076,
-3.25775,0.628662,
-3.26233,0.643921,
-3.26538,0.665283,
-3.26538,0.671387,
-3.26843,0.65155,
-3.27148,0.63324,
-3.27454,0.648499,
-3.27454,0.666809,
-3.27454,0.680542,
-3.27606,0.650024,
-3.28064,0.631714,
-3.28064,0.642395,
-3.28522,0.646973,
-3.28674,0.682068,
-3.28979,0.654602,
-3.29437,0.627136,
-3.2959,0.672913,
-3.30353,0.65918,
-3.30658,0.679016,
-3.30658,0.65155,
-3.30658,0.627136,
-3.31116,0.640869,
-3.30658,0.662231,
-3.302,0.67749,
-3.29742,0.654602,
-3.29895,0.634766,
-3.29437,0.643921,
-3.29132,0.65918,
-3.28064,0.67749,
-3.27301,0.65155,
-3.26385,0.627136,
-3.25165,0.643921,
-3.24097,0.660706,
-3.22723,0.679016,
-3.2135,0.654602,
-3.20129,0.640869,
-3.18756,0.643921,
-3.17383,0.660706,
-3.15552,0.679016,
-3.14026,0.695801,
-3.1311,0.640869,
-3.11584,0.63324,
-3.10669,0.660706,
-3.08838,0.686646,
-3.08228,0.653076,
-3.07007,0.634766,
-3.05634,0.634766,
-3.04718,0.666809,
-3.03802,0.671387,
-3.02887,0.656128,
-3.01514,0.622559,
-3.01056,0.643921,
-3.00598,0.65918,
-2.99683,0.675964,
-2.98767,0.656128,
-2.98309,0.63324,
-2.98157,0.643921,
-2.97394,0.662231,
-2.96936,0.674438,
-2.96783,0.656128,
-2.97089,0.627136,
-2.97089,0.646973,
-2.96783,0.662231,
-2.97089,0.679016,
-2.96936,0.653076,
-2.97089,0.631714,
-2.97241,0.643921,
-2.96936,0.65918,
-2.96631,0.67749,
-2.97089,0.657654,
-2.97394,0.627136,
-2.97241,0.645447,
-2.97241,0.665283,
-2.97241,0.686646,
-2.97241,0.65918,
-2.97394,0.631714,
-2.97394,0.642395,
-2.97394,0.665283,
-2.97089,0.679016,
-2.97699,0.657654,
-2.97546,0.631714,
-2.97699,0.643921,
-2.97546,0.665283,
-2.97241,0.674438,
-2.97394,0.657654,
-2.97546,0.642395,
-2.97699,0.646973,
-2.97852,0.662231,
-2.98157,0.675964,
-2.97852,0.657654,
-2.98309,0.627136,
-2.98615,0.643921,
-2.98309,0.660706,
-2.98309,0.67749,
-2.98309,0.65918,
-2.98615,0.634766,
-2.98462,0.645447,
-2.98767,0.662231,
-2.98767,0.679016,
-2.98615,0.665283,
-2.98615,0.637817,
-2.98767,0.643921,
-2.98462,0.665283,
-2.98462,0.680542,
-2.98309,0.660706,
-2.98157,0.639343,
-2.98004,0.648499,
-2.97394,0.665283,
-2.97546,0.680542,
-2.97394,0.662231,
-2.97394,0.628662,
-2.97394,0.63324,
-2.97241,0.657654,
-2.97394,0.679016,
-2.97089,0.665283,
-2.96783,0.634766,
-2.96783,0.643921,
-2.96783,0.660706,
-2.96631,0.680542,
-2.96631,0.666809,
-2.96478,0.634766,
-2.96326,0.639343,
-2.96326,0.668335,
-2.96021,0.680542,
-2.96021,0.662231,
-2.95868,0.636292,
-2.95563,0.653076,
-2.95868,0.666809,
-2.95258,0.67749,
-2.95105,0.666809,
-2.95105,0.63324,
-2.95563,0.645447,
-2.9541,0.665283,
-2.95105,0.680542,
-2.95258,0.665283,
-2.9541,0.63324,
-2.96021,0.642395,
-2.96173,0.665283,
-2.96173,0.675964,
-2.96021,0.662231,
-2.96478,0.636292,
-2.96783,0.648499,
-2.96783,0.665283,
-2.97089,0.680542,
-2.96936,0.671387,
-2.97241,0.628662,
-2.96936,0.639343,
-2.97241,0.645447,
-2.97394,0.680542,
-2.97546,0.662231,
-2.97241,0.631714,
-2.97699,0.637817,
-2.98004,0.683594,
-2.98157,0.691223,
-2.97852,0.666809,
-2.98004,0.636292,
-2.98004,0.639343,
-2.97852,0.665283,
-2.98004,0.679016,
-2.98004,0.669861,
-2.98004,0.642395,
-2.98309,0.642395,
-2.98462,0.669861,
-2.98615,0.67749,
-2.98767,0.674438,
-2.98767,0.631714,
-2.9892,0.643921,
-2.98615,0.656128,
-2.98767,0.656128,
-2.9892,0.672913,
-2.98615,0.634766,
-2.98615,0.646973,
-2.9892,0.672913,
-2.9892,0.68512,
-2.98767,0.675964,
-2.99072,0.637817,
-2.99377,0.646973,
-2.99072,0.674438,
-2.9953,0.68512,
-2.99377,0.672913,
-2.9953,0.639343,
-2.9953,0.642395,
-2.99835,0.672913,
-3.0014,0.683594,
-2.99835,0.671387,
-3.0014,0.637817,
-3.00446,0.645447,
-3.00293,0.668335,
-3.0014,0.682068,
-3.0014,0.671387,
-3.00446,0.634766,
-3.0014,0.642395,
-3.00293,0.665283,
-3.00446,0.680542,
-3.00293,0.671387,
-3.00293,0.634766,
-3.00598,0.645447,
-3.00446,0.666809,
-2.99835,0.680542,
-2.99683,0.669861,
-2.99683,0.636292,
-2.99835,0.628662,
-3.00446,0.662231,
-3.00293,0.679016,
-3.01056,0.653076,
-3.01666,0.686646,
-3.01971,0.640869,
-3.02277,0.662231,
-3.02429,0.674438,
-3.02277,0.662231,
-3.02429,0.62561,
-3.0304,0.637817,
-3.0304,0.657654,
-3.02887,0.675964,
-3.02734,0.668335,
-3.03345,0.62561,
-3.0365,0.637817,
-3.0365,0.654602,
-3.03955,0.674438,
-3.04108,0.666809,
-3.0426,0.62561,
-3.03955,0.628662,
-3.04413,0.656128,
-3.0426,0.669861,
-3.04718,0.660706,
-3.04413,0.628662,
-3.04565,0.628662,
-3.04413,0.653076,
-3.0426,0.662231,
-3.03955,0.636292,
-3.03497,0.627136,
-3.02887,0.631714,
-3.02124,0.656128,
-3.01514,0.67749,
-3.00751,0.668335,
-2.99377,0.628662,
-2.98157,0.65155,
-2.97241,0.627136,
-2.96021,0.674438,
-2.948,0.671387,
-2.93274,0.642395,
-2.91901,0.636292,
-2.9068,0.657654,
-2.89001,0.67749,
-2.87476,0.665283,
-2.86102,0.622559,
-2.84576,0.639343,
-2.83051,0.666809,
-2.81372,0.679016,
-2.80151,0.65918,
-2.79236,0.62561,
-2.77557,0.634766,
-2.76642,0.660706,
-2.75269,0.679016,
-2.74048,0.669861,
-2.73132,0.62561,
-2.72369,0.631714,
-2.71759,0.657654,
-2.70386,0.680542,
-2.69318,0.666809,
-2.68402,0.624084,
-2.67334,0.627136,
-2.66266,0.656128,
-2.65808,0.675964,
-2.64893,0.665283,
-2.64587,0.631714,
-2.6413,0.63324,
-2.6413,0.656128,
-2.63977,0.668335,
-2.63672,0.669861,
-2.63519,0.628662,
-2.63214,0.637817,
-2.63062,0.657654,
-2.62909,0.683594,
-2.62909,0.674438,
-2.63214,0.636292,
-2.63214,0.637817,
-2.63062,0.660706,
-2.63214,0.68512,
-2.62909,0.672913,
-2.63214,0.628662,
-2.63367,0.63324,
-2.63977,0.656128,
-2.64282,0.682068,
-2.64893,0.654602,
-2.64893,0.627136,
-2.65045,0.631714,
-2.65198,0.648499,
-2.65503,0.679016,
-2.65808,0.666809,
-2.65198,0.622559,
-2.65503,0.634766,
-2.6535,0.669861,
-2.6535,0.682068,
-2.65045,0.669861,
-2.65503,0.627136,
-2.65656,0.63324,
-2.65503,0.65155,
-2.6535,0.679016,
-2.6535,0.668335,
-2.6535,0.621033,
-2.65198,0.63324,
-2.64587,0.654602,
-2.64587,0.675964,
-2.64587,0.665283,
-2.6413,0.613403,
-2.63824,0.63324,
-2.63367,0.65155,
-2.63062,0.679016,
-2.63062,0.666809,
-2.62909,0.62561,
-2.62604,0.627136,
-2.62146,0.656128,
-2.61688,0.683594,
-2.6123,0.665283,
-2.61078,0.622559,
-2.60925,0.62561,
-2.6062,0.653076,
-2.60468,0.688171,
-2.60162,0.660706,
-2.60162,0.621033,
-2.59705,0.621033,
-2.59247,0.65155,
-2.59247,0.679016,
-2.59247,0.660706,
-2.58636,0.621033,
-2.58636,0.621033,
-2.58636,0.645447,
-2.58331,0.709534,
-2.58331,0.660706,
-2.58026,0.617981,
-2.58179,0.619507,
-2.58179,0.646973,
-2.58331,0.674438,
-2.58179,0.654602,
-2.58484,0.614929,
-2.58484,0.613403,
-2.58484,0.643921,
-2.58331,0.671387,
-2.58179,0.65918,
-2.57721,0.617981,
-2.57416,0.6073,
-2.57721,0.656128,
-2.58026,0.67749,
-2.58026,0.704956,
-2.58026,0.634766,
-2.58179,0.624084,
-2.57721,0.648499,
-2.57721,0.674438,
-2.57568,0.660706,
-2.57721,0.619507,
-2.57416,0.621033,
-2.58026,0.650024,
-2.58179,0.674438,
-2.58179,0.65918,
-2.58331,0.617981,
-2.58636,0.622559,
-2.58789,0.646973,
-2.59094,0.679016,
-2.59399,0.65918,
-2.59094,0.621033,
-2.58942,0.617981,
-2.59094,0.645447,
-2.59247,0.672913,
-2.59247,0.660706,
-2.59247,0.621033,
-2.59247,0.619507,
-2.59552,0.650024,
-2.59094,0.674438,
-2.58789,0.662231,
-2.58942,0.619507,
-2.59094,0.62561,
-2.58942,0.650024,
-2.58331,0.674438,
-2.58942,0.662231,
-2.58942,0.621033,
-2.59399,0.621033,
-2.59552,0.646973,
-2.59857,0.665283,
-2.59705,0.660706,
-2.59857,0.622559,
-2.59857,0.621033,
-2.60162,0.645447,
-2.60773,0.675964,
-2.6062,0.657654,
-2.60925,0.617981,
-2.60773,0.621033,
-2.61078,0.65155,
-2.60773,0.674438,
-2.60773,0.660706,
-2.60773,0.621033,
-2.6062,0.62561,
-2.60773,0.648499,
-2.6062,0.674438,
-2.60773,0.660706,
-2.6062,0.616455,
-2.6062,0.619507,
-2.60773,0.646973,
-2.61078,0.675964,
-2.6123,0.662231,
-2.61841,0.616455,
-2.61841,0.622559,
-2.62146,0.650024,
-2.61841,0.680542,
-2.61841,0.657654,
-2.62146,0.616455,
-2.62451,0.622559,
-2.62756,0.650024,
-2.62604,0.671387,
-2.63062,0.645447,
-2.63519,0.616455,
-2.63214,0.619507,
-2.63062,0.648499,
-2.63367,0.675964,
-2.63214,0.654602,
-2.63519,0.619507,
-2.63824,0.613403,
-2.63672,0.646973,
-2.63824,0.669861,
-2.63977,0.654602,
-2.6413,0.613403,
-2.63977,0.619507,
-2.64282,0.648499,
-2.6413,0.672913,
-2.6413,0.656128,
-2.6413,0.614929,
-2.64282,0.621033,
-2.64282,0.645447,
-2.64435,0.669861,
-2.64435,0.646973,
-2.64435,0.613403,
-2.64435,0.619507,
-2.64282,0.648499,
-2.64282,0.668335,
-2.6413,0.648499,
-2.64435,0.614929,
-2.64282,0.619507,
-2.64282,0.648499,
-2.64587,0.669861,
-2.63977,0.648499,
-2.63519,0.611877,
-2.63062,0.614929,
-2.62451,0.646973,
-2.61841,0.668335,
-2.60925,0.65155,
-2.59705,0.613403,
-2.58636,0.610352,
-2.57111,0.643921,
-2.55585,0.666809,
-2.53906,0.646973,
-2.5238,0.610352,
-2.50549,0.614929,
-2.48718,0.646973,
-2.47192,0.671387,
-2.45361,0.650024,
-2.43683,0.611877,
-2.42004,0.611877,
-2.40173,0.643921,
-2.38495,0.668335,
-2.37122,0.640869,
-2.35748,0.613403,
-2.34528,0.613403,
-2.33154,0.646973,
-2.31628,0.668335,
-2.30255,0.643921,
-2.29034,0.622559,
-2.28271,0.614929,
-2.27203,0.645447,
-2.25525,0.668335,
-2.24915,0.646973,
-2.23694,0.617981,
-2.22626,0.611877,
-2.21863,0.634766,
-2.21405,0.669861,
-2.20642,0.642395,
-2.19879,0.616455,
-2.19727,0.610352,
-2.19421,0.648499,
-2.18964,0.666809,
-2.18811,0.640869,
-2.18048,0.611877,
-2.18048,0.614929,
-2.17743,0.650024,
-2.1759,0.671387,
-2.17285,0.642395,
-2.16827,0.613403,
-2.1698,0.611877,
-2.16217,0.643921,
-2.16522,0.666809,
-2.16217,0.642395,
-2.1637,0.608826,
-2.15912,0.614929,
-2.15454,0.648499,
-2.15607,0.671387,
-2.14844,0.643921,
-2.14539,0.608826,
-2.14081,0.614929,
-2.13928,0.646973,
-2.13928,0.657654,
-2.14081,0.643921,
-2.13928,0.608826,
-2.13623,0.614929,
-2.13623,0.648499,
-2.1347,0.671387,
-2.1286,0.643921,
-2.12555,0.614929,
-2.12555,0.610352,
-2.12708,0.648499,
-2.12708,0.669861,
-2.12555,0.648499,
-2.12097,0.613403,
-2.1225,0.610352,
-2.12097,0.645447,
-2.11487,0.668335,
-2.11487,0.645447,
-2.11639,0.611877,
-2.11334,0.611877,
-2.11182,0.646973,
-2.11029,0.669861,
-2.10724,0.643921,
-2.10266,0.610352,
-2.10419,0.611877,
-2.10419,0.654602,
-2.09961,0.674438,
-2.10114,0.643921,
-2.09961,0.616455,
-2.09503,0.611877,
-2.09198,0.65155,
-2.09045,0.67749,
-2.08893,0.642395,
-2.08893,0.616455,
-2.0874,0.610352,
-2.09045,0.646973,
-2.07977,0.660706,
-2.07825,0.645447,
-2.07367,0.619507,
-2.07214,0.613403,
-2.06757,0.645447,
-2.06146,0.674438,
-2.05841,0.639343,
-2.05231,0.608826,
-2.05078,0.614929,
-2.04315,0.648499,
-2.0462,0.668335,
-2.04163,0.628662,
-2.04163,0.6073,
-2.04315,0.613403,
-2.0401,0.646973,
-2.03705,0.668335,
-2.034,0.634766,
-2.03552,0.650024,
-2.03247,0.610352,
-2.03552,0.640869,
-2.03247,0.671387,
-2.034,0.631714,
-2.03247,0.604248,
-2.034,0.6073,
-2.03705,0.643921,
-2.0401,0.672913,
-2.0401,0.63324,
-2.03857,0.604248,
-2.04163,0.608826,
-2.0462,0.645447,
-2.04163,0.671387,
-2.04315,0.628662,
-2.04773,0.608826,
-2.04926,0.613403,
-2.04315,0.645447,
-2.04163,0.668335,
-2.0401,0.627136,
-2.03705,0.611877,
-2.03247,0.608826,
-2.03552,0.645447,
-2.03705,0.669861,
-2.03705,0.63324,
-2.034,0.616455,
-2.03247,0.610352,
-2.03705,0.643921,
-2.03552,0.671387,
-2.03857,0.634766,
-2.0401,0.621033,
-2.03857,0.608826,
-2.03857,0.622559,
-2.03552,0.646973,
-2.03552,0.637817,
-2.03552,0.610352,
-2.03552,0.619507,
-2.03247,0.637817,
-2.034,0.672913,
-2.03552,0.634766,
-2.034,0.656128,
-2.03857,0.611877,
-2.03552,0.643921,
-2.03705,0.675964,
-2.03705,0.628662,
-2.0401,0.610352,
-2.03705,0.616455,
-2.0401,0.640869,
-2.03857,0.671387,
-2.03857,0.639343,
-2.0401,0.613403,
-2.04315,0.611877,
-2.0462,0.63324,
-2.03857,0.671387,
-2.04163,0.640869,
-2.04468,0.610352,
-2.04773,0.613403,
-2.04163,0.648499,
-2.04315,0.672913,
-2.04163,0.639343,
-2.0462,0.605774,
-2.04315,0.593567,
-2.04163,0.643921,
-2.04468,0.675964,
-2.0462,0.640869,
-2.04468,0.604248,
-2.04773,0.610352,
-2.04926,0.650024,
-2.0462,0.672913,
-2.0462,0.65918,
-2.04926,0.602722,
-2.05078,0.611877,
-2.05078,0.643921,
-2.05383,0.674438,
-2.05231,0.643921,
-2.05383,0.605774,
-2.05536,0.608826,
-2.05383,0.643921,
-2.05688,0.669861,
-2.05688,0.645447,
-2.05536,0.598145,
-2.05536,0.6073,
-2.05536,0.645447,
-2.06146,0.680542,
-2.06146,0.648499,
-2.06909,0.6073,
-2.07062,0.598145,
-2.07214,0.642395,
-2.07672,0.669861,
-2.07825,0.646973,
-2.07977,0.604248,
-2.08282,0.614929,
-2.0874,0.643921,
-2.0874,0.666809,
-2.08893,0.648499,
-2.09198,0.610352,
-2.09503,0.622559,
-2.08893,0.643921,
-2.08893,0.669861,
-2.08588,0.650024,
-2.08588,0.604248,
-2.09045,0.608826,
-2.09045,0.640869,
-2.09656,0.669861,
-2.09656,0.650024,
-2.09503,0.622559,
-2.10266,0.611877,
-2.10114,0.691223,
-2.10419,0.672913,
-2.10571,0.653076,
-2.10876,0.6073,
-2.10876,0.614929,
-2.10114,0.642395,
-2.09351,0.671387,
-2.08588,0.650024,
-2.0752,0.614929,
-2.07062,0.616455,
-2.05841,0.645447,
-2.04163,0.671387,
-2.02179,0.653076,
-2.00806,0.614929,
-1.9989,0.621033,
-1.98059,0.634766,
-1.96838,0.668335,
-1.94855,0.639343,
-1.94092,0.611877,
-1.92719,0.616455,
-1.91193,0.643921,
-1.89819,0.674438,
-1.87988,0.657654,
-1.87073,0.619507,
-1.85547,0.653076,
-1.84021,0.637817,
-1.82648,0.683594,
-1.81732,0.662231,
-1.80511,0.605774,
-1.79596,0.614929,
-1.78223,0.643921,
-1.7746,0.668335,
-1.76697,0.653076,
-1.75781,0.590515,
-1.74866,0.613403,
-1.74408,0.642395,
-1.73492,0.669861,
-1.72577,0.654602,
-1.71814,0.604248,
-1.71204,0.610352,
-1.70746,0.621033,
-1.70288,0.675964,
-1.69678,0.654602,
-1.69067,0.605774,
-1.6861,0.610352,
-1.68152,0.642395,
-1.67694,0.671387,
-1.67084,0.654602,
-1.66626,0.608826,
-1.66779,0.608826,
-1.66168,0.643921,
-1.66168,0.669861,
-1.66321,0.646973,
-1.66168,0.605774,
-1.66168,0.6073,
-1.6571,0.645447,
-1.65863,0.668335,
-1.6571,0.657654,
-1.66168,0.6073,
-1.66016,0.614929,
-1.65558,0.657654,
-1.65405,0.672913,
-1.6571,0.656128,
-1.6571,0.6073,
-1.65558,0.608826,
-1.6571,0.653076,
-1.65558,0.668335,
-1.65253,0.657654,
-1.65558,0.605774,
-1.65253,0.605774,
-1.6571,0.643921,
-1.65863,0.672913,
-1.6571,0.656128,
-1.65558,0.616455,
-1.6571,0.610352,
-1.65863,0.643921,
-1.6571,0.672913,
-1.65863,0.654602,
-1.66168,0.610352,
-1.66321,0.590515,
-1.66321,0.639343,
-1.66168,0.672913,
-1.66168,0.648499,
-1.6571,0.610352,
-1.6571,0.6073,
-1.6571,0.643921,
-1.65405,0.669861,
-1.65405,0.653076,
-1.65405,0.605774,
-1.64642,0.608826,
-1.64795,0.640869,
-1.64337,0.671387,
-1.64032,0.654602,
-1.63727,0.59967,
-1.63879,0.6073,
-1.63116,0.642395,
-1.62811,0.668335,
-1.62354,0.654602,
-1.61896,0.605774,
-1.61285,0.608826,
-1.61133,0.622559,
-1.6098,0.674438,
-1.60217,0.657654,
-1.59454,0.610352,
-1.59454,0.610352,
-1.59302,0.637817,
-1.58997,0.669861,
-1.58691,0.660706,
-1.58691,0.617981,
-1.58844,0.611877,
-1.58386,0.634766,
-1.57623,0.674438,
-1.57623,0.65155,
-1.57471,0.610352,
-1.57318,0.6073,
-1.57166,0.640869,
-1.5686,0.675964,
-1.5686,0.65155,
-1.56555,0.604248,
-1.5686,0.610352,
-1.5686,0.634766,
-1.56555,0.642395,
-1.57013,0.642395,
-1.57013,0.608826,
-1.5686,0.59967,
-1.57471,0.645447,
-1.57471,0.669861,
-1.57928,0.656128,
-1.58386,0.601196,
-1.58539,0.605774,
-1.58691,0.636292,
-1.59149,0.668335,
-1.58997,0.656128,
-1.59454,0.608826,
-1.59912,0.605774,
-1.60065,0.639343,
-1.60217,0.668335,
-1.6037,0.65155,
-1.60675,0.610352,
-1.6098,0.601196,
-1.60828,0.640869,
-1.6098,0.675964,
-1.60828,0.656128,
-1.6098,0.605774,
-1.6098,0.604248,
-1.60828,0.640869,
-1.6098,0.668335,
-1.6098,0.653076,
-1.61438,0.617981,
-1.61896,0.604248,
-1.62048,0.636292,
-1.62048,0.665283,
-1.62201,0.654602,
-1.62354,0.610352,
-1.62659,0.6073,
-1.62811,0.637817,
-1.62506,0.669861,
-1.62811,0.654602,
-1.62811,0.610352,
-1.63116,0.604248,
-1.63269,0.639343,
-1.63574,0.674438,
-1.63116,0.653076,
-1.63574,0.610352,
-1.64185,0.605774,
-1.6449,0.642395,
-1.64642,0.668335,
-1.64032,0.653076,
-1.63727,0.616455,
-1.63727,0.601196,
-1.64032,0.637817,
-1.64185,0.668335,
-1.64185,0.654602,
-1.64337,0.611877,
-1.64795,0.604248,
-1.65405,0.645447,
-1.6571,0.666809,
-1.66016,0.65155,
-1.65558,0.614929,
-1.65405,0.604248,
-1.65558,0.637817,
-1.64948,0.665283,
-1.64948,0.653076,
-1.64948,0.613403,
-1.65405,0.601196,
-1.65558,0.631714,
-1.65405,0.662231,
-1.65405,0.65155,
-1.6571,0.610352,
-1.66016,0.602722,
-1.66168,0.645447,
-1.66779,0.662231,
-1.66626,0.653076,
-1.67084,0.616455,
-1.67542,0.59967,
-1.67999,0.634766,
-1.68762,0.671387,
-1.68915,0.628662,
-1.69373,0.614929,
-1.69373,0.59967,
-1.69983,0.634766,
-1.69678,0.672913,
-1.6983,0.653076,
-1.6983,0.614929,
-1.70288,0.59967,
-1.70441,0.639343,
-1.70746,0.65918,
-1.70746,0.65155,
-1.70593,0.610352,
-1.70898,0.59967,
-1.71356,0.639343,
-1.71356,0.662231,
-1.71661,0.653076,
-1.71509,0.611877,
-1.71509,0.59967,
-1.71814,0.63324,
-1.71814,0.657654,
-1.71661,0.657654,
-1.71509,0.616455,
-1.71509,0.59967,
-1.71204,0.637817,
-1.71051,0.662231,
-1.70898,0.65155,
-1.71051,0.613403,
-1.70898,0.595093,
-1.70593,0.62561,
-1.6983,0.65918,
-1.68762,0.617981,
-1.67999,0.613403,
-1.67389,0.605774,
-1.66321,0.63324,
-1.64948,0.65918,
-1.63727,0.650024,
-1.62811,0.614929,
-1.60828,0.602722,
-1.59302,0.650024,
-1.57318,0.65918,
-1.55792,0.648499,
-1.53961,0.613403,
-1.52283,0.602722,
-1.50757,0.62561,
-1.48926,0.668335,
-1.474,0.646973,
-1.46027,0.604248,
-1.44958,0.601196,
-1.43738,0.63324,
-1.42212,0.65918,
-1.40839,0.62561,
-1.39618,0.614929,
-1.3855,0.59967,
-1.37329,0.63324,
-1.36414,0.656128,
-1.35498,0.643921,
-1.34888,0.613403,
-1.34277,0.601196,
-1.33514,0.636292,
-1.33057,0.654602,
-1.32599,0.646973,
-1.31989,0.613403,
-1.31378,0.595093,
-1.3092,0.63324,
-1.3031,0.654602,
-1.29852,0.645447,
-1.29242,0.617981,
-1.29242,0.59967,
-1.28784,0.637817,
-1.28479,0.656128,
-1.28174,0.643921,
-1.28174,0.616455,
-1.28021,0.601196,
-1.28174,0.62561,
-1.28174,0.650024,
-1.28632,0.645447,
-1.28632,0.611877,
-1.28632,0.598145,
-1.29089,0.63324,
-1.29395,0.646973,
-1.29395,0.640869,
-1.29089,0.622559,
-1.297,0.601196,
-1.297,0.628662,
-1.297,0.653076,
-1.29852,0.643921,
-1.29852,0.614929,
-1.30005,0.595093,
-1.30463,0.63324,
-1.30615,0.654602,
-1.31226,0.642395,
-1.31378,0.588989,
-1.31531,0.598145,
-1.31989,0.628662,
-1.32141,0.657654,
-1.32446,0.640869,
-1.32904,0.616455,
-1.33057,0.598145,
-1.33362,0.67749,
-1.33209,0.645447,
-1.3382,0.642395,
-1.3382,0.601196,
-1.33362,0.595093,
-1.33667,0.631714,
-1.33209,0.648499,
-1.33209,0.636292,
-1.33362,0.619507,
-1.33209,0.598145,
-1.33514,0.631714,
-1.33362,0.65155,
-1.33209,0.645447,
-1.33362,0.621033,
-1.33362,0.587463,
-1.33209,0.63324,
-1.33209,0.650024,
-1.33209,0.639343,
-1.33209,0.617981,
-1.33057,0.595093,
-1.33209,0.628662,
-1.32904,0.650024,
-1.33057,0.650024,
-1.32904,0.616455,
-1.32751,0.601196,
-1.32599,0.627136,
-1.32294,0.650024,
-1.32599,0.645447,
-1.32751,0.6073,
-1.32294,0.598145,
-1.32294,0.62561,
-1.32294,0.646973,
-1.31836,0.637817,
-1.31989,0.616455,
-1.31989,0.601196,
-1.31836,0.628662,
-1.31378,0.646973,
-1.31378,0.637817,
-1.31836,0.619507,
-1.31378,0.59967,
-1.31683,0.622559,
-1.31989,0.648499,
-1.31836,0.639343,
-1.32294,0.613403,
-1.32446,0.598145,
-1.32446,0.62561,
-1.32751,0.645447,
-1.33057,0.639343,
-1.33057,0.617981,
-1.33362,0.602722,
-1.33514,0.62561,
-1.34277,0.646973,
-1.34583,0.675964,
-1.35345,0.610352,
-1.35498,0.6073,
-1.35803,0.622559,
-1.35956,0.646973,
-1.36261,0.639343,
-1.36566,0.616455,
-1.37024,0.601196,
-1.37329,0.621033,
-1.37177,0.645447,
-1.37329,0.639343,
-1.37787,0.619507,
-1.37177,0.595093,
-1.38245,0.624084,
-1.3855,0.645447,
-1.38702,0.63324,
-1.38397,0.616455,
-1.38245,0.602722,
-1.38702,0.624084,
-1.38855,0.646973,
-1.3916,0.639343,
-1.39618,0.616455,
-1.39465,0.604248,
-1.39923,0.62561,
-1.39618,0.648499,
-1.40228,0.640869,
-1.40381,0.614929,
-1.40381,0.598145,
-1.40381,0.621033,
-1.40076,0.65155,
-1.40076,0.636292,
-1.39923,0.616455,
-1.39923,0.601196,
-1.39923,0.62561,
-1.39771,0.646973,
-1.39618,0.640869,
-1.39771,0.617981,
-1.39618,0.59967,
-1.40228,0.619507,
-1.40076,0.648499,
-1.40076,0.639343,
-1.40228,0.610352,
-1.40381,0.601196,
-1.39923,0.622559,
-1.40076,0.648499,
-1.40076,0.631714,
-1.39923,0.62561,
-1.40228,0.598145,
-1.40381,0.631714,
-1.40533,0.642395,
-1.40533,0.642395,
-1.41296,0.613403,
-1.41754,0.602722,
-1.41602,0.624084,
-1.42059,0.643921,
-1.42212,0.636292,
-1.4267,0.616455,
-1.4328,0.598145,
-1.43433,0.616455,
-1.4389,0.643921,
-1.44043,0.642395,
-1.44653,0.614929,
-1.44653,0.598145,
-1.45111,0.621033,
-1.45264,0.642395,
-1.45264,0.640869,
-1.46027,0.614929,
-1.46027,0.601196,
-1.46332,0.619507,
-1.46332,0.570679,
-1.4679,0.636292,
-1.474,0.610352,
-1.4801,0.601196,
-1.48315,0.621033,
-1.48926,0.639343,
-1.49078,0.640869,
-1.49384,0.611877,
-1.49536,0.602722,
-1.49994,0.614929,
-1.50299,0.643921,
-1.50604,0.637817,
-1.50604,0.616455,
-1.50757,0.598145,
-1.51215,0.614929,
-1.50909,0.645447,
-1.5152,0.639343,
-1.51825,0.611877,
-1.5213,0.598145,
-1.52588,0.614929,
-1.52893,0.640869,
-1.53351,0.640869,
-1.53351,0.613403,
-1.53503,0.595093,
-1.53961,0.614929,
-1.54114,0.643921,
-1.53961,0.645447,
-1.54114,0.614929,
-1.53656,0.59967,
-1.5274,0.616455,
-1.51978,0.642395,
-1.50757,0.645447,
-1.50452,0.616455,
-1.49078,0.593567,
-1.4801,0.614929,
-1.4679,0.650024,
-1.45569,0.642395,
-1.4389,0.616455,
-1.43127,0.595093,
-1.41296,0.646973,
-1.40076,0.640869,
-1.38397,0.637817,
-1.37177,0.614929,
-1.35956,0.601196,
-1.34583,0.616455,
-1.33209,0.642395,
-1.32141,0.640869,
-1.31226,0.6073,
-1.30157,0.595093,
-1.29395,0.616455,
-1.28479,0.645447,
-1.27716,0.639343,
-1.26953,0.613403,
-1.26648,0.595093,
-1.26038,0.613403,
-1.25122,0.642395,
-1.2558,0.639343,
-1.24969,0.614929,
-1.24817,0.598145,
-1.24359,0.613403,
-1.24359,0.640869,
-1.24359,0.643921,
-1.23749,0.622559,
-1.23749,0.59967,
-1.23749,0.613403,
-1.23291,0.643921,
-1.23138,0.639343,
-1.22681,0.614929,
-1.22375,0.59967,
-1.22375,0.614929,
-1.21765,0.643921,
-1.21918,0.640869,
-1.21613,0.616455,
-1.21613,0.593567,
-1.21613,0.613403,
-1.2146,0.640869,
-1.2146,0.640869,
-1.21155,0.616455,
-1.21002,0.595093,
-1.21002,0.614929,
-1.21765,0.639343,
-1.21765,0.642395,
-1.21765,0.616455,
-1.22375,0.605774,
-1.22375,0.617981,
-1.22833,0.642395,
-1.22375,0.645447,
-1.22223,0.613403,
-1.22375,0.59967,
-1.22681,0.616455,
-1.22986,0.631714,
-1.23138,0.640869,
-1.23291,0.617981,
-1.23444,0.601196,
-1.23444,0.610352,
-1.23291,0.646973,
-1.23749,0.639343,
-1.24054,0.614929,
-1.24512,0.601196,
-1.24817,0.611877,
-1.24817,0.646973,
-1.25275,0.646973,
-1.25275,0.616455,
-1.2558,0.598145,
-1.26038,0.611877,
-1.2619,0.643921,
-1.26343,0.643921,
-1.26495,0.616455,
-1.26801,0.601196,
-1.26801,0.610352,
-1.26648,0.648499,
-1.26648,0.643921,
-1.26343,0.619507,
-1.2619,0.598145,
-1.26343,0.610352,
-1.2619,0.646973,
-1.26038,0.646973,
-1.25885,0.614929,
-1.25885,0.610352,
-1.25885,0.610352,
-1.25732,0.643921,
-1.2558,0.646973,
-1.26038,0.614929,
-1.25885,0.601196,
-1.26038,0.608826,
-1.25885,0.645447,
-1.26038,0.643921,
-1.26038,0.616455,
-1.26343,0.610352,
-1.26648,0.6073,
-1.26801,0.645447,
-1.26801,0.645447,
-1.27563,0.616455,
-1.28021,0.604248,
-1.28479,0.608826,
-1.29089,0.650024,
-1.28937,0.636292,
-1.29242,0.619507,
-1.29395,0.59967,
-1.297,0.604248,
-1.29852,0.650024,
-1.297,0.643921,
-1.3031,0.59967,
-1.30463,0.601196,
-1.31226,0.616455,
-1.31073,0.640869,
-1.31378,0.637817,
-1.31531,0.616455,
-1.31531,0.602722,
-1.31836,0.608826,
-1.31989,0.648499,
-1.32294,0.645447,
-1.31989,0.619507,
-1.32294,0.598145,
-1.32599,0.6073,
-1.32904,0.648499,
-1.33209,0.648499,
-1.33514,0.621033,
-1.33667,0.59967,
-1.33972,0.619507,
-1.33972,0.648499,
-1.34277,0.648499,
-1.34888,0.619507,
-1.3504,0.59967,
-1.35193,0.610352,
-1.3504,0.646973,
-1.35651,0.646973,
-1.35803,0.617981,
-1.35956,0.595093,
-1.36261,0.611877,
-1.36108,0.650024,
-1.36261,0.643921,
-1.36414,0.622559,
-1.36261,0.595093,
-1.35803,0.610352,
-1.35803,0.646973,
-1.35651,0.645447,
-1.35651,0.622559,
-1.35651,0.595093,
-1.36261,0.611877,
-1.36871,0.646973,
-1.37329,0.643921,
-1.37787,0.622559,
-1.38397,0.598145,
-1.38855,0.59967,
-1.3916,0.62561,
-1.39771,0.643921,
-1.39923,0.619507,
-1.40533,0.59967,
-1.40533,0.614929,
-1.40533,0.65155,
-1.40686,0.645447,
-1.41296,0.621033,
-1.41754,0.602722,
-1.42365,0.613403,
-1.42975,0.662231,
-1.43738,0.656128,
-1.44348,0.619507,
-1.44348,0.593567,
-1.44806,0.614929,
-1.45569,0.662231,
-1.45874,0.639343,
-1.46484,0.634766,
-1.47247,0.598145,
-1.47095,0.614929,
-1.4801,0.653076,
-1.48315,0.653076,
-1.49384,0.622559,
-1.49689,0.595093,
-1.50452,0.613403,
-1.50757,0.650024,
-1.50909,0.643921,
-1.50757,0.624084,
-1.51062,0.601196,
-1.51672,0.610352,
-1.51978,0.648499,
-1.52283,0.650024,
-1.5213,0.619507,
-1.53046,0.59967,
-1.53198,0.610352,
-1.53198,0.650024,
-1.53503,0.645447,
-1.53503,0.631714,
-1.54266,0.598145,
-1.54877,0.613403,
-1.55029,0.660706,
-1.55182,0.654602,
-1.55487,0.62561,
-1.5564,0.593567,
-1.56097,0.616455,
-1.5625,0.65155,
-1.5625,0.653076,
-1.56403,0.624084,
-1.57318,0.598145,
-1.57776,0.610352,
-1.58691,0.65155,
-1.58997,0.646973,
-1.59607,0.624084,
-1.5976,0.59967,
-1.60065,0.616455,
-1.60217,0.653076,
-1.60828,0.65155,
-1.6098,0.622559,
-1.61285,0.598145,
-1.62354,0.613403,
-1.62201,0.650024,
-1.62354,0.653076,
-1.62354,0.621033,
-1.62659,0.601196,
-1.62659,0.611877,
-1.62811,0.654602,
-1.62354,0.65155,
-1.62506,0.619507,
-1.61896,0.598145,
-1.61285,0.611877,
-1.60828,0.653076,
-1.60065,0.653076,
-1.59149,0.62561,
-1.58081,0.602722,
-1.57013,0.611877,
-1.5564,0.646973,
-1.54419,0.646973,
-1.53503,0.624084,
-1.5213,0.59967,
-1.51215,0.611877,
-1.49994,0.65155,
-1.48926,0.648499,
-1.48315,0.628662,
-1.47552,0.593567,
-1.4679,0.611877,
-1.46179,0.654602,
-1.45264,0.653076,
-1.44196,0.621033,
-1.43738,0.59967,
-1.4328,0.610352,
-1.42365,0.617981,
-1.41907,0.640869,
-1.41144,0.627136,
-1.40533,0.593567,
-1.40228,0.614929,
-1.40076,0.656128,
-1.39771,0.650024,
-1.39465,0.621033,
-1.3916,0.62561,
-1.39008,0.616455,
-1.39008,0.65155,
-1.3855,0.65155,
-1.3855,0.624084,
-1.38245,0.59967,
-1.38397,0.614929,
-1.38397,0.65155,
-1.3855,0.65155,
-1.38245,0.624084,
-1.3855,0.602722,
-1.38702,0.617981,
-1.38702,0.656128,
-1.3855,0.65155,
-1.39008,0.62561,
-1.3916,0.59967,
-1.39465,0.616455,
-1.39465,0.650024,
-1.39465,0.653076,
-1.39923,0.627136,
-1.39618,0.598145,
-1.39923,0.610352,
-1.40381,0.654602,
-1.40533,0.653076,
-1.40839,0.622559,
-1.41754,0.601196,
-1.41907,0.617981,
-1.42517,0.656128,
-1.4267,0.65155,
-1.43127,0.619507,
-1.43433,0.602722,
-1.44196,0.614929,
-1.44653,0.65155,
-1.44806,0.653076,
-1.44958,0.622559,
-1.45569,0.59967,
-1.45721,0.611877,
-1.45874,0.65155,
-1.45874,0.656128,
-1.46027,0.624084,
-1.46332,0.602722,
-1.46179,0.614929,
-1.46637,0.65155,
-1.46942,0.654602,
-1.46942,0.624084,
-1.47095,0.595093,
-1.474,0.614929,
-1.47705,0.65155,
-1.474,0.653076,
-1.47247,0.619507,
-1.47095,0.59967,
-1.4679,0.616455,
-1.46942,0.654602,
-1.46332,0.650024,
-1.46332,0.617981,
-1.46484,0.595093,
-1.46637,0.617981,
-1.46484,0.65155,
-1.46484,0.654602,
-1.4679,0.631714,
-1.47247,0.602722,
-1.474,0.617981,
-1.474,0.656128,
-1.47552,0.656128,
-1.4801,0.617981,
-1.47705,0.593567,
-1.4801,0.608826,
-1.4801,0.65918,
-1.48315,0.656128,
-1.48773,0.617981,
-1.48926,0.601196,
-1.49384,0.619507,
-1.49536,0.65918,
-1.49841,0.656128,
-1.50299,0.622559,
-1.50452,0.598145,
-1.51062,0.622559,
-1.51672,0.657654,
-1.51672,0.656128,
-1.51825,0.619507,
-1.52283,0.601196,
-1.52435,0.622559,
-1.52588,0.657654,
-1.5274,0.656128,
-1.5274,0.621033,
-1.53198,0.598145,
-1.53809,0.631714,
-1.53656,0.639343,
-1.53961,0.666809,
-1.53961,0.619507,
-1.54572,0.59967,
-1.55182,0.628662,
-1.55182,0.65155,
-1.55182,0.666809,
-1.55334,0.621033,
-1.55182,0.598145,
-1.5564,0.627136,
-1.5564,0.65155,
-1.55487,0.645447,
-1.56097,0.624084,
-1.55945,0.590515,
-1.56403,0.605774,
-1.56555,0.656128,
-1.57013,0.660706,
-1.57166,0.62561,
-1.57776,0.602722,
-1.57776,0.636292,
-1.58081,0.688171,
-1.58691,0.662231,
-1.59149,0.624084,
-1.59607,0.602722,
-1.59454,0.627136,
-1.59607,0.654602,
-1.60065,0.662231,
-1.60217,0.62561,
-1.60675,0.598145,
-1.60828,0.627136,
-1.61133,0.657654,
-1.61438,0.654602,
-1.62506,0.622559,
-1.62811,0.598145,
-1.63116,0.62561,
-1.63879,0.668335,
-1.63727,0.660706,
-1.64185,0.619507,
-1.6449,0.59967,
-1.64795,0.624084,
-1.65253,0.65918,
-1.66016,0.657654,
-1.66321,0.653076,
-1.67236,0.595093,
-1.66931,0.619507,
-1.67236,0.65918,
-1.67847,0.657654,
-1.67999,0.617981,
-1.6861,0.598145,
-1.69067,0.617981,
-1.69525,0.627136,
-1.6983,0.660706,
-1.70288,0.619507,
-1.70746,0.598145,
-1.71356,0.622559,
-1.72119,0.65918,
-1.72272,0.654602,
-1.72577,0.617981,
-1.72577,0.585938,
-1.73645,0.62561,
-1.73492,0.654602,
-1.74103,0.660706,
-1.74255,0.619507,
-1.74255,0.595093,
-1.74408,0.627136,
-1.74866,0.646973,
-1.75476,0.654602,
-1.75629,0.621033,
-1.76239,0.592041,
-1.76544,0.63324,
-1.76697,0.653076,
-1.77307,0.65918,
-1.77612,0.624084,
-1.7807,0.593567,
-1.78223,0.631714,
-1.79138,0.653076,
-1.79443,0.653076,
-1.79749,0.63324,
-1.79901,0.590515,
-1.80664,0.631714,
-1.80817,0.650024,
-1.81274,0.650024,
-1.81122,0.622559,
-1.8158,0.590515,
-1.82495,0.634766,
-1.83105,0.65155,
-1.83105,0.654602,
-1.83716,0.614929,
-1.84174,0.593567,
-1.84479,0.631714,
-1.85242,0.653076,
-1.86005,0.621033,
-1.86157,0.621033,
-1.86615,0.592041,
-1.87225,0.631714,
-1.87073,0.657654,
-1.87073,0.654602,
-1.86462,0.616455,
-1.86462,0.588989,
-1.85547,0.634766,
-1.85089,0.654602,
-1.84021,0.653076,
-1.83105,0.614929,
-1.81732,0.587463,
-1.80664,0.627136,
-1.79749,0.653076,
-1.78375,0.654602,
-1.77612,0.616455,
-1.76239,0.590515,
-1.75018,0.628662,
-1.74408,0.657654,
-1.73187,0.65155,
-1.72119,0.613403,
-1.71204,0.587463,
-1.70746,0.62561,
-1.69983,0.653076,
-1.6922,0.65155,
-1.68915,0.616455,
-1.68304,0.590515,
-1.67999,0.624084,
-1.67847,0.645447,
-1.67389,0.650024,
-1.67236,0.613403,
-1.67389,0.588989,
-1.67389,0.605774,
-1.67084,0.643921,
-1.66626,0.65918,
-1.66473,0.616455,
-1.66168,0.590515,
-1.66016,0.6073,
-1.6571,0.65155,
-1.6571,0.631714,
-1.65405,0.616455,
-1.64948,0.590515,
-1.65253,0.62561,
-1.65253,0.640869,
-1.65558,0.65155,
-1.65863,0.621033,
-1.66016,0.584412,
-1.66168,0.619507,
-1.66473,0.646973,
-1.66626,0.646973,
-1.66931,0.616455,
-1.67389,0.585938,
-1.67694,0.621033,
-1.67999,0.653076,
-1.68762,0.648499,
-1.68762,0.616455,
-1.69373,0.585938,
-1.69525,0.619507,
-1.70135,0.65155,
-1.70441,0.648499,
-1.70898,0.614929,
-1.71204,0.585938,
-1.71661,0.614929,
-1.72424,0.654602,
-1.72729,0.653076,
-1.73187,0.611877,
-1.73492,0.584412,
-1.73798,0.613403,
-1.73645,0.656128,
-1.73645,0.650024,
-1.73798,0.616455,
-1.73645,0.587463,
-1.74103,0.614929,
-1.74561,0.660706,
-1.75018,0.657654,
-1.75171,0.619507,
-1.75629,0.584412,
-1.75629,0.604248,
-1.75934,0.657654,
-1.76086,0.648499,
-1.76392,0.617981,
-1.76392,0.584412,
-1.76544,0.610352,
-1.76697,0.656128,
-1.76392,0.645447,
-1.76086,0.614929,
-1.75629,0.6073,
-1.75018,0.631714,
-1.75018,0.650024,
-1.74866,0.648499,
-1.74561,0.614929,
-1.7395,0.590515,
-1.73645,0.608826,
-1.7334,0.640869,
-1.72882,0.640869,
-1.72577,0.614929,
-1.72577,0.582886,
-1.72729,0.601196,
-1.72729,0.646973,
-1.72882,0.648499,
-1.72882,0.616455,
-1.73187,0.582886,
-1.73035,0.605774,
-1.7334,0.650024,
-1.72882,0.646973,
-1.7334,0.613403,
-1.73492,0.588989,
-1.74103,0.604248,
-1.74255,0.648499,
-1.74561,0.642395,
-1.74713,0.613403,
-1.75018,0.58136,
-1.75018,0.604248,
-1.75476,0.648499,
-1.75629,0.648499,
-1.76086,0.613403,
-1.76392,0.585938,
-1.76849,0.602722,
-1.77307,0.657654,
-1.78223,0.653076,
-1.7868,0.611877,
-1.79291,0.584412,
-1.80054,0.602722,
-1.80359,0.648499,
-1.80664,0.642395,
-1.81122,0.611877,
-1.8158,0.587463,
-1.81732,0.602722,
-1.82495,0.648499,
-1.82648,0.645447,
-1.83258,0.636292,
-1.83868,0.585938,
-1.84479,0.605774,
-1.84937,0.648499,
-1.85852,0.645447,
-1.86157,0.610352,
-1.8692,0.587463,
-1.87225,0.579834,
-1.87836,0.648499,
-1.88293,0.643921,
-1.88904,0.613403,
-1.89514,0.584412,
-1.90125,0.628662,
-1.90277,0.650024,
-1.90582,0.648499,
-1.91193,0.611877,
-1.91345,0.587463,
-1.92413,0.604248,
-1.92413,0.65155,
-1.93176,0.643921,
-1.93634,0.610352,
-1.94244,0.584412,
-1.9455,0.59967,
-1.94702,0.646973,
-1.94855,0.645447,
-1.95313,0.6073,
-1.95618,0.582886,
-1.95465,0.604248,
-1.95923,0.648499,
-1.95923,0.645447,
-1.9577,0.613403,
-1.96228,0.58136,
-1.95923,0.602722,
-1.96686,0.646973,
-1.96838,0.645447,
-1.96686,0.6073,
-1.96533,0.58136,
-1.96838,0.595093,
-1.96991,0.656128,
-1.97296,0.648499,
-1.97906,0.613403,
-1.97906,0.58136,
-1.98517,0.604248,
-1.98669,0.646973,
-1.98822,0.640869,
-1.98669,0.611877,
-1.98975,0.579834,
-1.9928,0.585938,
-1.99738,0.646973,
-1.99738,0.645447,
-2.00043,0.613403,
-2.00043,0.58136,
-1.99738,0.592041,
-2.00195,0.616455,
-1.9989,0.648499,
-2.00195,0.613403,
-2.00195,0.58136,
-2.00348,0.604248,
-2.005,0.642395,
-2.00958,0.640869,
-2.01263,0.63324,
-2.01263,0.601196,
-2.02026,0.587463,
-2.02332,0.636292,
-2.03094,0.640869,
-2.03247,0.608826,
-2.03705,0.579834,
-2.04163,0.58136,
-2.04468,0.643921,
-2.04926,0.643921,
-2.05841,0.614929,
-2.06604,0.58136,
-2.06909,0.59967,
-2.07214,0.639343,
-2.07214,0.645447,
-2.0752,0.614929,
-2.0752,0.578308,
-2.07367,0.595093,
-2.07672,0.648499,
-2.07062,0.642395,
-2.06451,0.610352,
-2.05841,0.578308,
-2.05078,0.595093,
-2.04468,0.642395,
-2.03705,0.646973,
-2.02789,0.613403,
-2.01569,0.576782,
-2.005,0.598145,
-1.9928,0.646973,
-1.98212,0.637817,
-1.96991,0.653076,
-1.9516,0.57373,
-1.94244,0.598145,
-1.93329,0.645447,
-1.92413,0.640869,
-1.9165,0.613403,
-1.91345,0.578308,
-1.90582,0.567627,
-1.89667,0.643921,
-1.89056,0.648499,
-1.88293,0.605774,
-1.87683,0.575256,
-1.87073,0.598145,
-1.86005,0.63324,
-1.84937,0.598145,
-1.84174,0.617981,
-1.83716,0.578308,
-1.82953,0.593567,
-1.82648,0.643921,
-1.81732,0.653076,
-1.8158,0.610352,
-1.81274,0.578308,
-1.80511,0.593567,
-1.80359,0.637817,
-1.80054,0.650024,
-1.79749,0.613403,
-1.80054,0.578308,
-1.80511,0.593567,
-1.80359,0.627136,
-1.80359,0.640869,
-1.80206,0.610352,
-1.80359,0.576782,
-1.80511,0.592041,
-1.80817,0.640869,
-1.80817,0.645447,
-1.80969,0.601196,
-1.80969,0.579834,
-1.81274,0.601196,
-1.81274,0.639343,
-1.81885,0.639343,
-1.82037,0.608826,
-1.82953,0.578308,
-1.83258,0.590515,
-1.83411,0.643921,
-1.83563,0.645447,
-1.84021,0.613403,
-1.84631,0.585938,
-1.84479,0.593567,
-1.84631,0.637817,
-1.85242,0.645447,
-1.85394,0.610352,
-1.85852,0.578308,
-1.86768,0.595093,
-1.87531,0.639343,
-1.87836,0.642395,
-1.87531,0.611877,
-1.87836,0.576782,
-1.88141,0.593567,
-1.87836,0.639343,
-1.88599,0.642395,
-1.88141,0.610352,
-1.88141,0.576782,
-1.88141,0.593567,
-1.88446,0.637817,
-1.88446,0.645447,
-1.88751,0.608826,
-1.88446,0.57373,
-1.88599,0.592041,
-1.88446,0.62561,
-1.88293,0.621033,
-1.87836,0.602722,
-1.87836,0.576782,
-1.87378,0.588989,
-1.87378,0.642395,
-1.87073,0.648499,
-1.86615,0.6073,
-1.8631,0.576782,
-1.85852,0.585938,
-1.85394,0.643921,
-1.85242,0.645447,
-1.84937,0.611877,
-1.85089,0.572205,
-1.85242,0.590515,
-1.85089,0.634766,
-1.84784,0.646973,
-1.84631,0.613403,
-1.84479,0.578308,
-1.84631,0.593567,
-1.84937,0.63324,
-1.84937,0.650024,
-1.84784,0.608826,
-1.85242,0.576782,
-1.86157,0.593567,
-1.86462,0.634766,
-1.8692,0.645447,
-1.87225,0.610352,
-1.87073,0.578308,
-1.87531,0.593567,
-1.87531,0.63324,
-1.87683,0.646973,
-1.87988,0.6073,
-1.88141,0.578308,
-1.88141,0.592041,
-1.88599,0.617981,
-1.88751,0.650024,
-1.88904,0.610352,
-1.88904,0.58136,
-1.89362,0.598145,
-1.89667,0.63324,
-1.90125,0.646973,
-1.90582,0.608826,
-1.90582,0.584412,
-1.91193,0.598145,
-1.91498,0.628662,
-1.91803,0.645447,
-1.92261,0.6073,
-1.92871,0.579834,
-1.92719,0.592041,
-1.92871,0.628662,
-1.92871,0.648499,
-1.93176,0.6073,
-1.93481,0.58136,
-1.93787,0.595093,
-1.93634,0.627136,
-1.93481,0.648499,
-1.93939,0.592041,
-1.94092,0.58136,
-1.94397,0.595093,
-1.94397,0.634766,
-1.94702,0.645447,
-1.95007,0.59967,
-1.95465,0.584412,
-1.96533,0.602722,
-1.96991,0.631714,
-1.97449,0.646973,
-1.97449,0.613403,
-1.97906,0.579834,
-1.97906,0.59967,
-1.98212,0.639343,
-1.98364,0.653076,
-1.98669,0.611877,
-1.98669,0.584412,
-1.98975,0.605774,
-1.9989,0.628662,
-2.00653,0.646973,
-2.00958,0.610352,
-2.01569,0.57373,
-2.02179,0.602722,
-2.02484,0.634766,
-2.02637,0.648499,
-2.02789,0.611877,
-2.034,0.587463,
-2.03857,0.602722,
-2.0401,0.636292,
-2.04315,0.648499,
-2.0462,0.610352,
-2.04773,0.58136,
-2.05231,0.595093,
-2.05536,0.634766,
-2.05841,0.645447,
-2.06146,0.610352,
-2.07062,0.590515,
-2.07062,0.595093,
-2.0752,0.63324,
-2.07977,0.643921,
-2.0813,0.608826,
-2.08282,0.584412,
-2.08435,0.59967,
-2.08588,0.627136,
-2.08282,0.660706,
-2.08588,0.613403,
-2.08435,0.587463,
-2.08588,0.598145,
-2.0874,0.628662,
-2.09045,0.645447,
-2.09198,0.619507,
-2.09503,0.572205,
-2.09198,0.601196,
-2.09961,0.627136,
-2.10114,0.645447,
-2.10571,0.613403,
-2.10724,0.590515,
-2.10876,0.601196,
-2.11182,0.627136,
-2.11334,0.645447,
-2.11029,0.613403,
-2.11029,0.575256,
-2.11487,0.604248,
-2.11182,0.62561,
-2.11334,0.643921,
-2.11182,0.616455,
-2.11639,0.592041,
-2.12097,0.604248,
-2.1225,0.628662,
-2.12555,0.646973,
-2.13013,0.613403,
-2.13318,0.587463,
-2.1347,0.605774,
-2.1347,0.627136,
-2.13776,0.643921,
-2.13776,0.613403,
-2.13623,0.587463,
-2.13776,0.605774,
-2.13318,0.62561,
-2.12708,0.646973,
-2.11792,0.611877,
-2.11182,0.585938,
-2.10266,0.6073,
-2.09045,0.637817,
-2.07672,0.642395,
-2.05841,0.617981,
-2.0462,0.588989,
-2.03247,0.604248,
-2.01874,0.627136,
-2.00653,0.653076,
-1.9928,0.617981,
-1.98212,0.585938,
-1.97296,0.601196,
-1.96381,0.63324,
-1.95007,0.62561,
-1.93787,0.616455,
-1.92719,0.587463,
-1.91803,0.6073,
-1.90887,0.622559,
-1.89819,0.643921,
-1.88599,0.617981,
-1.87531,0.601196,
-1.86615,0.608826,
-1.85852,0.627136,
-1.85242,0.645447,
-1.84937,0.613403,
-1.84326,0.588989,
-1.84174,0.602722,
-1.83868,0.637817,
-1.83411,0.642395,
-1.82953,0.614929,
-1.82953,0.590515,
-1.83105,0.605774,
-1.83258,0.62561,
-1.828,0.643921,
-1.82953,0.619507,
-1.83105,0.595093,
-1.83105,0.604248,
-1.82648,0.631714,
-1.828,0.640869,
-1.82495,0.621033,
-1.82495,0.595093,
-1.8219,0.605774,
-1.82648,0.62561,
-1.828,0.646973,
-1.8219,0.610352,
-1.828,0.592041,
-1.83105,0.614929,
-1.82953,0.627136,
-1.83105,0.63324,
-1.83716,0.617981,
-1.83716,0.592041,
-1.84174,0.605774,
-1.84174,0.624084,
-1.84021,0.637817,
-1.84784,0.617981,
-1.84479,0.592041,
-1.84479,0.608826,
-1.84326,0.62561,
-1.84631,0.65155,
-1.84937,0.627136,
-1.85089,0.593567,
-1.85242,0.601196,
-1.85547,0.63324,
-1.86005,0.642395,
-1.8631,0.619507,
-1.86768,0.592041,
-1.8692,0.610352,
-1.87073,0.627136,
-1.87378,0.645447,
-1.87531,0.619507,
-1.88141,0.593567,
-1.88293,0.6073,
-1.88293,0.628662,
-1.88751,0.643921,
-1.89056,0.621033,
-1.89362,0.605774,
-1.88751,0.604248,
-1.89056,0.627136,
-1.89362,0.648499,
-1.89819,0.622559,
-1.89667,0.595093,
-1.89514,0.605774,
-1.89667,0.624084,
-1.89667,0.643921,
-1.89514,0.627136,
-1.89972,0.585938,
-1.89972,0.611877,
-1.89819,0.62561,
-1.90125,0.646973,
-1.89972,0.628662,
-1.90277,0.593567,
-1.90277,0.598145,
-1.90277,0.637817,
-1.89972,0.653076,
-1.89972,0.622559,
-1.90277,0.608826,
-1.90277,0.610352,
-1.89972,0.62561,
-1.90125,0.642395,
-1.89819,0.645447,
-1.89972,0.59967,
-1.89972,0.605774,
-1.89819,0.602722,
-1.90125,0.656128,
-1.89972,0.62561,
-1.90277,0.59967,
-1.90735,0.608826,
-1.90887,0.627136,
-1.91345,0.648499,
-1.91498,0.62561,
-1.9165,0.59967,
-1.91956,0.608826,
-1.91956,0.631714,
-1.92871,0.646973,
-1.92719,0.624084,
-1.93329,0.59967,
-1.93939,0.6073,
-1.94092,0.631714,
-1.94855,0.648499,
-1.95007,0.62561,
-1.9455,0.579834,
-1.94855,0.585938,
-1.95313,0.637817,
-1.95313,0.650024,
-1.95618,0.624084,
-1.9577,0.595093,
-1.96381,0.604248,
-1.96533,0.624084,
-1.96228,0.645447,
-1.96381,0.617981,
-1.96228,0.595093,
-1.95923,0.602722,
-1.96686,0.634766,
-1.96991,0.643921,
-1.97601,0.62561,
-1.97754,0.598145,
-1.98212,0.605774,
-1.98517,0.627136,
-1.98517,0.642395,
-1.98975,0.63324,
-1.98975,0.601196,
-1.99127,0.602722,
-1.99585,0.627136,
-1.9989,0.646973,
-2.00043,0.622559,
-1.9989,0.601196,
-2.00043,0.604248,
-2.00195,0.627136,
-2.00195,0.639343,
-2.00195,0.631714,
-2.00806,0.605774,
-2.01416,0.605774,
-2.01569,0.631714,
-2.01874,0.653076,
-2.02332,0.619507,
-2.02484,0.602722,
-2.02789,0.614929,
-2.02789,0.62561,
-2.03094,0.656128,
-2.02637,0.634766,
-2.03094,0.604248,
-2.03247,0.605774,
-2.034,0.627136,
-2.03857,0.646973,
-2.04315,0.631714,
-2.04773,0.605774,
-2.0462,0.6073,
-2.05078,0.631714,
-2.0462,0.645447,
-2.0462,0.637817,
-2.04926,0.593567,
-2.04773,0.605774,
-2.05231,0.628662,
-2.05078,0.646973,
-2.04926,0.637817,
-2.05078,0.613403,
-2.05231,0.6073,
-2.05231,0.631714,
-2.05231,0.646973,
-2.05383,0.621033,
-2.05078,0.601196,
-2.05536,0.598145,
-2.05994,0.627136,
-2.06451,0.648499,
-2.06146,0.637817,
-2.05994,0.59967,
-2.05841,0.605774,
-2.05994,0.628662,
-2.05994,0.642395,
-2.06604,0.634766,
-2.06604,0.59967,
-2.06757,0.604248,
-2.06909,0.631714,
-2.06757,0.656128,
-2.07214,0.636292,
-2.07062,0.605774,
-2.07062,0.6073,
-2.07367,0.627136,
-2.0752,0.645447,
-2.07825,0.631714,
-2.0813,0.59967,
-2.08435,0.610352,
-2.09045,0.628662,
-2.09198,0.643921,
-2.09045,0.643921,
-2.09503,0.601196,
-2.09503,0.604248,
-2.09503,0.622559,
-2.10114,0.657654,
-2.10419,0.636292,
-2.10419,0.601196,
-2.11182,0.6073,
-2.11487,0.619507,
-2.11639,0.646973,
-2.11792,0.636292,
-2.12097,0.604248,
-2.1286,0.605774,
-2.12708,0.634766,
-2.13318,0.643921,
-2.1286,0.642395,
-2.12708,0.595093,
-2.12555,0.6073,
-2.11945,0.628662,
-2.11182,0.645447,
-2.10419,0.640869,
-2.09656,0.598145,
-2.08435,0.604248,
-2.07062,0.63324,
-2.05994,0.646973,
-2.04926,0.63324,
-2.034,0.59967,
-2.02332,0.605774,
-2.01416,0.631714,
-2.00043,0.645447,
-1.98975,0.640869,
-1.97906,0.587463,
-1.96533,0.610352,
-1.95007,0.628662,
-1.93787,0.643921,
-1.92413,0.640869,
-1.91498,0.595093,
-1.90582,0.605774,
-1.89819,0.668335,
-1.89362,0.648499,
-1.88141,0.640869,
-1.87378,0.602722,
-1.87225,0.604248,
-1.86768,0.62561,
-1.86462,0.637817,
-1.85852,0.639343,
-1.85852,0.598145,
-1.85547,0.6073,
-1.85547,0.627136,
-1.85852,0.650024,
-1.85852,0.637817,
-1.8631,0.598145,
-1.8631,0.616455,
-1.86615,0.628662,
-1.86768,0.645447,
-1.86462,0.639343,
-1.87225,0.598145,
-1.87531,0.602722,
-1.87378,0.627136,
-1.87836,0.646973,
-1.87988,0.639343,
-1.87988,0.588989,
-1.88446,0.608826,
-1.88599,0.631714,
-1.88293,0.646973,
-1.88293,0.643921,
-1.88446,0.593567,
-1.89056,0.605774,
-1.89667,0.624084,
-1.89514,0.650024,
-1.90125,0.643921,
-1.9043,0.595093,
-1.90887,0.605774,
-1.91193,0.627136,
-1.91193,0.642395,
-1.91193,0.642395,
-1.91345,0.598145,
-1.92108,0.610352,
-1.92108,0.631714,
-1.92413,0.648499,
-1.92719,0.608826,
-1.93024,0.59967,
-1.93329,0.605774,
-1.93329,0.628662,
-1.93176,0.645447,
-1.93024,0.642395,
-1.93329,0.588989,
-1.93787,0.59967,
-1.94092,0.6073,
-1.94244,0.653076,
-1.94702,0.640869,
-1.95007,0.59967,
-1.9516,0.608826,
-1.94702,0.628662,
-1.94855,0.643921,
-1.94855,0.63324,
-1.94702,0.592041,
-1.94855,0.608826,
-1.94702,0.627136,
-1.94855,0.654602,
-1.94702,0.631714,
-1.9455,0.595093,
-1.94244,0.604248,
-1.93939,0.627136,
-1.93787,0.650024,
-1.94092,0.639343,
-1.94092,0.593567,
-1.93939,0.604248,
-1.93787,0.624084,
-1.93787,0.646973,
-1.93176,0.637817,
-1.93176,0.585938,
-1.92871,0.59967,
-1.92719,0.627136,
-1.92871,0.654602,
-1.92719,0.636292,
-1.92413,0.601196,
-1.92719,0.602722,
-1.92719,0.62561,
-1.92413,0.622559,
-1.92871,0.640869,
-1.92719,0.582886,
-1.93329,0.601196,
-1.92871,0.627136,
-1.92871,0.662231,
-1.92871,0.617981,
-1.92261,0.604248,
-1.92719,0.621033,
-1.92413,0.62561,
-1.92871,0.65155,
-1.92871,0.636292,
-1.93024,0.595093,
-1.93024,0.582886,
-1.92871,0.624084,
-1.93176,0.68512,
-1.93787,0.62561,
-1.93634,0.592041,
-1.93939,0.605774,
-1.94397,0.621033,
-1.94397,0.653076,
-1.94092,0.639343,
-1.94092,0.59967,
-1.94397,0.601196,
-1.93939,0.627136,
-1.94397,0.648499,
-1.94244,0.634766,
-1.94702,0.595093,
-1.94855,0.601196,
-1.95465,0.62561,
-1.95465,0.65155,
-1.95465,0.637817,
-1.96533,0.595093,
-1.96686,0.604248,
-1.96991,0.631714,
-1.96991,0.628662,
-1.97601,0.631714,
-1.97754,0.598145,
-1.98212,0.598145,
-1.98212,0.622559,
-1.98059,0.62561,
-1.97906,0.622559,
-1.97906,0.601196,
-1.98059,0.588989,
-1.98059,0.622559,
-1.97906,0.650024,
-1.98059,0.634766,
-1.98059,0.595093,
-1.97906,0.602722,
-1.97754,0.610352,
-1.97601,0.65155,
-1.97754,0.634766,
-1.97906,0.590515,
-1.98212,0.595093,
-1.98212,0.622559,
-1.98669,0.648499,
-1.98669,0.63324,
-1.98822,0.592041,
-1.9928,0.595093,
-1.9928,0.622559,
-1.99585,0.653076,
-1.99585,0.640869,
-1.99738,0.592041,
-1.99585,0.598145,
-2.00195,0.62561,
-2.00348,0.65918,
-2.005,0.639343,
-2.00806,0.593567,
-2.01263,0.595093,
-2.01721,0.624084,
-2.02179,0.650024,
-2.02484,0.627136,
-2.03094,0.582886,
-2.03705,0.602722,
-2.03857,0.62561,
-2.04163,0.646973,
-2.0401,0.636292,
-2.04773,0.595093,
-2.0462,0.601196,
-2.0462,0.627136,
-2.05078,0.648499,
-2.04926,0.637817,
-2.04926,0.595093,
-2.05383,0.59967,
-2.05841,0.622559,
-2.05688,0.654602,
-2.05841,0.648499,
-2.06604,0.595093,
-2.06909,0.598145,
-2.06604,0.621033,
-2.06757,0.648499,
-2.06604,0.63324,
-2.06146,0.595093,
-2.06146,0.59967,
-2.05688,0.622559,
-2.05841,0.634766,
-2.05536,0.636292,
-2.05841,0.593567,
-2.05994,0.595093,
-2.05536,0.622559,
-2.05383,0.648499,
-2.05231,0.634766,
-2.05536,0.587463,
-2.05688,0.593567,
-2.05536,0.622559,
-2.05841,0.646973,
-2.05688,0.631714,
-2.05994,0.587463,
-2.06146,0.598145,
-2.05841,0.622559,
-2.05231,0.646973,
-2.05078,0.634766,
-2.04468,0.587463,
-2.04163,0.592041,
-2.034,0.621033,
-2.02484,0.650024,
-2.01416,0.624084,
-2.00653,0.584412,
-1.99127,0.585938,
-1.98364,0.622559,
-1.97754,0.648499,
-1.96686,0.631714,
-1.9577,0.592041,
-1.94244,0.593567,
-1.93024,0.624084,
-1.91803,0.645447,
-1.90735,0.622559,
-1.89667,0.604248,
-1.88446,0.593567,
-1.87378,0.608826,
-1.86005,0.642395,
-1.84784,0.62561,
-1.83258,0.593567,
-1.82648,0.590515,
-1.81274,0.624084,
-1.80054,0.648499,
-1.79596,0.627136,
-1.7868,0.588989,
-1.78223,0.610352,
-1.77917,0.624084,
-1.7746,0.650024,
-1.7746,0.631714,
-1.7746,0.592041,
-1.77307,0.604248,
-1.76697,0.62561,
-1.76849,0.645447,
-1.76544,0.624084,
-1.76544,0.587463,
-1.76849,0.592041,
-1.77155,0.622559,
-1.76849,0.648499,
-1.76392,0.624084,
-1.76239,0.590515,
-1.76392,0.587463,
-1.76239,0.627136,
-1.76697,0.646973,
-1.76239,0.621033,
-1.75934,0.585938,
-1.76239,0.593567,
-1.76544,0.624084,
-1.76697,0.645447,
-1.76849,0.621033,
-1.76697,0.585938,
-1.76392,0.588989,
-1.76239,0.627136,
-1.75476,0.646973,
-1.75476,0.624084,
-1.75171,0.590515,
-1.75018,0.585938,
-1.74713,0.624084,
-1.74713,0.646973,
-1.74255,0.62561,
-1.74408,0.592041,
-1.74561,0.588989,
-1.74866,0.62561,
-1.74713,0.65155,
-1.74866,0.621033,
-1.75476,0.595093,
-1.75476,0.585938,
-1.75934,0.622559,
-1.76239,0.648499,
-1.76392,0.619507,
-1.76544,0.595093,
-1.76392,0.588989,
-1.76392,0.631714,
-1.75781,0.645447,
-1.75781,0.622559,
-1.75781,0.593567,
-1.75934,0.579834,
-1.75934,0.627136,
-1.75781,0.653076,
-1.75781,0.63324,
-1.75476,0.592041,
-1.75171,0.585938,
-1.75018,0.62561,
-1.75018,0.650024,
-1.74866,0.627136,
-1.74866,0.595093,
-1.74866,0.592041,
-1.74713,0.622559,
-1.74255,0.650024,
-1.74103,0.624084,
-1.73645,0.584412,
-1.7395,0.592041,
-1.73798,0.628662,
-1.7334,0.648499,
-1.72882,0.622559,
-1.73035,0.584412,
-1.73035,0.585938,
-1.73035,0.628662,
-1.73187,0.650024,
-1.73035,0.614929,
-1.73187,0.590515,
-1.73035,0.592041,
-1.72882,0.62561,
-1.72882,0.648499,
-1.73187,0.593567,
-1.7334,0.57373,
-1.73492,0.578308,
-1.73492,0.62561,
-1.73492,0.648499,
-1.73492,0.622559,
-1.7395,0.587463,
-1.7395,0.587463,
-1.7395,0.628662,
-1.7395,0.650024,
-1.74255,0.624084,
-1.74255,0.588989,
-1.74408,0.587463,
-1.74866,0.62561,
-1.74561,0.65155,
-1.74561,0.628662,
-1.74561,0.592041,
-1.74561,0.592041,
-1.74713,0.631714,
-1.75018,0.648499,
-1.75171,0.622559,
-1.75476,0.598145,
-1.75018,0.559998,
-1.74866,0.631714,
-1.75476,0.65155,
-1.75476,0.621033,
-1.75629,0.598145,
-1.75629,0.601196,
-1.75018,0.624084,
-1.75476,0.648499,
-1.75476,0.617981,
-1.75476,0.598145,
-1.75934,0.588989,
-1.76392,0.628662,
-1.76697,0.637817,
-1.76849,0.617981,
-1.77002,0.598145,
-1.7746,0.592041,
-1.77307,0.631714,
-1.77917,0.650024,
-1.77917,0.616455,
-1.78528,0.593567,
-1.78986,0.590515,
-1.79138,0.628662,
-1.79291,0.65155,
-1.79901,0.613403,
-1.80206,0.587463,
-1.80511,0.595093,
-1.80664,0.63324,
-1.80664,0.660706,
-1.80817,0.611877,
-1.81122,0.588989,
-1.81427,0.595093,
-1.81885,0.622559,
-1.81885,0.653076,
-1.81885,0.613403,
-1.82648,0.587463,
-1.83105,0.587463,
-1.83105,0.627136,
-1.83411,0.653076,
-1.83411,0.614929,
-1.83716,0.585938,
-1.83716,0.592041,
-1.84021,0.624084,
-1.84021,0.650024,
-1.84174,0.616455,
-1.84174,0.595093,
-1.84174,0.595093,
-1.84326,0.62561,
-1.84174,0.650024,
-1.84479,0.617981,
-1.84631,0.593567,
-1.84631,0.593567,
-1.84784,0.62561,
-1.84937,0.65918,
-1.84784,0.621033,
-1.84326,0.598145,
-1.84631,0.590515,
-1.84326,0.622559,
-1.84479,0.654602,
-1.84937,0.621033,
-1.85089,0.595093,
-1.85089,0.595093,
-1.85242,0.631714,
-1.85852,0.654602,
-1.86157,0.608826,
-1.86768,0.598145,
-1.87073,0.593567,
-1.87378,0.627136,
-1.87683,0.654602,
-1.88293,0.631714,
-1.89056,0.59967,
-1.89667,0.598145,
-1.9043,0.631714,
-1.90735,0.654602,
-1.90887,0.62561,
-1.91498,0.601196,
-1.92261,0.598145,
-1.92413,0.628662,
-1.92719,0.653076,
-1.93024,0.622559,
-1.93329,0.593567,
-1.93329,0.595093,
-1.93634,0.62561,
-1.93787,0.643921,
-1.93634,0.624084,
-1.93481,0.588989,
-1.93787,0.602722,
-1.93939,0.634766,
-1.93787,0.654602,
-1.93176,0.631714,
-1.92719,0.593567,
-1.92108,0.588989,
-1.91345,0.636292,
-1.90735,0.656128,
-1.89667,0.628662,
-1.89056,0.585938,
-1.87836,0.59967,
-1.86768,0.627136,
-1.85547,0.654602,
-1.84021,0.631714,
-1.83105,0.585938,
-1.81732,0.593567,
-1.80359,0.627136,
-1.78375,0.653076,
-1.76697,0.627136,
-1.75018,0.592041,
-1.73645,0.598145,
-1.72119,0.631714,
-1.70135,0.654602,
-1.6922,0.631714,
-1.67542,0.588989,
-1.66321,0.593567,
-1.65558,0.627136,
-1.64185,0.654602,
-1.63116,0.631714,
-1.62354,0.592041,
-1.61743,0.59967,
-1.60828,0.631714,
-1.60217,0.654602,
-1.59454,0.631714,
-1.58539,0.588989,
-1.58386,0.59967,
-1.57623,0.639343,
-1.56708,0.656128,
-1.56097,0.636292,
-1.5564,0.593567,
-1.55182,0.595093,
-1.54877,0.628662,
-1.54266,0.653076,
-1.53961,0.624084,
-1.53809,0.593567,
-1.53961,0.598145,
-1.53503,0.627136,
-1.53198,0.657654,
-1.52893,0.636292,
-1.5274,0.593567,
-1.52435,0.602722,
-1.52283,0.63324,
-1.52435,0.657654,
-1.52435,0.639343,
-1.5274,0.595093,
-1.5274,0.604248,
-1.53046,0.63324,
-1.53198,0.65918,
-1.53046,0.640869,
-1.53046,0.593567,
-1.53198,0.601196,
-1.53351,0.636292,
-1.53351,0.657654,
-1.53809,0.643921,
-1.53961,0.595093,
-1.54266,0.602722,
-1.54419,0.631714,
-1.54266,0.65918,
-1.54114,0.643921,
-1.54266,0.59967,
-1.54877,0.604248,
-1.54572,0.628662,
-1.54877,0.654602,
-1.54877,0.642395,
-1.54419,0.595093,
-1.54572,0.6073,
-1.54877,0.636292,
-1.55029,0.660706,
-1.54877,0.640869,
-1.54572,0.593567,
-1.54572,0.608826,
-1.54419,0.634766,
-1.53961,0.662231,
-1.53809,0.660706,
-1.53656,0.627136,
-1.53046,0.604248,
-1.53198,0.631714,
-1.5213,0.665283,
-1.52283,0.65155,
-1.51978,0.595093,
-1.51825,0.582886,
-1.5152,0.637817,
-1.51062,0.656128,
-1.50604,0.653076,
-1.50604,0.578308,
-1.50604,0.602722,
-1.50299,0.63324,
-1.49994,0.660706,
-1.49384,0.636292,
-1.49536,0.593567,
-1.49841,0.611877,
-1.50146,0.637817,
-1.50146,0.660706,
-1.50299,0.645447,
-1.49689,0.59967,
-1.49689,0.601196,
-1.49994,0.634766,
-1.49994,0.65918,
-1.49841,0.643921,
-1.49841,0.593567,
-1.49994,0.601196,
-1.49841,0.636292,
-1.49841,0.665283,
-1.49994,0.648499,
-1.50146,0.59967,
-1.50757,0.601196,
-1.50757,0.634766,
-1.50909,0.65918,
-1.51215,0.648499,
-1.51672,0.59967,
-1.51978,0.598145,
-1.51978,0.628662,
-1.5213,0.671387,
-1.5274,0.646973,
-1.52893,0.588989,
-1.53198,0.602722,
-1.53351,0.642395,
-1.53503,0.660706,
-1.53503,0.640869,
-1.53351,0.598145,
-1.53503,0.601196,
-1.53503,0.634766,
-1.54114,0.660706,
-1.53961,0.650024,
-1.54266,0.593567,
-1.54572,0.601196,
-1.54877,0.628662,
-1.55029,0.65918,
-1.55029,0.653076,
-1.55487,0.59967,
-1.5564,0.59967,
-1.55945,0.636292,
-1.56097,0.665283,
-1.56403,0.648499,
-1.56555,0.601196,
-1.57623,0.59967,
-1.57776,0.624084,
-1.58386,0.65918,
-1.58691,0.645447,
-1.58844,0.602722,
-1.59302,0.601196,
-1.5976,0.637817,
-1.59912,0.662231,
-1.6037,0.648499,
-1.60522,0.602722,
-1.60828,0.598145,
-1.61285,0.634766,
-1.61896,0.65918,
-1.62201,0.650024,
-1.62354,0.604248,
-1.62811,0.59967,
-1.63269,0.636292,
-1.63269,0.665283,
-1.63116,0.648499,
-1.63422,0.601196,
-1.63422,0.588989,
-1.63574,0.636292,
-1.63574,0.666809,
-1.64185,0.653076,
-1.6449,0.605774,
-1.64642,0.6073,
-1.65253,0.642395,
-1.65558,0.666809,
-1.65558,0.648499,
-1.65863,0.601196,
-1.66016,0.598145,
-1.65863,0.639343,
-1.65863,0.665283,
-1.66016,0.648499,
-1.66016,0.601196,
-1.66321,0.605774,
-1.66473,0.63324,
-1.67236,0.665283,
-1.67084,0.65155,
-1.67694,0.602722,
-1.67847,0.601196,
-1.67847,0.636292,
-1.67999,0.665283,
-1.68152,0.650024,
-1.68762,0.611877,
-1.6922,0.601196,
-1.69373,0.637817,
-1.6983,0.668335,
-1.69983,0.65155,
-1.70441,0.662231,
-1.70898,0.59967,
-1.71051,0.642395,
-1.70746,0.668335,
-1.71051,0.65918,
-1.71356,0.598145,
-1.71814,0.601196,
-1.72424,0.640869,
-1.72729,0.704956,
-1.73035,0.65155,
-1.73645,0.608826,
-1.73798,0.604248,
-1.74103,0.637817,
-1.74713,0.668335,
-1.75171,0.653076,
-1.75934,0.604248,
-1.76239,0.59967,
-1.76697,0.636292,
-1.76544,0.665283,
-1.77155,0.650024,
-1.76849,0.6073,
-1.77155,0.605774,
-1.76544,0.63324,
-1.76697,0.665283,
-1.76544,0.653076,
-1.76086,0.602722,
-1.75476,0.598145,
-1.74713,0.640869,
-1.73798,0.668335,
-1.72729,0.648499,
-1.71051,0.63324,
-1.69373,0.605774,
-1.6861,0.634766,
-1.67084,0.665283,
-1.65558,0.650024,
-1.63879,0.602722,
-1.62506,0.602722,
-1.61133,0.613403,
-1.59912,0.679016,
-1.58539,0.653076,
-1.57166,0.598145,
-1.55945,0.605774,
-1.54572,0.640869,
-1.53503,0.666809,
-1.51978,0.682068,
-1.50604,0.611877,
-1.49384,0.598145,
-1.4801,0.636292,
-1.46942,0.672913,
-1.46179,0.634766,
-1.45721,0.608826,
-1.44958,0.59967,
-1.44043,0.636292,
-1.43127,0.653076,
-1.42517,0.653076,
-1.41449,0.613403,
-1.40686,0.601196,
-1.40686,0.637817,
-1.39771,0.671387,
-1.39465,0.653076,
-1.39008,0.614929,
-1.3916,0.601196,
-1.39008,0.640869,
-1.38702,0.668335,
-1.38702,0.653076,
-1.3855,0.611877,
-1.37939,0.602722,
-1.37482,0.643921,
-1.37482,0.669861,
-1.37329,0.65918,
-1.37329,0.614929,
-1.37177,0.6073,
-1.38245,0.640869,
-1.37787,0.67749,
-1.37329,0.653076,
-1.37482,0.62561,
-1.37329,0.601196,
-1.37329,0.642395,
-1.37482,0.668335,
-1.38245,0.608826,
-1.38702,0.617981,
-1.38702,0.601196,
-1.3916,0.637817,
-1.39313,0.669861,
-1.39465,0.65155,
-1.39771,0.611877,
-1.40076,0.601196,
-1.40381,0.639343,
-1.40533,0.662231,
-1.39923,0.65155,
-1.40228,0.614929,
-1.40076,0.601196,
-1.39923,0.642395,
-1.40228,0.665283,
-1.39618,0.654602,
-1.39923,0.614929,
-1.40228,0.605774,
-1.40381,0.646973,
-1.40381,0.665283,
-1.40381,0.650024,
-1.40686,0.613403,
-1.40533,0.634766,
-1.40228,0.637817,
-1.40076,0.662231,
-1.40381,0.650024,
-1.40076,0.614929,
-1.40076,0.602722,
-1.39771,0.645447,
-1.39771,0.65918,
-1.39313,0.648499,
-1.38855,0.614929,
-1.38855,0.593567,
-1.38245,0.637817,
-1.3855,0.657654,
-1.37939,0.648499,
-1.38092,0.616455,
-1.38092,0.601196,
-1.37787,0.636292,
-1.37787,0.660706,
-1.37329,0.65155,
-1.37329,0.614929,
-1.37482,0.59967,
-1.37939,0.639343,
-1.38245,0.653076,
-1.38245,0.650024,
-1.37939,0.6073,
-1.38092,0.605774,
-1.38245,0.634766,
-1.38397,0.660706,
-1.3855,0.65155,
-1.3916,0.611877,
-1.39465,0.637817,
-1.39618,0.63324,
-1.39313,0.660706,
-1.39618,0.650024,
-1.39923,0.613403,
-1.40076,0.59967,
-1.40076,0.637817,
-1.40381,0.662231,
-1.40533,0.648499,
-1.40381,0.617981,
-1.40533,0.601196,
-1.40839,0.627136,
-1.41296,0.656128,
-1.41449,0.646973,
-1.41602,0.617981,
-1.42059,0.598145,
-1.4267,0.636292,
