-0.91095,1.27411,
-0.918579,1.26801,
-0.927734,1.26343,
-0.939941,1.27106,
-0.946045,1.27258,
-0.959778,1.27258,
-0.970459,1.26648,
-0.979614,1.26648,
-0.990295,1.26953,
-1.00555,1.27258,
-1.01929,1.27563,
-1.03455,1.26648,
-1.0498,1.27258,
-1.05896,1.26801,
-1.07269,1.27563,
-1.08643,1.27411,
-1.10168,1.27258,
-1.12,1.26953,
-1.13678,1.27411,
-1.15204,1.27716,
-1.17188,1.27411,
-1.18713,1.26953,
-1.20544,1.26953,
-1.22375,1.26953,
-1.23596,1.27411,
-1.25427,1.27411,
-1.26495,1.27258,
-1.28326,1.27563,
-1.297,1.27258,
-1.31226,1.27563,
-1.33057,1.27563,
-1.3443,1.26801,
-1.36261,1.27411,
-1.37482,1.27258,
-1.3916,1.27869,
-1.40228,1.27869,
-1.42059,1.27258,
-1.43433,1.27258,
-1.45264,1.27106,
-1.46637,1.28174,
-1.48315,1.27563,
-1.49536,1.27258,
-1.51672,1.27563,
-1.53198,1.27563,
-1.55182,1.28174,
-1.56403,1.28021,
-1.57471,1.27258,
-1.59149,1.27411,
-1.59912,1.27411,
-1.6098,1.28326,
-1.62048,1.28174,
-1.62811,1.27563,
-1.63574,1.27411,
-1.64185,1.27411,
-1.65253,1.28174,
-1.65863,1.28174,
-1.66321,1.27411,
-1.67389,1.27563,
-1.68152,1.27716,
-1.69525,1.28021,
-1.70746,1.28326,
-1.72119,1.27411,
-1.73492,1.27716,
-1.74561,1.27716,
-1.75934,1.28326,
-1.77002,1.28326,
-1.78375,1.27258,
-1.79901,1.27563,
-1.80969,1.28021,
-1.81885,1.28479,
-1.83563,1.28479,
-1.85089,1.27716,
-1.86615,1.27716,
-1.88293,1.27411,
-1.90125,1.28632,
-1.91193,1.28784,
-1.92719,1.27869,
-1.93329,1.28021,
-1.93939,1.27716,
-1.94244,1.28784,
-1.9455,1.28479,
-1.9455,1.28021,
-1.93939,1.27869,
-1.93176,1.27869,
-1.92108,1.28479,
-1.90735,1.28937,
-1.88599,1.28326,
-1.86615,1.28021,
-1.84021,1.28174,
-1.81274,1.28632,
-1.78223,1.28632,
-1.74866,1.28326,
-1.71204,1.28632,
-1.67236,1.28174,
-1.63269,1.29242,
-1.59607,1.28784,
-1.55487,1.28174,
-1.51062,1.28326,
-1.46484,1.28326,
-1.42212,1.29089,
-1.37482,1.28784,
-1.33209,1.28174,
-1.28479,1.28326,
-1.24054,1.28479,
-1.19019,1.28784,
-1.14441,1.28479,
-1.09558,1.28326,
-1.05133,1.28174,
-1.00861,1.28632,
-0.964355,1.29089,
-0.920105,1.28784,
-0.87738,1.28632,
-0.839233,1.28326,
-0.799561,1.28632,
-0.765991,1.29089,
-0.730896,1.28784,
-0.698853,1.28479,
-0.669861,1.28021,
-0.646973,1.28326,
-0.624084,1.29089,
-0.601196,1.28784,
-0.58136,1.28479,
-0.566101,1.28174,
-0.549316,1.28326,
-0.532532,1.29242,
-0.521851,1.28479,
-0.505066,1.28479,
-0.491333,1.28021,
-0.483704,1.28479,
-0.473022,1.28784,
-0.468445,1.28937,
-0.460815,1.28632,
-0.460815,1.28479,
-0.45929,1.28784,
-0.457764,1.29089,
-0.457764,1.28937,
-0.453186,1.28784,
-0.456238,1.28174,
-0.457764,1.28784,
-0.463867,1.29089,
-0.465393,1.28632,
-0.473022,1.28784,
-0.476074,1.28174,
-0.483704,1.28937,
-0.491333,1.29089,
-0.497437,1.28784,
-0.506592,1.28632,
-0.520325,1.28021,
-0.52948,1.28937,
-0.544739,1.29242,
-0.558472,1.28937,
-0.570679,1.28632,
-0.58136,1.28174,
-0.601196,1.28784,
-0.616455,1.29089,
-0.627136,1.28937,
-0.636292,1.28784,
-0.648499,1.28174,
-0.65918,1.28784,
-0.665283,1.29547,
-0.674438,1.29089,
-0.691223,1.28632,
-0.701904,1.28021,
-0.709534,1.28937,
-0.718689,1.29089,
-0.72937,1.29547,
-0.733948,1.28784,
-0.743103,1.28174,
-0.752258,1.28784,
-0.759888,1.29089,
-0.764465,1.28937,
-0.769043,1.28937,
-0.770569,1.28021,
-0.776672,1.28784,
-0.779724,1.29089,
-0.784302,1.28784,
-0.790405,1.28937,
-0.799561,1.28021,
-0.801086,1.28937,
-0.805664,1.28937,
-0.808716,1.28937,
-0.811768,1.28937,
-0.817871,1.27716,
-0.820923,1.28784,
-0.827026,1.29547,
-0.83313,1.29242,
-0.834656,1.28937,
-0.837708,1.27716,
-0.848389,1.28479,
-0.852966,1.29547,
-0.863647,1.29089,
-0.869751,1.28937,
-0.874329,1.27869,
-0.881958,1.28784,
-0.888062,1.29547,
-0.895691,1.28784,
-0.901794,1.29089,
-0.909424,1.27869,
-0.918579,1.28784,
-0.924683,1.28784,
-0.933838,1.28784,
-0.942993,1.29089,
-0.952148,1.28021,
-0.965881,1.28937,
-0.975037,1.28784,
-0.987244,1.29089,
-1.00098,1.28937,
-1.01471,1.27869,
-1.02539,1.28784,
-1.04065,1.28937,
-1.04675,1.28784,
-1.05743,1.29089,
-1.06812,1.28326,
-1.0788,1.28632,
-1.0849,1.28784,
-1.09253,1.28784,
-1.10474,1.28784,
-1.10931,1.28021,
-1.11694,1.28784,
-1.12915,1.28784,
-1.13983,1.28784,
-1.15204,1.28784,
-1.16425,1.27869,
-1.17493,1.28632,
-1.18561,1.28784,
-1.19629,1.28632,
-1.21002,1.28326,
-1.22833,1.27716,
-1.23596,1.29242,
-1.25122,1.28632,
-1.26648,1.28784,
-1.27716,1.28326,
-1.29395,1.27716,
-1.31073,1.28784,
-1.32751,1.28632,
-1.3382,1.28632,
-1.35193,1.28021,
-1.36719,1.28021,
-1.38245,1.28632,
-1.38855,1.29089,
-1.39923,1.28479,
-1.41296,1.28174,
-1.42822,1.28326,
-1.43738,1.28632,
-1.44806,1.28784,
-1.45416,1.28632,
-1.46332,1.28021,
-1.47095,1.27716,
-1.48315,1.28937,
-1.49536,1.28326,
-1.50604,1.28479,
-1.51672,1.27716,
-1.52893,1.27716,
-1.54266,1.28326,
-1.56097,1.28937,
-1.57928,1.28326,
-1.59454,1.27563,
-1.61285,1.27869,
-1.62964,1.28326,
-1.64642,1.28326,
-1.66016,1.28326,
-1.67389,1.27411,
-1.68762,1.28021,
-1.69525,1.28326,
-1.70593,1.28784,
-1.72424,1.28632,
-1.73492,1.27869,
-1.7395,1.27716,
-1.75171,1.28632,
-1.76544,1.28937,
-1.77307,1.28784,
-1.78528,1.27869,
-1.79291,1.28174,
-1.80206,1.28326,
-1.81427,1.28632,
-1.82495,1.28326,
-1.83563,1.27716,
-1.84021,1.27869,
-1.84479,1.27869,
-1.86005,1.28632,
-1.86157,1.28174,
-1.86768,1.27716,
-1.86615,1.28021,
-1.8631,1.28326,
-1.86768,1.28479,
-1.86005,1.28326,
-1.85394,1.27716,
-1.84326,1.27716,
-1.83258,1.28021,
-1.8158,1.28632,
-1.79138,1.28174,
-1.77002,1.27563,
-1.7395,1.27869,
-1.71356,1.28326,
-1.68152,1.28632,
-1.64795,1.28326,
-1.61438,1.27563,
-1.57776,1.27563,
-1.53961,1.27869,
-1.49841,1.27716,
-1.46179,1.28326,
-1.41602,1.27869,
-1.37024,1.27716,
-1.32599,1.28021,
-1.27563,1.28174,
-1.23138,1.28174,
-1.18866,1.27869,
-1.14746,1.28021,
-1.10626,1.27716,
-1.05133,1.28174,
-1.00403,1.28174,
-0.958252,1.27869,
-0.923157,1.28021,
-0.881958,1.27869,
-0.846863,1.28174,
-0.810242,1.28479,
-0.778198,1.27563,
-0.747681,1.27869,
-0.720215,1.27411,
-0.692749,1.28174,
-0.662231,1.28021,
-0.634766,1.27716,
-0.611877,1.27563,
-0.587463,1.27411,
-0.567627,1.28021,
-0.552368,1.28326,
-0.535583,1.28021,
-0.514221,1.27563,
-0.500488,1.27563,
-0.488281,1.28021,
-0.4776,1.28174,
-0.473022,1.27869,
-0.462341,1.27716,
-0.456238,1.27258,
-0.453186,1.28479,
-0.454712,1.28174,
-0.45166,1.27716,
-0.450134,1.27563,
-0.450134,1.27258,
-0.453186,1.27869,
-0.454712,1.27869,
-0.45929,1.27716,
-0.462341,1.27716,
-0.465393,1.26953,
-0.471497,1.28174,
-0.479126,1.27716,
-0.492859,1.27869,
-0.497437,1.27411,
-0.505066,1.26953,
-0.520325,1.27716,
-0.531006,1.28174,
-0.540161,1.27869,
-0.552368,1.27869,
-0.558472,1.27258,
-0.572205,1.28174,
-0.582886,1.28021,
-0.595093,1.28021,
-0.604248,1.27411,
-0.613403,1.26953,
-0.622559,1.27869,
-0.628662,1.28021,
-0.637817,1.27869,
-0.643921,1.27869,
-0.65155,1.27258,
-0.660706,1.27563,
-0.666809,1.28174,
-0.675964,1.27716,
-0.679016,1.27869,
-0.68512,1.27106,
-0.694275,1.27563,
-0.698853,1.28021,
-0.698853,1.27563,
-0.701904,1.27563,
-0.704956,1.27258,
-0.704956,1.27716,
-0.708008,1.28021,
-0.71106,1.27563,
-0.712585,1.27563,
-0.714111,1.26801,
-0.718689,1.27869,
-0.724792,1.27869,
-0.726318,1.27563,
-0.730896,1.27716,
-0.733948,1.27411,
-0.732422,1.28021,
-0.735474,1.27716,
-0.738525,1.27716,
-0.738525,1.27716,
-0.743103,1.27411,
-0.747681,1.28174,
-0.75531,1.27869,
-0.761414,1.27563,
-0.769043,1.27716,
-0.776672,1.27106,
-0.779724,1.28021,
-0.793457,1.28021,
-0.798035,1.27563,
-0.808716,1.27716,
-0.820923,1.27258,
-0.828552,1.27563,
-0.842285,1.27716,
-0.849915,1.26953,
-0.862122,1.27563,
-0.871277,1.27106,
-0.880432,1.27563,
-0.892639,1.27716,
-0.904846,1.27411,
-0.91095,1.27411,
-0.921631,1.27106,
-0.93689,1.27716,
-0.947571,1.27869,
-0.9552,1.27563,
-0.965881,1.27716,
-0.971985,1.26953,
-0.98114,1.27869,
-0.990295,1.28021,
-1.00098,1.27716,
-1.01166,1.26953,
-1.02081,1.27106,
-1.03607,1.27411,
-1.04675,1.27563,
-1.05743,1.27716,
-1.07269,1.27258,
-1.08643,1.27258,
-1.10321,1.27716,
-1.11694,1.27869,
-1.13678,1.27563,
-1.15051,1.27106,
-1.16577,1.26953,
-1.18561,1.27563,
-1.20544,1.27716,
-1.22375,1.27716,
-1.24359,1.27411,
-1.26343,1.27106,
-1.28021,1.27411,
-1.30005,1.28021,
-1.31531,1.27563,
-1.32751,1.26801,
-1.34583,1.27258,
-1.35956,1.27716,
-1.37482,1.27869,
-1.39465,1.27716,
-1.40839,1.27258,
-1.42517,1.26953,
-1.44653,1.27869,
-1.46179,1.27716,
-1.47705,1.27563,
-1.49384,1.26801,
-1.51062,1.26953,
-1.53198,1.27563,
-1.54877,1.27411,
-1.57166,1.27869,
-1.58997,1.26953,
-1.60065,1.26801,
-1.61896,1.27716,
-1.63574,1.27563,
-1.64185,1.27716,
-1.66473,1.26953,
-1.67999,1.27106,
-1.6922,1.27563,
-1.70593,1.27869,
-1.72119,1.28021,
-1.73492,1.26801,
-1.74561,1.26648,
-1.76086,1.27563,
-1.77002,1.27563,
-1.7807,1.27716,
-1.7868,1.27106,
-1.79291,1.26801,
-1.79291,1.27563,
-1.79138,1.27411,
-1.78986,1.27411,
-1.78986,1.26953,
-1.78528,1.27106,
-1.7807,1.27869,
-1.7746,1.27716,
-1.76392,1.27411,
-1.74561,1.26953,
-1.73187,1.26801,
-1.71204,1.27563,
-1.6922,1.27563,
-1.66779,1.27716,
-1.64642,1.27106,
-1.62201,1.26801,
-1.59454,1.27563,
-1.5625,1.27563,
-1.53046,1.27869,
-1.49689,1.26801,
-1.46179,1.26801,
-1.42212,1.27258,
-1.37939,1.27411,
-1.33514,1.27563,
-1.29547,1.26495,
-1.25427,1.26648,
-1.21002,1.27563,
-1.16577,1.27411,
-1.12762,1.27563,
-1.08795,1.26801,
-1.04675,1.26343,
-1.00861,1.27563,
-0.970459,1.27411,
-0.93689,1.27563,
-0.900269,1.26801,
-0.866699,1.26495,
-0.839233,1.27258,
-0.810242,1.27106,
-0.782776,1.27258,
-0.758362,1.26343,
-0.730896,1.26495,
-0.708008,1.27563,
-0.686646,1.26953,
-0.668335,1.27106,
-0.650024,1.26343,
-0.631714,1.26038,
-0.614929,1.27258,
-0.602722,1.27106,
-0.596619,1.26953,
-0.58136,1.26343,
-0.575256,1.25885,
-0.569153,1.26953,
-0.564575,1.26801,
-0.556946,1.27106,
-0.558472,1.26801,
-0.558472,1.25885,
-0.559998,1.27258,
-0.558472,1.26648,
-0.564575,1.27106,
-0.566101,1.26038,
-0.575256,1.26343,
-0.585938,1.27106,
-0.585938,1.26495,
-0.593567,1.27106,
-0.596619,1.26038,
-0.604248,1.26038,
-0.613403,1.26801,
-0.62561,1.26953,
-0.63324,1.26801,
-0.640869,1.26343,
-0.653076,1.25885,
-0.666809,1.26801,
-0.679016,1.26801,
-0.68512,1.26648,
-0.700378,1.26343,
-0.715637,1.26343,
-0.72937,1.26648,
-0.741577,1.26953,
-0.758362,1.26953,
-0.769043,1.26343,
-0.779724,1.26343,
-0.796509,1.26801,
-0.808716,1.27106,
-0.827026,1.26648,
-0.839233,1.25885,
-0.852966,1.26038,
-0.862122,1.26953,
-0.871277,1.27106,
-0.881958,1.26801,
-0.889587,1.25885,
-0.901794,1.26038,
-0.909424,1.26801,
-0.915527,1.26953,
-0.927734,1.26495,
-0.939941,1.26648,
-0.946045,1.26038,
-0.953674,1.26648,
-0.961304,1.27258,
-0.970459,1.26953,
-0.976563,1.26038,
-0.985718,1.26343,
-0.990295,1.26801,
-0.994873,1.26648,
-1.00555,1.26648,
-1.01318,1.2558,
-1.01776,1.26038,
-1.02692,1.26801,
-1.0376,1.26801,
-1.04828,1.26648,
-1.05743,1.25885,
-1.06506,1.26038,
-1.0788,1.26648,
-1.08948,1.26953,
-1.10474,1.26038,
-1.11542,1.25885,
-1.12915,1.26038,
-1.14136,1.26648,
-1.14899,1.26953,
-1.16272,1.26343,
-1.1734,1.26038,
-1.19019,1.26343,
-1.20239,1.26495,
-1.2207,1.27106,
-1.23444,1.26343,
-1.25122,1.26038,
-1.26343,1.25732,
-1.28021,1.26495,
-1.28937,1.26953,
-1.3031,1.26495,
-1.31531,1.25885,
-1.33057,1.26038,
-1.3443,1.26953,
-1.35651,1.27106,
-1.37177,1.26343,
-1.38397,1.26343,
-1.40076,1.25885,
-1.41296,1.26495,
-1.42517,1.27258,
-1.44043,1.26038,
-1.45569,1.26495,
-1.47095,1.25885,
-1.48315,1.26495,
-1.49384,1.26953,
-1.50909,1.26495,
-1.52435,1.26343,
-1.53961,1.25732,
-1.55487,1.27106,
-1.5686,1.27563,
-1.58386,1.26801,
-1.60217,1.26648,
-1.61285,1.26343,
-1.63422,1.26953,
-1.64642,1.27106,
-1.66321,1.26648,
-1.67847,1.26343,
-1.6983,1.26038,
-1.71356,1.26801,
-1.73035,1.27258,
-1.74103,1.26801,
-1.76239,1.26343,
-1.77917,1.26801,
-1.79596,1.27106,
-1.81732,1.27563,
-1.83868,1.26648,
-1.85394,1.26495,
-1.87073,1.26648,
-1.89056,1.27258,
-1.90735,1.27716,
-1.92261,1.27106,
-1.93939,1.26648,
-1.95618,1.26038,
-1.97754,1.26801,
-1.99585,1.27716,
-2.00806,1.26801,
-2.02484,1.26648,
-2.03857,1.26495,
-2.05536,1.27106,
-2.07214,1.28326,
-2.08893,1.26953,
-2.10419,1.26648,
-2.11182,1.26801,
-2.12708,1.27106,
-2.14233,1.27869,
-2.15759,1.27258,
-2.17285,1.27106,
-2.18506,1.26953,
-2.19879,1.27258,
-2.21405,1.28021,
-2.22626,1.27258,
-2.24457,1.27258,
-2.25525,1.27106,
-2.27051,1.27411,
-2.28424,1.28174,
-2.2995,1.27106,
-2.31323,1.27258,
-2.32544,1.27106,
-2.3407,1.27716,
-2.35138,1.28326,
-2.36206,1.26953,
-2.37885,1.27563,
-2.38953,1.27258,
-2.40326,1.27869,
-2.41547,1.28326,
-2.42767,1.27258,
-2.43835,1.27258,
-2.44751,1.27411,
-2.45514,1.28174,
-2.46582,1.28326,
-2.47192,1.27411,
-2.47192,1.27563,
-2.47345,1.27716,
-2.47192,1.28632,
-2.46429,1.28326,
-2.45667,1.28174,
-2.44751,1.27563,
-2.4353,1.27869,
-2.42004,1.28326,
-2.40631,1.28632,
-2.3941,1.28326,
-2.37579,1.28021,
-2.35443,1.28174,
-2.33307,1.28784,
-2.31323,1.28479,
-2.29034,1.28479,
-2.27051,1.28174,
-2.25067,1.28479,
-2.22321,1.28937,
-2.20184,1.28479,
-2.1759,1.28632,
-2.14844,1.28479,
-2.12097,1.28021,
-2.10114,1.29089,
-2.07367,1.28632,
-2.05078,1.28632,
-2.02332,1.28479,
-2.00348,1.28632,
-1.97601,1.28937,
-1.95618,1.28937,
-1.93329,1.28479,
-1.9043,1.28632,
-1.88293,1.28174,
-1.86157,1.29242,
-1.83868,1.28937,
-1.8219,1.28937,
-1.80664,1.28937,
-1.78375,1.28632,
-1.77307,1.29852,
-1.75629,1.29547,
-1.7395,1.28937,
-1.72424,1.28937,
-1.71204,1.28784,
-1.69983,1.29852,
-1.69067,1.30005,
-1.68152,1.28937,
-1.67084,1.29242,
-1.66168,1.28784,
-1.65558,1.30005,
-1.64948,1.29242,
-1.64032,1.297,
-1.63269,1.29242,
-1.62964,1.29089,
-1.62964,1.30157,
-1.63422,1.297,
-1.64032,1.29242,
-1.63727,1.28784,
-1.64185,1.29242,
-1.64642,1.30157,
-1.64948,1.29852,
-1.65558,1.29852,
-1.66016,1.29242,
-1.66931,1.29547,
-1.66931,1.30005,
-1.67847,1.29852,
-1.6861,1.30157,
-1.69373,1.29852,
-1.6983,1.297,
-1.70746,1.30615,
-1.71051,1.30157,
-1.71509,1.30005,
-1.72424,1.29852,
-1.73187,1.297,
-1.74103,1.30615,
-1.74866,1.30463,
-1.75171,1.30005,
-1.75781,1.30005,
-1.76392,1.29852,
-1.76544,1.30463,
-1.77002,1.30463,
-1.77765,1.30463,
-1.78375,1.29852,
-1.79291,1.29852,
-1.79596,1.30463,
-1.80511,1.30463,
-1.81122,1.3031,
-1.82037,1.30463,
-1.82953,1.3031,
-1.83868,1.3031,
-1.84326,1.30768,
-1.85089,1.30615,
-1.86005,1.30157,
-1.86768,1.29852,
-1.87378,1.30615,
-1.87836,1.30768,
-1.88293,1.30615,
-1.88599,1.30157,
-1.89514,1.30005,
-1.89819,1.30768,
-1.90735,1.31073,
-1.9104,1.3092,
-1.9165,1.30463,
-1.92261,1.30157,
-1.92871,1.3092,
-1.93787,1.30768,
-1.94397,1.31073,
-1.95465,1.30615,
-1.96686,1.3031,
-1.97449,1.30768,
-1.98212,1.30768,
-1.98975,1.31073,
-1.9989,1.30463,
-2.00653,1.30768,
-2.01569,1.30768,
-2.01874,1.31226,
-2.02637,1.31683,
-2.03552,1.30615,
-2.0401,1.30463,
-2.05078,1.30768,
-2.06146,1.3092,
-2.06909,1.31378,
-2.07977,1.30615,
-2.09198,1.30768,
-2.09656,1.31226,
-2.10876,1.31073,
-2.11792,1.31683,
-2.12708,1.30615,
-2.13623,1.30463,
-2.14691,1.30768,
-2.15759,1.31073,
-2.16827,1.31531,
-2.17743,1.30768,
-2.18506,1.30768,
-2.19727,1.3092,
-2.21405,1.31378,
-2.22168,1.31226,
-2.23236,1.30768,
-2.24762,1.30463,
-2.25525,1.31226,
-2.26593,1.31073,
-2.27966,1.31226,
-2.28882,1.31073,
-2.29645,1.30615,
-2.31323,1.30768,
-2.32239,1.31378,
-2.33307,1.31226,
-2.34985,1.31378,
-2.36206,1.31073,
-2.37885,1.31073,
-2.39258,1.31378,
-2.41089,1.31226,
-2.42615,1.30768,
-2.4353,1.30615,
-2.44751,1.31226,
-2.46277,1.31378,
-2.47803,1.31378,
-2.49023,1.3092,
-2.50549,1.30768,
-2.5238,1.31378,
-2.53601,1.31073,
-2.54822,1.31226,
-2.5589,1.31073,
-2.57263,1.30463,
-2.58484,1.31073,
-2.59857,1.31226,
-2.60925,1.31531,
-2.62146,1.31073,
-2.63519,1.30615,
-2.64587,1.31378,
-2.65808,1.31378,
-2.67029,1.31531,
-2.67487,1.31073,
-2.6886,1.30768,
-2.69775,1.31378,
-2.70386,1.31531,
-2.71759,1.31531,
-2.72675,1.31226,
-2.7359,1.3092,
-2.74811,1.31378,
-2.76031,1.31683,
-2.77252,1.31531,
-2.78778,1.31073,
-2.79846,1.30768,
-2.81067,1.31378,
-2.8244,1.31226,
-2.83508,1.31683,
-2.84576,1.31073,
-2.85797,1.30768,
-2.86865,1.31226,
-2.88239,1.31531,
-2.89459,1.31531,
-2.90527,1.31073,
-2.92511,1.31073,
-2.93579,1.31378,
-2.94342,1.31378,
-2.95868,1.31226,
-2.96631,1.31073,
-2.97394,1.30768,
-2.98615,1.31226,
-3.0014,1.31378,
-3.01666,1.31683,
-3.01971,1.31073,
-3.03345,1.30768,
-3.04108,1.31226,
-3.04871,1.31683,
-3.06396,1.31989,
-3.07159,1.30768,
-3.08228,1.31226,
-3.0899,1.31531,
-3.10211,1.31836,
-3.11584,1.31683,
-3.12805,1.30768,
-3.14026,1.31073,
-3.15399,1.31683,
-3.16772,1.31836,
-3.17688,1.31836,
-3.18756,1.31226,
-3.19519,1.31226,
-3.20282,1.31378,
-3.21503,1.31683,
-3.22113,1.31683,
-3.22571,1.31073,
-3.23334,1.31073,
-3.24097,1.31378,
-3.24554,1.31531,
-3.25165,1.31836,
-3.2547,1.31226,
-3.25623,1.3092,
-3.25623,1.3092,
-3.2547,1.31836,
-3.25775,1.31683,
-3.2547,1.31226,
-3.25317,1.31073,
-3.25317,1.31226,
-3.24707,1.31683,
-3.23944,1.31836,
-3.22723,1.31226,
-3.21655,1.30768,
-3.20435,1.31378,
-3.19214,1.31836,
-3.18298,1.31683,
-3.17078,1.3092,
-3.15247,1.31073,
-3.14178,1.31226,
-3.12805,1.31836,
-3.11279,1.31531,
-3.10059,1.31378,
-3.08533,1.3092,
-3.07465,1.31226,
-3.06244,1.31531,
-3.04871,1.31531,
-3.04108,1.31073,
-3.02734,1.31226,
-3.01514,1.31226,
-3.0014,1.31531,
-2.99072,1.31531,
-2.97699,1.3092,
-2.96021,1.31073,
-2.948,1.31226,
-2.93884,1.31836,
-2.92969,1.31683,
-2.91595,1.31073,
-2.90985,1.31073,
-2.9068,1.31073,
-2.89764,1.31836,
-2.89001,1.31378,
-2.88391,1.3092,
-2.88086,1.31073,
-2.87781,1.3092,
-2.87018,1.31683,
-2.86255,1.31683,
-2.85797,1.31226,
-2.85797,1.3092,
-2.85492,1.31226,
-2.84882,1.31989,
-2.84424,1.31683,
-2.83813,1.30615,
-2.83661,1.31226,
-2.83203,1.31226,
-2.83203,1.31531,
-2.82898,1.31683,
-2.83051,1.3092,
-2.82745,1.31073,
-2.82898,1.31378,
-2.82898,1.31836,
-2.82898,1.31836,
-2.82898,1.30615,
-2.82898,1.31226,
-2.83051,1.31378,
-2.83661,1.31836,
-2.83508,1.31683,
-2.84119,1.3092,
-2.84729,1.31226,
-2.85034,1.31073,
-2.85492,1.31683,
-2.85797,1.31836,
-2.8656,1.31226,
-2.87323,1.31073,
-2.87628,1.31226,
-2.87781,1.31531,
-2.88239,1.31836,
-2.88544,1.3092,
-2.89154,1.3092,
-2.89612,1.31226,
-2.89612,1.31836,
-2.89917,1.31836,
-2.90375,1.31226,
-2.90222,1.31226,
-2.90375,1.31378,
-2.90527,1.31836,
-2.90527,1.31226,
-2.90375,1.31226,
-2.90527,1.31378,
-2.90527,1.3092,
-2.9068,1.31836,
-2.9068,1.31226,
-2.90833,1.31073,
-2.9068,1.3092,
-2.90833,1.31226,
-2.90833,1.31226,
-2.90833,1.31683,
-2.9129,1.31073,
-2.90985,1.3092,
-2.91443,1.31226,
-2.91748,1.31989,
-2.91595,1.31531,
-2.91748,1.31073,
-2.91901,1.31226,
-2.91901,1.31226,
-2.92053,1.31836,
-2.92664,1.31683,
-2.92358,1.31073,
-2.91901,1.31378,
-2.91443,1.31226,
-2.9129,1.31683,
-2.90985,1.31378,
-2.90985,1.31226,
-2.9129,1.3092,
-2.91748,1.31378,
-2.92053,1.31683,
-2.92664,1.31378,
-2.93579,1.31073,
-2.93884,1.3092,
-2.94495,1.31378,
-2.94495,1.31531,
-2.95105,1.31378,
-2.95258,1.30768,
-2.95868,1.3031,
-2.96631,1.31531,
-2.96783,1.31531,
-2.96936,1.31378,
-2.97241,1.31531,
-2.97852,1.30768,
-2.98157,1.31226,
-2.98309,1.31683,
-2.99072,1.31226,
-2.99377,1.31073,
-3.0014,1.30768,
-3.00293,1.31531,
-3.00751,1.31683,
-3.01208,1.31226,
-3.01819,1.31378,
-3.02734,1.3031,
-3.03345,1.31531,
-3.03955,1.31683,
-3.04718,1.31073,
-3.05328,1.31226,
-3.05939,1.3092,
-3.06702,1.31226,
-3.06702,1.31073,
-3.07465,1.31073,
-3.08075,1.31073,
-3.08838,1.30615,
-3.09601,1.31226,
-3.10516,1.31378,
-3.11279,1.31378,
-3.125,1.31226,
-3.13263,1.3031,
-3.13721,1.31073,
-3.14331,1.31531,
-3.14789,1.31378,
-3.15552,1.31226,
-3.16162,1.30463,
-3.16925,1.31226,
-3.17535,1.31226,
-3.18146,1.31226,
-3.18909,1.31378,
-3.19977,1.30005,
-3.20892,1.3092,
-3.21503,1.31378,
-3.22113,1.31073,
-3.23029,1.31073,
-3.24097,1.3031,
-3.24249,1.31226,
-3.24707,1.31378,
-3.25317,1.31073,
-3.26233,1.31073,
-3.26843,1.30157,
-3.27301,1.31226,
-3.28064,1.3092,
-3.28522,1.31073,
-3.28369,1.31073,
-3.28827,1.30157,
-3.29285,1.3092,
-3.29742,1.31226,
-3.30658,1.31378,
-3.31116,1.3092,
-3.31573,1.30157,
-3.31879,1.31226,
-3.32336,1.31378,
-3.33099,1.31531,
-3.3371,1.3092,
-3.33862,1.29852,
-3.34473,1.30768,
-3.3493,1.31378,
-3.35846,1.3092,
-3.36609,1.31073,
-3.37372,1.30005,
-3.38135,1.30615,
-3.38898,1.31378,
-3.39508,1.31226,
-3.40576,1.31073,
-3.41187,1.29852,
-3.41492,1.30615,
-3.41492,1.3092,
-3.41492,1.31073,
-3.41492,1.30768,
-3.41949,1.30005,
-3.42255,1.30615,
-3.42255,1.31073,
-3.42255,1.3092,
-3.42865,1.30463,
-3.43018,1.29852,
-3.43323,1.30768,
-3.43475,1.3092,
-3.4317,1.30615,
-3.43323,1.30615,
-3.4317,1.29852,
-3.42255,1.3092,
-3.42102,1.30768,
-3.41339,1.3092,
-3.41034,1.30615,
-3.39966,1.297,
-3.3905,1.3092,
-3.37372,1.30768,
-3.35846,1.30768,
-3.35388,1.3031,
-3.34167,1.30157,
-3.33405,1.31073,
-3.32642,1.3092,
-3.31726,1.30615,
-3.30811,1.30463,
-3.29437,1.297,
-3.28674,1.3031,
-3.27454,1.30615,
-3.26233,1.30768,
-3.25317,1.30157,
-3.24097,1.29852,
-3.22418,1.30615,
-3.2135,1.3092,
-3.19519,1.30463,
-3.18298,1.30463,
-3.17535,1.29852,
-3.1601,1.30463,
-3.14636,1.30768,
-3.14026,1.3031,
-3.12653,1.30157,
-3.11584,1.29852,
-3.10211,1.30768,
-3.09296,1.30463,
-3.08533,1.30463,
-3.07922,1.30005,
-3.07465,1.29852,
-3.07312,1.30005,
-3.06854,1.3031,
-3.06549,1.3031,
-3.05481,1.29547,
-3.05634,1.297,
-3.05176,1.30157,
-3.04413,1.3031,
-3.04413,1.3031,
-3.04108,1.29547,
-3.04413,1.297,
-3.03955,1.30005,
-3.03802,1.30615,
-3.03345,1.30157,
-3.03345,1.29089,
-3.0304,1.30005,
-3.03192,1.30157,
-3.03345,1.30463,
-3.03192,1.30157,
-3.0365,1.29089,
-3.03802,1.29547,
-3.03802,1.30157,
-3.03955,1.30157,
-3.0426,1.29852,
-3.04108,1.29242,
-3.03802,1.29547,
-3.0304,1.297,
-3.02277,1.30157,
-3.02124,1.29852,
-3.02124,1.29242,
-3.02124,1.297,
-3.02124,1.297,
-3.02124,1.29852,
-3.02277,1.29852,
-3.02124,1.29089,
-3.01819,1.29242,
-3.01819,1.297,
-3.01971,1.29852,
-3.02124,1.29547,
-3.02277,1.29089,
-3.02124,1.29242,
-3.02429,1.29547,
-3.02429,1.30157,
-3.02277,1.297,
-3.01971,1.29089,
-3.01819,1.29242,
-3.01514,1.29547,
-3.01514,1.297,
-3.01361,1.29852,
-3.01361,1.29242,
-3.00598,1.28784,
-3.00903,1.29089,
-3.00598,1.29852,
-3.00293,1.29547,
-3.0014,1.29547,
-2.99683,1.29089,
-2.99072,1.29089,
-2.9892,1.29852,
-2.98767,1.29852,
-2.98767,1.28937,
-2.98462,1.29242,
-2.98004,1.29089,
-2.97699,1.29852,
-2.97394,1.29547,
-2.97699,1.29089,
-2.97546,1.29089,
-2.97699,1.28937,
-2.97852,1.29852,
-2.98004,1.29089,
-2.98004,1.28937,
-2.98309,1.29089,
-2.98309,1.28937,
-2.98309,1.297,
-2.98615,1.29547,
-2.98462,1.29242,
-2.98767,1.28937,
-2.99377,1.28937,
-2.9953,1.29242,
-2.9892,1.297,
-2.99377,1.29242,
-2.99377,1.28937,
-2.99683,1.28479,
-2.99835,1.30005,
-2.99835,1.28937,
-3.00446,1.28937,
-3.00446,1.28937,
-3.00903,1.28479,
-3.00751,1.297,
-3.01056,1.29242,
-3.01514,1.29547,
-3.01361,1.28632,
-3.01666,1.28632,
-3.01666,1.29089,
-3.01361,1.29852,
-3.01514,1.29242,
-3.01971,1.28937,
-3.01971,1.28174,
-3.01819,1.297,
-3.01819,1.29547,
-3.01819,1.29242,
-3.01666,1.28784,
-3.01514,1.28174,
-3.01514,1.29242,
-3.01819,1.28937,
-3.02429,1.28937,
-3.02277,1.28784,
-3.02887,1.28326,
-3.0304,1.29547,
-3.03345,1.29242,
-3.0365,1.28937,
-3.03955,1.28784,
-3.04108,1.28326,
-3.04565,1.29547,
-3.05328,1.29242,
-3.05634,1.29547,
-3.06702,1.28937,
-3.06549,1.28632,
-3.07159,1.28937,
-3.07617,1.29547,
-3.07922,1.29089,
-3.08838,1.28937,
-3.08838,1.28632,
-3.09601,1.28784,
-3.09753,1.29547,
-3.09906,1.28937,
-3.10364,1.28784,
-3.10516,1.28632,
-3.10364,1.29089,
-3.10669,1.29089,
-3.10669,1.28937,
-3.11279,1.28784,
-3.11432,1.28632,
-3.1189,1.29242,
-3.12195,1.29242,
-3.1311,1.28784,
-3.13568,1.28937,
-3.13721,1.28632,
-3.14331,1.29089,
-3.14484,1.29242,
-3.14636,1.28937,
-3.14789,1.28937,
-3.15247,1.28479,
-3.15704,1.29242,
-3.15704,1.29242,
-3.1601,1.28632,
-3.1662,1.28937,
-3.16772,1.28632,
-3.1723,1.28937,
-3.17535,1.29242,
-3.17688,1.29242,
-3.18146,1.28784,
-3.18146,1.28479,
-3.18451,1.29242,
-3.18909,1.29089,
-3.19366,1.29242,
-3.20129,1.28632,
-3.20587,1.28632,
-3.21198,1.29089,
-3.21045,1.28937,
-3.21198,1.28937,
-3.21503,1.28479,
-3.21503,1.28937,
-3.21808,1.28937,
-3.21655,1.29547,
-3.21808,1.28937,
-3.21655,1.28632,
-3.21655,1.28326,
-3.21808,1.29089,
-3.21655,1.28937,
-3.21198,1.29089,
-3.20282,1.28784,
-3.19519,1.28326,
-3.18756,1.29089,
-3.18146,1.29242,
-3.1723,1.28937,
-3.15704,1.28937,
-3.14789,1.28784,
-3.13568,1.28937,
-3.12347,1.28937,
-3.10822,1.28784,
-3.0899,1.28632,
-3.07617,1.28479,
-3.06244,1.297,
-3.04108,1.29089,
-3.02734,1.28937,
-3.00903,1.28479,
-2.9953,1.28326,
-2.97699,1.28937,
-2.96173,1.28784,
-2.94647,1.28937,
-2.92969,1.28632,
-2.91595,1.28326,
-2.90375,1.28784,
-2.89459,1.29089,
-2.88239,1.29089,
-2.86865,1.28479,
-2.85645,1.28326,
-2.84119,1.28937,
-2.83051,1.29089,
-2.81525,1.28784,
-2.80304,1.28479,
-2.78931,1.28326,
-2.78168,1.28784,
-2.77252,1.29242,
-2.76489,1.28937,
-2.75421,1.28479,
-2.74811,1.28174,
-2.73895,1.28784,
-2.72827,1.28937,
-2.72217,1.28784,
-2.71454,1.28174,
-2.70538,1.28174,
-2.69928,1.28784,
-2.6947,1.28479,
-2.6886,1.29089,
-2.67487,1.28021,
-2.66876,1.28174,
-2.65808,1.28784,
-2.65198,1.28632,
-2.64587,1.29089,
-2.64587,1.28021,
-2.64282,1.27869,
-2.64282,1.28632,
-2.63672,1.28632,
-2.63367,1.28479,
-2.62909,1.28021,
-2.62451,1.28326,
-2.61993,1.28784,
-2.62299,1.28784,
-2.62604,1.28784,
-2.62604,1.28174,
-2.62451,1.28174,
-2.62451,1.28784,
-2.62146,1.28479,
-2.62146,1.28784,
-2.61536,1.28021,
-2.61536,1.28174,
-2.60925,1.28632,
-2.61078,1.28632,
-2.60162,1.28632,
-2.60315,1.28174,
-2.59399,1.28174,
-2.59399,1.28784,
-2.59094,1.28784,
-2.58789,1.28784,
-2.58484,1.27716,
-2.58331,1.27869,
-2.58484,1.28784,
-2.58331,1.28479,
-2.57721,1.28326,
-2.57111,1.27869,
-2.56805,1.28021,
-2.565,1.28632,
-2.56348,1.28937,
-2.56042,1.28784,
-2.5589,1.27869,
-2.5528,1.28021,
-2.55127,1.28632,
-2.54822,1.28174,
-2.54364,1.28784,
-2.54364,1.28174,
-2.53754,1.27716,
-2.54059,1.28784,
-2.53754,1.28479,
-2.53906,1.29089,
-2.54059,1.28021,
-2.53448,1.27716,
-2.53448,1.28784,
-2.53601,1.28326,
-2.53448,1.28479,
-2.53448,1.27869,
-2.53143,1.28021,
-2.53448,1.28784,
-2.53143,1.28326,
-2.52838,1.28479,
-2.52686,1.27716,
-2.52228,1.27411,
-2.5238,1.28784,
-2.52228,1.28174,
-2.5238,1.28326,
-2.52075,1.27716,
-2.52228,1.27716,
-2.5238,1.28632,
-2.52533,1.28326,
-2.52533,1.28632,
-2.53448,1.27716,
-2.53601,1.27716,
-2.53601,1.28479,
-2.53906,1.28326,
-2.54211,1.28326,
-2.53906,1.27869,
-2.54211,1.27106,
-2.54669,1.28632,
-2.54364,1.28326,
-2.54669,1.28174,
-2.54822,1.27716,
-2.54669,1.27411,
-2.54822,1.28632,
-2.54974,1.28174,
-2.5528,1.28326,
-2.55432,1.27563,
-2.55585,1.27716,
-2.565,1.28479,
-2.56195,1.28326,
-2.565,1.28326,
-2.56805,1.27869,
-2.56958,1.27869,
-2.57111,1.28326,
-2.57416,1.28174,
-2.57721,1.28326,
-2.58331,1.27869,
-2.58789,1.27716,
-2.58789,1.28174,
-2.59247,1.28326,
-2.58942,1.28174,
-2.59094,1.27411,
-2.59399,1.27869,
-2.59399,1.28174,
-2.59247,1.28479,
-2.59552,1.28326,
-2.59857,1.27563,
-2.59857,1.27563,
-2.59857,1.28174,
-2.6001,1.28174,
-2.60468,1.28326,
-2.60468,1.27869,
-2.6062,1.27411,
-2.6062,1.28174,
-2.60925,1.28174,
-2.61078,1.28021,
-2.61536,1.28021,
-2.61841,1.27716,
-2.61993,1.28174,
-2.62146,1.28326,
-2.62146,1.28326,
-2.62451,1.27411,
-2.62299,1.27411,
-2.62299,1.28326,
-2.62604,1.28479,
-2.62604,1.27563,
-2.62909,1.27258,
-2.62909,1.27869,
-2.63214,1.28632,
-2.63672,1.28784,
-2.6413,1.27869,
-2.64587,1.27563,
-2.65503,1.28021,
-2.65808,1.28174,
-2.66571,1.28326,
-2.66876,1.27869,
-2.67029,1.28021,
-2.68402,1.27869,
-2.69012,1.28326,
-2.70081,1.28632,
-2.70538,1.27716,
-2.71454,1.27716,
-2.71912,1.27869,
-2.72369,1.28174,
-2.72827,1.28632,
-2.73285,1.28021,
-2.7359,1.27716,
-2.742,1.28021,
-2.74048,1.28174,
-2.74048,1.28479,
-2.74048,1.27716,
-2.74048,1.27716,
-2.73743,1.27411,
-2.73895,1.28326,
-2.742,1.28479,
-2.74506,1.28174,
-2.74811,1.27716,
-2.74963,1.27716,
-2.75421,1.28479,
-2.75879,1.28326,
-2.75574,1.28021,
-2.75879,1.27716,
-2.76337,1.27716,
-2.76642,1.28479,
-2.771,1.28784,
-2.77252,1.28174,
-2.77557,1.27716,
-2.77863,1.27716,
-2.7832,1.28326,
-2.79083,1.28784,
-2.79236,1.28021,
-2.79388,1.27716,
-2.79999,1.28021,
-2.80609,1.28174,
-2.80914,1.28784,
-2.81525,1.28174,
-2.82288,1.27869,
-2.82898,1.27716,
-2.83203,1.28021,
-2.83813,1.28784,
-2.83966,1.28479,
-2.84576,1.28021,
-2.85034,1.28021,
-2.85187,1.28479,
-2.85797,1.29242,
-2.8595,1.27869,
-2.86407,1.27869,
-2.86865,1.28174,
-2.87476,1.28326,
-2.87323,1.29089,
-2.87628,1.28174,
-2.87628,1.27869,
-2.87476,1.27716,
-2.87323,1.28632,
-2.86865,1.28937,
-2.86407,1.28784,
-2.85797,1.28174,
-2.84729,1.28021,
-2.83966,1.28326,
-2.82745,1.29547,
-2.81677,1.28326,
-2.80457,1.28174,
-2.79388,1.28174,
-2.78015,1.28479,
-2.76642,1.29089,
-2.75726,1.28326,
-2.74353,1.28326,
-2.73132,1.28174,
-2.72217,1.28479,
-2.70691,1.29242,
-2.6886,1.28326,
-2.67029,1.28326,
-2.65045,1.27869,
-2.63367,1.28632,
-2.61536,1.29089,
-2.59705,1.28174,
-2.58026,1.28326,
-2.56348,1.28021,
-2.55127,1.28479,
-2.53448,1.28937,
-2.52075,1.28326,
-2.49786,1.28021,
-2.4826,1.28021,
-2.46735,1.28632,
-2.45667,1.29089,
-2.44293,1.28326,
-2.4292,1.27869,
-2.41394,1.28326,
-2.40021,1.28784,
-2.388,1.28784,
-2.37885,1.28326,
-2.36511,1.28174,
-2.35596,1.27869,
-2.34833,1.28784,
-2.33307,1.29089,
-2.32849,1.28326,
-2.31781,1.28326,
-2.31171,1.28174,
-2.3056,1.28937,
-2.2995,1.28937,
-2.29187,1.28021,
-2.28424,1.28174,
-2.27661,1.28174,
-2.27203,1.29089,
-2.26746,1.28937,
-2.2644,1.28326,
-2.25525,1.28326,
-2.2522,1.28326,
-2.24762,1.29089,
-2.24609,1.28784,
-2.24304,1.28479,
-2.24457,1.28174,
-2.24457,1.28632,
-2.24457,1.29242,
-2.24152,1.28479,
-2.24457,1.28326,
-2.24457,1.28479,
-2.24304,1.28174,
-2.24152,1.29242,
-2.23846,1.28937,
-2.23846,1.28479,
-2.23389,1.28479,
-2.23083,1.28479,
-2.23083,1.29089,
-2.22778,1.28937,
-2.22321,1.28632,
-2.22321,1.28632,
-2.2171,1.28479,
-2.21863,1.29242,
-2.21405,1.28632,
-2.21405,1.28479,
-2.21252,1.28174,
-2.20947,1.28326,
-2.2049,1.29242,
-2.2049,1.28784,
-2.20184,1.28784,
-2.20184,1.28326,
-2.19574,1.28632,
-2.19421,1.29242,
-2.19116,1.28937,
-2.18658,1.28937,
-2.18658,1.28632,
-2.18353,1.28174,
-2.18353,1.28937,
-2.17896,1.28937,
-2.17896,1.28784,
-2.1759,1.28326,
-2.17438,1.28479,
-2.17133,1.29089,
-2.16522,1.28937,
-2.16217,1.28937,
-2.16064,1.28326,
-2.15759,1.28479,
-2.14844,1.28937,
-2.14844,1.28784,
-2.14081,1.28479,
-2.13623,1.28326,
-2.13318,1.28326,
-2.12708,1.29089,
-2.1286,1.28632,
-2.12555,1.28479,
-2.12097,1.28479,
-2.11945,1.28479,
-2.12097,1.29242,
-2.12097,1.29089,
-2.11945,1.28632,
-2.11945,1.28479,
-2.1225,1.28784,
-2.11487,1.29089,
-2.11487,1.28937,
-2.11639,1.28632,
-2.10876,1.28326,
-2.10724,1.28784,
-2.10724,1.28937,
-2.10419,1.28632,
-2.10266,1.28479,
-2.10266,1.28326,
-2.09961,1.28174,
-2.09961,1.28937,
-2.09503,1.28937,
-2.09656,1.29089,
-2.08893,1.28174,
-2.09045,1.28174,
-2.08588,1.28937,
-2.09045,1.28632,
-2.08893,1.28784,
-2.09198,1.28632,
-2.09656,1.28021,
-2.10419,1.28784,
-2.10724,1.28937,
-2.11029,1.29089,
-2.11945,1.28021,
-2.13013,1.28326,
-2.13318,1.28479,
-2.13928,1.28784,
-2.14539,1.29089,
-2.15149,1.28326,
-2.15607,1.28021,
-2.15759,1.28784,
-2.16217,1.28937,
-2.16827,1.28937,
-2.1698,1.28174,
-2.17133,1.28174,
-2.1698,1.28632,
-2.1759,1.28937,
-2.17896,1.29242,
-2.17896,1.28326,
-2.18201,1.28174,
-2.18506,1.28632,
-2.18811,1.28784,
-2.19116,1.297,
-2.19116,1.28174,
-2.19574,1.28021,
-2.19879,1.28174,
-2.20184,1.28784,
-2.2049,1.29089,
-2.2049,1.28326,
-2.21252,1.28021,
-2.21405,1.28632,
-2.21405,1.28479,
-2.21558,1.28632,
-2.21863,1.28174,
-2.22015,1.28174,
-2.22168,1.28326,
-2.22778,1.28632,
-2.23236,1.28784,
-2.23999,1.28021,
-2.24152,1.28021,
-2.24609,1.28479,
-2.24609,1.28479,
-2.2522,1.28784,
-2.25372,1.28326,
-2.25983,1.27869,
-2.26135,1.28174,
-2.2644,1.28479,
-2.27051,1.28326,
-2.27509,1.28174,
-2.27966,1.27716,
-2.28424,1.28479,
-2.28882,1.28632,
-2.29187,1.28326,
-2.29797,1.28479,
-2.3056,1.27869,
-2.31171,1.28021,
-2.31628,1.28174,
-2.32544,1.28479,
-2.33612,1.28326,
-2.34375,1.27716,
-2.35291,1.28174,
-2.35748,1.28174,
-2.36206,1.28479,
-2.37122,1.28021,
-2.37732,1.27869,
-2.38342,1.28021,
-2.39258,1.28021,
-2.39563,1.28479,
-2.40021,1.28326,
-2.40479,1.27563,
-2.40936,1.27869,
-2.41394,1.28326,
-2.42004,1.28174,
-2.42004,1.27563,
-2.42615,1.27563,
-2.42767,1.27869,
-2.4353,1.28021,
-2.43378,1.28326,
-2.44293,1.27563,
-2.44598,1.27716,
-2.44904,1.28021,
-2.45056,1.28174,
-2.45056,1.28174,
-2.45361,1.27869,
-2.45361,1.27411,
-2.45056,1.27869,
-2.45514,1.27716,
-2.45056,1.28326,
-2.44751,1.27716,
-2.43835,1.27258,
-2.43378,1.27869,
-2.42767,1.27716,
-2.4231,1.28174,
-2.41394,1.27563,
-2.40173,1.27411,
-2.3941,1.28021,
-2.38037,1.27563,
-2.36969,1.28326,
-2.36206,1.28021,
-2.35291,1.27563,
-2.3407,1.28021,
-2.32239,1.28174,
-2.31018,1.27869,
-2.29187,1.27716,
-2.27356,1.27258,
-2.2522,1.28021,
-2.24304,1.28021,
-2.22626,1.27869,
-2.2171,1.28021,
-2.2049,1.27411,
-2.19116,1.27716,
-2.17743,1.27869,
-2.16064,1.27869,
-2.15302,1.27563,
-2.14233,1.27106,
-2.13318,1.27869,
-2.12708,1.27716,
-2.1225,1.28174,
-2.11792,1.27869,
-2.10876,1.27106,
-2.10266,1.27716,
-2.10114,1.28021,
-2.09351,1.28021,
-2.0874,1.27411,
-2.07977,1.27258,
-2.0752,1.27411,
-2.06757,1.27869,
-2.06757,1.27869,
-2.06146,1.27563,
-2.05688,1.27563,
-2.05688,1.27411,
-2.05231,1.27563,
-2.04773,1.28021,
-2.04926,1.27563,
-2.04468,1.27258,
-2.04468,1.27563,
-2.03857,1.28174,
-2.03857,1.27869,
-2.03857,1.27258,
-2.03705,1.27411,
-2.03552,1.27258,
-2.03247,1.27869,
-2.02637,1.28021,
-2.02637,1.27563,
-2.03094,1.27258,
-2.03705,1.27563,
-2.03857,1.28021,
-2.04315,1.27716,
-2.0462,1.27716,
-2.04926,1.27411,
-2.04926,1.27411,
-2.04926,1.28021,
-2.05994,1.27716,
-2.05841,1.27563,
-2.06146,1.27411,
-2.06757,1.27716,
-2.06604,1.28021,
-2.07367,1.27716,
-2.0752,1.27411,
-2.0752,1.27258,
-2.07977,1.27411,
-2.07825,1.27563,
-2.0813,1.27563,
-2.08282,1.27411,
-2.08282,1.27106,
-2.07977,1.27411,
-2.0813,1.28021,
-2.0813,1.27869,
-2.07977,1.27258,
-2.0752,1.27258,
-2.07825,1.27411,
-2.07367,1.28021,
-2.07214,1.28021,
-2.07214,1.27563,
-2.06909,1.27563,
-2.06604,1.27411,
-2.06451,1.28479,
-2.06451,1.27869,
-2.05994,1.27258,
-2.05994,1.27563,
-2.05994,1.27258,
-2.06757,1.28174,
-2.07062,1.27869,
-2.06909,1.27716,
-2.07214,1.27258,
-2.07062,1.27716,
-2.07214,1.28021,
-2.07214,1.28174,
-2.07214,1.27563,
-2.07367,1.27411,
-2.07977,1.27106,
-2.08435,1.28021,
-2.09045,1.28021,
-2.09198,1.27411,
-2.09351,1.27411,
-2.09503,1.27716,
-2.09351,1.28632,
-2.10114,1.28326,
-2.09961,1.27411,
-2.10266,1.27563,
-2.10266,1.27716,
-2.10571,1.28479,
-2.11029,1.28326,
-2.10876,1.27258,
-2.11182,1.27716,
-2.11334,1.27869,
-2.11945,1.28632,
-2.12402,1.28479,
-2.12402,1.27411,
-2.13013,1.27869,
-2.13318,1.27716,
-2.13623,1.28479,
-2.13928,1.28479,
-2.14386,1.27563,
-2.14233,1.28174,
-2.14233,1.27869,
-2.14691,1.28326,
-2.14691,1.28479,
-2.15149,1.27869,
-2.15759,1.28174,
-2.1637,1.27869,
-2.16522,1.28326,
-2.1698,1.28632,
-2.17285,1.27869,
-2.1759,1.28174,
-2.18048,1.28326,
-2.18506,1.28784,
-2.18353,1.28479,
-2.18353,1.28326,
-2.18353,1.28174,
-2.19269,1.27869,
-2.19727,1.29242,
-2.2049,1.28632,
-2.20337,1.28021,
-2.211,1.28479,
-2.21252,1.28021,
-2.21558,1.28784,
-2.21558,1.28937,
-2.22168,1.28326,
-2.22015,1.28326,
-2.22473,1.28021,
-2.23083,1.28784,
-2.23236,1.28784,
-2.23389,1.28326,
-2.23999,1.28479,
-2.23999,1.28326,
-2.24152,1.29242,
-2.25067,1.28632,
-2.25677,1.28326,
-2.2583,1.28632,
-2.25983,1.28326,
-2.26288,1.29089,
-2.26593,1.28937,
-2.27051,1.28479,
-2.27356,1.28326,
-2.27661,1.28479,
-2.28271,1.29242,
-2.28424,1.28937,
-2.29187,1.28784,
-2.29645,1.28632,
-2.30713,1.28632,
-2.31476,1.28937,
-2.32086,1.28937,
-2.32697,1.28784,
-2.33612,1.28479,
-2.3468,1.28632,
-2.34985,1.28937,
-2.35901,1.28784,
-2.36816,1.28479,
-2.37579,1.28632,
-2.38342,1.28784,
-2.38953,1.29242,
-2.39563,1.28784,
-2.39716,1.29089,
-2.40631,1.28632,
-2.40936,1.29089,
-2.41394,1.297,
-2.41547,1.28937,
-2.42004,1.28784,
-2.42462,1.28784,
-2.4292,1.29089,
-2.43378,1.297,
-2.44293,1.29089,
-2.44904,1.29089,
-2.45361,1.28784,
-2.45361,1.29547,
-2.45819,1.29852,
-2.46124,1.29852,
-2.46582,1.29547,
-2.47498,1.28784,
-2.48413,1.297,
-2.48718,1.29547,
-2.49329,1.29547,
-2.49939,1.297,
-2.50854,1.29089,
-2.51312,1.297,
-2.5177,1.29852,
-2.52838,1.297,
-2.53143,1.29242,
-2.53754,1.28937,
-2.54059,1.297,
-2.54669,1.30005,
-2.5528,1.29852,
-2.56195,1.297,
-2.56195,1.28479,
-2.57111,1.29852,
-2.57568,1.30005,
-2.58026,1.30157,
-2.58331,1.297,
-2.58789,1.28784,
-2.59094,1.29242,
-2.59399,1.30157,
-2.59705,1.30005,
-2.6062,1.29852,
-2.60773,1.29089,
-2.61536,1.30005,
-2.61993,1.29547,
-2.62756,1.30157,
-2.63519,1.29852,
-2.63977,1.28632,
-2.64282,1.29852,
-2.64282,1.3031,
-2.64587,1.29852,
-2.64893,1.30005,
-2.64893,1.28937,
-2.65198,1.30005,
-2.65045,1.30005,
-2.64893,1.3031,
-2.64893,1.297,
-2.64282,1.28784,
-2.63824,1.30157,
-2.63519,1.30157,
-2.62604,1.30615,
-2.61993,1.30157,
-2.61536,1.28937,
-2.6062,1.297,
-2.59705,1.30615,
-2.58636,1.3031,
-2.57263,1.3031,
-2.56348,1.28937,
-2.54974,1.29852,
-2.53601,1.30463,
-2.52533,1.30615,
-2.5116,1.30157,
-2.49786,1.28937,
-2.48413,1.30157,
-2.4704,1.3031,
-2.45819,1.3031,
-2.44598,1.3031,
-2.43073,1.29089,
-2.41547,1.30157,
-2.40326,1.30157,
-2.39105,1.30615,
-2.37732,1.30463,
-2.36816,1.29089,
-2.35291,1.30157,
-2.34222,1.3031,
-2.32391,1.3031,
-2.31323,1.3031,
-2.30103,1.29089,
-2.29187,1.30157,
-2.27966,1.30768,
-2.27051,1.30615,
-2.25983,1.30157,
-2.25067,1.29547,
-2.24152,1.3031,
-2.23083,1.30615,
-2.22473,1.30463,
-2.21558,1.3031,
-2.20795,1.29242,
-2.19574,1.3031,
-2.18658,1.3031,
-2.17438,1.30463,
-2.17133,1.30615,
-2.16217,1.29852,
-2.15607,1.30463,
-2.15149,1.30615,
-2.14233,1.30615,
-2.13928,1.30157,
-2.13623,1.29547,
-2.12708,1.30463,
-2.12555,1.30463,
-2.1225,1.30157,
-2.11945,1.30157,
-2.11487,1.29242,
-2.11334,1.30463,
-2.10876,1.30768,
-2.10571,1.30005,
-2.10571,1.29852,
-2.11182,1.297,
-2.11029,1.3031,
-2.11182,1.30615,
-2.11029,1.30157,
-2.10571,1.29852,
-2.11029,1.297,
-2.11029,1.3031,
-2.11182,1.30463,
-2.11334,1.30463,
-2.11029,1.297,
-2.11029,1.297,
-2.10724,1.3031,
-2.10419,1.30005,
-2.09503,1.30005,
-2.08893,1.29547,
-2.08588,1.297,
-2.08435,1.3031,
-2.07825,1.30005,
-2.07672,1.30005,
-2.06909,1.29547,
-2.07062,1.29547,
-2.06604,1.30005,
-2.05994,1.3031,
-2.05841,1.3031,
-2.05383,1.29242,
-2.05383,1.297,
-2.05078,1.29852,
-2.04926,1.3031,
-2.0462,1.30157,
-2.04773,1.29242,
-2.0462,1.29547,
-2.0462,1.29852,
-2.04773,1.30463,
-2.0462,1.30157,
-2.0462,1.29242,
-2.0462,1.297,
-2.04773,1.30005,
-2.04773,1.30005,
-2.05078,1.30157,
-2.05078,1.29547,
-2.05383,1.29242,
-2.05383,1.297,
-2.05383,1.30157,
-2.05536,1.30005,
-2.05841,1.29089,
-2.06604,1.29547,
-2.06909,1.30005,
-2.0752,1.29852,
-2.07977,1.30157,
-2.07977,1.29089,
-2.08435,1.28937,
-2.08435,1.29852,
-2.08588,1.30157,
-2.08282,1.30005,
-2.08282,1.29089,
-2.08588,1.29547,
-2.08588,1.297,
-2.08893,1.30005,
-2.09045,1.30005,
-2.09351,1.297,
-2.09198,1.29547,
-2.09198,1.29852,
-2.09045,1.3031,
-2.09045,1.30005,
-2.08893,1.29547,
-2.0874,1.29547,
-2.08893,1.29852,
-2.09045,1.30005,
-2.09351,1.30005,
-2.09503,1.28937,
-2.09198,1.29547,
-2.09503,1.297,
-2.09198,1.30005,
-2.09503,1.297,
-2.09351,1.28937,
-2.09351,1.29242,
-2.09503,1.29547,
-2.10114,1.29852,
-2.10266,1.297,
-2.11334,1.29547,
-2.11945,1.29242,
-2.12402,1.29242,
-2.13013,1.30157,
-2.13623,1.29852,
-2.13928,1.297,
-2.14386,1.29242,
-2.14691,1.29547,
-2.15302,1.30157,
-2.15454,1.29852,
-2.16064,1.29547,
-2.16217,1.29089,
-2.16827,1.29089,
-2.17133,1.29852,
-2.17438,1.297,
-2.18506,1.29547,
-2.18658,1.29089,
-2.18964,1.29089,
-2.19269,1.29547,
-2.19879,1.297,
-2.20795,1.29242,
-2.20947,1.29242,
-2.211,1.28937,
-2.21863,1.29852,
-2.22168,1.29852,
-2.22778,1.29089,
-2.23083,1.28937,
-2.23236,1.28784,
-2.23694,1.29242,
-2.24609,1.297,
-2.25067,1.29242,
-2.2583,1.28784,
-2.26288,1.28479,
-2.26746,1.29547,
-2.27356,1.29547,
-2.27661,1.29242,
-2.28271,1.28784,
-2.28577,1.28632,
-2.28882,1.29547,
-2.29492,1.29242,
-2.30255,1.29242,
-2.30713,1.28937,
-2.32086,1.28174,
-2.32086,1.29547,
-2.32697,1.29242,
-2.33459,1.29089,
-2.33917,1.28937,
-2.34375,1.28326,
-2.35443,1.29242,
-2.35748,1.29547,
-2.36359,1.29242,
-2.37122,1.28784,
-2.37579,1.28479,
-2.38342,1.29547,
-2.38647,1.29089,
-2.39105,1.29242,
-2.39563,1.28784,
-2.39563,1.28479,
-2.39868,1.29242,
-2.40173,1.297,
-2.40631,1.29242,
-2.40936,1.28937,
-2.41699,1.28479,
-2.42157,1.297,
-2.42462,1.29089,
-2.43073,1.28937,
-2.43378,1.28784,
-2.43835,1.28326,
-2.44598,1.28632,
-2.45056,1.29089,
-2.45819,1.28784,
-2.46124,1.28632,
-2.47498,1.28937,
-2.47803,1.28937,
-2.4826,1.29089,
-2.49176,1.29547,
-2.49329,1.28632,
-2.49329,1.28784,
-2.50092,1.28937,
-2.50549,1.29547,
-2.51465,1.28784,
-2.52075,1.28174,
-2.52686,1.28326,
-2.53296,1.28937,
-2.54059,1.28937,
-2.54974,1.28632,
-2.5528,1.28784,
-2.5589,1.28479,
-2.56805,1.28479,
-2.57111,1.28937,
-2.58331,1.28937,
-2.58942,1.28632,
-2.59247,1.28174,
-2.59552,1.29547,
-2.6001,1.28937,
-2.60162,1.28784,
-2.60468,1.28784,
-2.60468,1.28326,
-2.60773,1.28784,
-2.61078,1.28784,
-2.61688,1.28632,
-2.61993,1.28326,
-2.62604,1.28326,
-2.62451,1.28784,
-2.62604,1.29089,
-2.62451,1.28632,
-2.61993,1.28479,
-2.61688,1.28326,
-2.60925,1.28632,
-2.60468,1.28937,
-2.59247,1.28784,
-2.58484,1.28784,
-2.56805,1.28021,
-2.55737,1.28784,
-2.54669,1.28632,
-2.53296,1.28326,
-2.52075,1.28326,
-2.50092,1.28174,
-2.48108,1.28937,
-2.46124,1.28784,
-2.43988,1.28326,
-2.41547,1.28479,
-2.38953,1.27869,
-2.36664,1.28784,
-2.3407,1.28632,
-2.31476,1.28479,
-2.28729,1.28021,
-2.25983,1.28174,
-2.23694,1.28632,
-2.20642,1.28479,
-2.18353,1.28479,
-2.15607,1.28174,
-2.1286,1.27716,
-2.11182,1.28632,
-2.0874,1.28632,
-2.06604,1.28326,
-2.04468,1.28174,
-2.02637,1.27869,
-2.00806,1.28479,
-1.98059,1.28632,
-1.96686,1.28632,
-1.94702,1.27869,
-1.92413,1.27869,
-1.90887,1.28479,
-1.89056,1.28326,
-1.87378,1.28326,
-1.85852,1.28021,
-1.84784,1.27716,
-1.83411,1.28326,
-1.8219,1.28784,
-1.81274,1.28021,
-1.80359,1.28021,
-1.79596,1.27716,
-1.78375,1.28174,
-1.7746,1.28021,
-1.76544,1.28326,
-1.75629,1.27869,
-1.74408,1.27411,
-1.7395,1.28021,
-1.72882,1.28021,
-1.72729,1.28174,
-1.71661,1.27869,
-1.71356,1.27716,
-1.70746,1.27869,
-1.69983,1.28021,
-1.6922,1.27869,
-1.68304,1.27716,
-1.67999,1.27563,
-1.67236,1.27869,
-1.66931,1.28021,
-1.66168,1.27716,
-1.66016,1.27563,
-1.6571,1.27411,
-1.65405,1.27869,
-1.64948,1.28021,
-1.6449,1.28021,
-1.64032,1.27106,
-1.63727,1.27563,
-1.63727,1.28021,
-1.63422,1.28021,
-1.63269,1.28021,
-1.63116,1.27106,
-1.62659,1.27563,
-1.62354,1.27563,
-1.62201,1.28021,
-1.61896,1.28021,
-1.61133,1.27411,
-1.60675,1.27411,
-1.60217,1.28174,
-1.59607,1.27563,
-1.59149,1.27716,
-1.58539,1.27258,
-1.58081,1.27411,
-1.57928,1.27869,
-1.57013,1.27563,
-1.56555,1.27869,
-1.56555,1.27106,
-1.55792,1.27258,
-1.55792,1.27411,
-1.5564,1.27716,
-1.5564,1.27563,
-1.55792,1.26801,
-1.5564,1.27258,
-1.55792,1.27869,
-1.5564,1.27563,
-1.55487,1.27869,
-1.55487,1.26801,
-1.55029,1.26495,
-1.54877,1.27869,
-1.54114,1.27563,
-1.53961,1.28021,
-1.53351,1.26953,
-1.5274,1.26495,
-1.52435,1.27716,
-1.51825,1.27106,
-1.51978,1.27716,
-1.51672,1.26801,
-1.5152,1.26801,
-1.51062,1.27563,
-1.51215,1.27563,
-1.50452,1.28021,
-1.49841,1.26801,
-1.50452,1.26801,
-1.50452,1.27716,
-1.50452,1.27258,
-1.50604,1.27563,
-1.50604,1.26648,
-1.50757,1.26495,
-1.51062,1.27563,
-1.50757,1.27258,
-1.50452,1.27869,
-1.50604,1.26953,
-1.50604,1.26343,
-1.50757,1.27411,
-1.51062,1.27258,
-1.51062,1.27411,
-1.51215,1.26801,
-1.5152,1.26343,
-1.5152,1.27563,
-1.51978,1.27106,
-1.52283,1.26953,
-1.52435,1.26801,
-1.52435,1.26038,
-1.5274,1.27258,
-1.53046,1.27106,
-1.52893,1.27411,
-1.52893,1.26648,
-1.52893,1.25732,
-1.53046,1.27106,
-1.53046,1.27106,
-1.53198,1.27106,
-1.53198,1.26038,
-1.53656,1.26648,
-1.53961,1.27258,
-1.53961,1.26801,
-1.54114,1.27106,
-1.54419,1.26343,
-1.54419,1.26038,
-1.54572,1.27411,
-1.54877,1.26801,
-1.55334,1.26953,
-1.55334,1.26495,
-1.55945,1.26038,
-1.56403,1.26953,
-1.5686,1.26648,
-1.57166,1.26953,
-1.57928,1.26038,
-1.58539,1.26038,
-1.58997,1.26801,
-1.59302,1.26801,
-1.59912,1.26648,
-1.60675,1.26343,
-1.61743,1.26495,
-1.62354,1.26953,
-1.62964,1.26953,
-1.63727,1.26648,
-1.64337,1.26038,
-1.64948,1.26343,
-1.6571,1.26953,
-1.66321,1.26648,
-1.66779,1.26648,
-1.67236,1.25885,
-1.67542,1.26343,
-1.6861,1.26801,
-1.69373,1.26801,
-1.69983,1.26801,
-1.70441,1.26038,
-1.71204,1.26038,
-1.71814,1.26801,
-1.72577,1.26801,
-1.73035,1.26801,
-1.73645,1.26038,
-1.74103,1.26038,
-1.74408,1.26801,
-1.74866,1.27106,
-1.75629,1.26648,
-1.75934,1.26038,
-1.76392,1.26343,
-1.77155,1.26495,
-1.77307,1.26801,
-1.7746,1.26038,
-1.7807,1.25732,
-1.78223,1.26495,
-1.7868,1.26648,
-1.79443,1.26953,
-1.80206,1.26343,
-1.80969,1.25732,
-1.81427,1.26648,
-1.82037,1.26495,
-1.83105,1.26953,
-1.83868,1.26038,
-1.84326,1.2558,
-1.85089,1.26343,
-1.86005,1.26648,
-1.86768,1.27258,
-1.87073,1.26343,
-1.87683,1.26343,
-1.87836,1.25885,
-1.88446,1.26495,
-1.89514,1.26953,
-1.89514,1.26343,
-1.89972,1.25885,
-1.90125,1.26038,
-1.90735,1.26648,
-1.91193,1.26801,
-1.91193,1.25885,
-1.91345,1.25732,
-1.91956,1.25885,
-1.91803,1.26343,
-1.92108,1.26648,
-1.91803,1.26038,
-1.91803,1.25732,
-1.92261,1.25732,
-1.91498,1.26038,
-1.91193,1.26495,
-1.90735,1.26038,
-1.89972,1.25732,
-1.88751,1.2558,
-1.87988,1.25885,
-1.86615,1.26801,
-1.84784,1.26038,
-1.83411,1.25427,
-1.81122,1.25732,
-1.7868,1.26495,
-1.76849,1.26801,
-1.73798,1.25885,
-1.70593,1.2558,
-1.67847,1.25427,
-1.65253,1.26038,
-1.61438,1.26801,
-1.58081,1.25732,
-1.55182,1.25885,
-1.51825,1.2558,
-1.48773,1.25885,
-1.45264,1.26801,
-1.41907,1.2558,
-1.38702,1.24969,
-1.35803,1.25427,
-1.32751,1.25732,
-1.29547,1.26953,
-1.26648,1.26038,
-1.24512,1.25427,
-1.2207,1.25427,
-1.19629,1.25885,
-1.17798,1.26648,
-1.15204,1.25427,
-1.1261,1.25122,
-1.10779,1.25122,
-1.08795,1.25732,
-1.06201,1.26648,
-1.04218,1.25427,
-1.02081,1.25427,
-1.00403,1.25427,
-0.979614,1.25732,
-0.964355,1.26648,
-0.942993,1.25427,
-0.927734,1.25275,
-0.914001,1.24969,
-0.897217,1.2558,
-0.88501,1.25885,
-0.878906,1.25275,
-0.871277,1.2558,
-0.868225,1.25122,
-0.865173,1.25732,
-0.854492,1.26495,
-0.848389,1.2558,
-0.842285,1.2558,
-0.837708,1.25122,
-0.834656,1.25427,
-0.83313,1.26495,
-0.827026,1.2558,
-0.823975,1.25427,
-0.817871,1.24969,
-0.817871,1.25732,
-0.816345,1.26648,
-0.814819,1.25275,
-0.819397,1.2558,
-0.814819,1.25275,
-0.816345,1.2558,
-0.814819,1.25885,
-0.816345,1.25427,
-0.816345,1.25122,
-0.819397,1.25122,
-0.822449,1.2558,
-0.822449,1.26343,
-0.827026,1.25122,
-0.827026,1.24817,
-0.830078,1.25122,
-0.83313,1.25732,
-0.837708,1.26038,
-0.836182,1.24969,
-0.837708,1.25427,
-0.837708,1.24969,
-0.837708,1.26038,
-0.831604,1.26343,
-0.834656,1.25122,
-0.836182,1.25275,
-0.831604,1.24969,
-0.83313,1.26038,
-0.828552,1.26343,
-0.828552,1.25122,
-0.827026,1.24969,
-0.822449,1.25275,
-0.820923,1.25732,
-0.813293,1.26038,
-0.813293,1.25122,
-0.811768,1.24817,
-0.808716,1.25427,
-0.804138,1.25885,
-0.801086,1.25732,
-0.804138,1.25122,
-0.796509,1.24817,
-0.793457,1.25122,
-0.793457,1.25885,
-0.785828,1.2558,
-0.782776,1.2558,
-0.782776,1.24969,
-0.779724,1.25122,
-0.779724,1.26038,
-0.779724,1.2558,
-0.78125,1.25122,
-0.784302,1.25275,
-0.785828,1.25122,
-0.782776,1.25885,
-0.784302,1.25885,
-0.784302,1.25275,
-0.785828,1.25122,
-0.790405,1.25275,
-0.790405,1.25732,
-0.798035,1.25732,
-0.804138,1.25122,
-0.804138,1.25122,
-0.805664,1.25122,
-0.808716,1.26343,
-0.811768,1.25275,
-0.819397,1.25275,
-0.816345,1.24664,
-0.827026,1.25427,
-0.836182,1.25885,
-0.842285,1.25885,
-0.854492,1.25275,
-0.854492,1.24969,
-0.865173,1.24969,
-0.865173,1.25885,
-0.872803,1.2558,
-0.874329,1.25427,
-0.881958,1.25122,
-0.88501,1.25122,
-0.897217,1.25885,
-0.901794,1.2558,
-0.907898,1.25427,
-0.909424,1.25427,
-0.912476,1.24969,
-0.914001,1.25732,
-0.920105,1.25732,
-0.932312,1.2558,
-0.93689,1.25122,
-0.944519,1.24969,
-0.952148,1.25732,
-0.9552,1.25732,
-0.961304,1.25275,
-0.975037,1.25122,
-0.98114,1.25122,
-0.98877,1.25885,
-0.993347,1.25885,
-1.00555,1.25427,
-1.00708,1.24969,
-1.02081,1.25427,
-1.03302,1.25732,
-1.0376,1.25732,
-1.04675,1.25427,
-1.04828,1.25275,
-1.05591,1.25122,
-1.06354,1.26038,
-1.06812,1.26038,
-1.07727,1.25732,
-1.08795,1.25122,
-1.09253,1.24969,
-1.10168,1.25732,
-1.11084,1.25732,
-1.11847,1.2558,
-1.12457,1.25427,
-1.13373,1.2558,
-1.14441,1.26343,
-1.15051,1.25885,
-1.16119,1.25732,
-1.17035,1.25427,
-1.1795,1.25427,
-1.19324,1.26038,
-1.19781,1.2558,
-1.21002,1.26038,
-1.21918,1.25427,
-1.22528,1.2558,
-1.23749,1.26038,
-1.24664,1.26038,
-1.25275,1.26343,
-1.26038,1.25427,
-1.26953,1.2558,
-1.28174,1.26343,
-1.28937,1.26648,
-1.30005,1.26648,
-1.30615,1.25732,
-1.31378,1.2558,
-1.32294,1.26343,
-1.32751,1.26648,
-1.33362,1.26495,
-1.34277,1.25732,
-1.3504,1.25427,
-1.35803,1.26495,
-1.37024,1.26495,
-1.38397,1.26648,
-1.39771,1.2558,
-1.40381,1.25732,
-1.41754,1.26648,
-1.42517,1.26648,
-1.43738,1.26801,
-1.44958,1.26038,
-1.45416,1.26038,
-1.46179,1.26801,
-1.46942,1.26648,
-1.47552,1.26953,
-1.48468,1.26038,
-1.48926,1.26495,
-1.49384,1.26648,
-1.49994,1.26953,
-1.50604,1.27411,
-1.51062,1.26495,
-1.51825,1.26648,
-1.52283,1.26953,
-1.52893,1.26801,
-1.53503,1.27716,
-1.54114,1.27106,
-1.54419,1.26495,
-1.54572,1.27258,
-1.55182,1.27258,
-1.54877,1.27563,
-1.55029,1.27106,
-1.55029,1.26801,
-1.54572,1.27411,
-1.53961,1.27563,
-1.53046,1.28021,
-1.51978,1.27411,
-1.50299,1.27106,
-1.49078,1.27869,
-1.4679,1.27716,
-1.44958,1.28479,
-1.42365,1.27563,
-1.39618,1.27258,
-1.36566,1.27716,
-1.33362,1.28174,
-1.3031,1.28174,
-1.26343,1.27716,
-1.22528,1.27716,
-1.18713,1.27869,
-1.14899,1.28326,
-1.10931,1.28326,
-1.06354,1.28326,
-1.02234,1.28021,
-0.982666,1.28326,
-0.939941,1.28479,
-0.895691,1.28632,
-0.854492,1.28632,
-0.810242,1.27716,
-0.773621,1.28479,
-0.732422,1.28479,
-0.694275,1.28784,
-0.663757,1.28174,
-0.62561,1.28174,
-0.593567,1.28479,
-0.558472,1.28784,
-0.527954,1.28784,
-0.495911,1.28784,
-0.471497,1.28174,
-0.440979,1.28937,
-0.418091,1.29547,
-0.396729,1.29547,
-0.372314,1.29242,
-0.35553,1.28937,
-0.332642,1.29089,
-0.312805,1.29547,
-0.296021,1.297,
-0.282288,1.29089,
-0.267029,1.29089,
-0.250244,1.29547,
-0.242615,1.297,
-0.230408,1.29852,
-0.221252,1.29547,
-0.205994,1.29547,
-0.201416,1.29852,
-0.187683,1.30005,
-0.178528,1.30157,
-0.175476,1.30005,
-0.164795,1.297,
-0.157166,1.29852,
-0.154114,1.3031,
-0.146484,1.30463,
-0.140381,1.29852,
-0.137329,1.297,
-0.134277,1.3031,
-0.1297,1.30463,
-0.126648,1.30463,
-0.119019,1.30463,
-0.119019,1.3031,
-0.115967,1.3031,
-0.114441,1.30615,
-0.112915,1.3092,
-0.115967,1.30463,
-0.119019,1.3031,
-0.119019,1.30768,
-0.120544,1.3092,
-0.12207,1.3092,
-0.120544,1.30768,
-0.12207,1.3031,
-0.123596,1.30768,
-0.12207,1.31073,
-0.125122,1.31378,
-0.128174,1.30768,
-0.135803,1.30768,
-0.132751,1.31226,
-0.137329,1.31378,
-0.141907,1.31683,
-0.146484,1.3092,
-0.151062,1.31226,
-0.151062,1.31531,
-0.154114,1.31836,
-0.157166,1.32141,
-0.163269,1.31531,
-0.167847,1.31531,
-0.170898,1.31378,
-0.177002,1.31836,
-0.180054,1.32294,
-0.18158,1.31836,
-0.180054,1.31531,
-0.183105,1.31989,
-0.184631,1.32141,
-0.187683,1.32141,
-0.186157,1.31836,
-0.186157,1.31836,
-0.184631,1.31836,
-0.184631,1.32446,
-0.18158,1.32599,
-0.18158,1.31989,
-0.18158,1.32141,
-0.18158,1.32141,
-0.187683,1.32446,
-0.187683,1.32904,
-0.192261,1.32294,
-0.192261,1.32294,
-0.19989,1.31989,
-0.202942,1.33057,
-0.210571,1.32904,
-0.218201,1.32294,
-0.219727,1.32446,
-0.22583,1.32446,
-0.233459,1.33209,
-0.242615,1.33057,
-0.250244,1.32599,
-0.260925,1.32141,
-0.265503,1.32599,
-0.27771,1.33362,
-0.291443,1.33209,
-0.302124,1.32599,
-0.314331,1.32599,
-0.320435,1.32599,
-0.326538,1.33514,
-0.337219,1.33362,
-0.343323,1.33057,
-0.357056,1.33057,
-0.367737,1.32599,
-0.376892,1.33514,
-0.389099,1.33362,
-0.395203,1.32599,
-0.40741,1.33209,
-0.419617,1.33362,
-0.431824,1.3382,
-0.448608,1.33667,
-0.45929,1.33057,
-0.471497,1.33362,
-0.485229,1.33209,
-0.497437,1.33972,
-0.509644,1.3382,
-0.520325,1.33209,
-0.534058,1.33667,
-0.547791,1.33667,
-0.563049,1.33972,
-0.578308,1.33972,
-0.593567,1.33514,
-0.605774,1.33667,
-0.622559,1.33362,
-0.639343,1.34277,
-0.65155,1.33972,
-0.662231,1.33514,
-0.674438,1.33362,
-0.68512,1.33667,
-0.70343,1.34277,
-0.717163,1.34125,
-0.730896,1.33362,
-0.746155,1.33514,
-0.761414,1.33514,
-0.775146,1.34125,
-0.785828,1.34125,
-0.801086,1.33514,
-0.814819,1.33667,
-0.828552,1.33972,
-0.839233,1.34125,
-0.854492,1.3443,
-0.868225,1.33972,
-0.881958,1.33667,
-0.889587,1.34125,
-0.900269,1.34735,
-0.907898,1.3443,
-0.917053,1.33972,
-0.930786,1.33972,
-0.944519,1.34125,
-0.956726,1.34583,
-0.967407,1.3504,
-0.973511,1.34125,
-0.978088,1.3382,
-0.98877,1.34277,
-0.993347,1.34735,
-1.00555,1.34888,
-1.01624,1.3382,
-1.02386,1.3443,
-1.03607,1.34277,
-1.04828,1.35193,
-1.05743,1.34735,
-1.06812,1.34277,
-1.08032,1.3443,
-1.08948,1.3443,
-1.10168,1.34888,
-1.11389,1.34735,
-1.12152,1.34735,
-1.13373,1.34125,
-1.15051,1.34277,
-1.16119,1.34888,
-1.17645,1.3504,
-1.18713,1.3443,
-1.19629,1.3443,
-1.20544,1.3443,
-1.21918,1.3504,
-1.22681,1.34735,
-1.24054,1.3443,
-1.24969,1.3443,
-1.26038,1.3443,
-1.27716,1.34735,
-1.28326,1.34735,
-1.29547,1.34735,
-1.3031,1.3443,
-1.31378,1.3443,
-1.32599,1.3504,
-1.33514,1.34735,
-1.3504,1.34583,
-1.35956,1.34277,
-1.37329,1.34735,
-1.38855,1.34735,
-1.40076,1.34888,
-1.41449,1.34583,
-1.42822,1.34277,
-1.43585,1.34277,
-1.44653,1.34888,
-1.45416,1.34888,
-1.45721,1.34888,
-1.45569,1.34277,
-1.46027,1.3443,
-1.45111,1.3504,
-1.44806,1.34888,
-1.44043,1.34888,
-1.4267,1.3443,
-1.41296,1.34888,
-1.3916,1.35193,
-1.36871,1.34735,
-1.34277,1.3504,
-1.31226,1.34277,
-1.28937,1.34735,
-1.25275,1.3504,
-1.21918,1.35345,
-1.18713,1.34735,
-1.15051,1.3443,
-1.10931,1.3504,
-1.06812,1.35345,
-1.02844,1.3504,
-0.98877,1.34735,
-0.953674,1.3443,
-0.912476,1.34888,
-0.875854,1.35193,
-0.837708,1.3504,
-0.801086,1.34583,
-0.761414,1.34277,
-0.721741,1.3504,
-0.686646,1.35193,
-0.657654,1.34888,
-0.621033,1.34583,
-0.582886,1.34125,
-0.546265,1.34888,
-0.520325,1.3504,
-0.492859,1.34735,
-0.465393,1.34583,
-0.440979,1.34583,
-0.419617,1.3504,
-0.395203,1.35193,
-0.376892,1.34888,
-0.363159,1.34583,
-0.346375,1.34277,
-0.331116,1.3504,
-0.320435,1.35345,
-0.308228,1.35193,
-0.299072,1.3504,
-0.289917,1.34277,
-0.282288,1.34735,
-0.273132,1.35345,
-0.268555,1.3504,
-0.260925,1.34888,
-0.259399,1.3443,
-0.254822,1.3504,
-0.250244,1.35193,
-0.248718,1.35193,
-0.248718,1.34888,
-0.25177,1.34277,
-0.248718,1.3504,
-0.253296,1.35193,
-0.253296,1.35193,
-0.256348,1.3504,
-0.259399,1.34125,
-0.267029,1.3504,
-0.273132,1.35193,
-0.282288,1.35345,
-0.289917,1.3504,
-0.302124,1.34277,
-0.312805,1.3504,
-0.318909,1.35193,
-0.326538,1.34888,
-0.332642,1.34888,
-0.346375,1.33972,
-0.35553,1.34888,
-0.361633,1.3504,
-0.369263,1.35193,
-0.372314,1.34583,
-0.382996,1.34125,
-0.392151,1.3504,
-0.398254,1.34735,
-0.40741,1.3504,
-0.411987,1.3504,
-0.421143,1.33972,
-0.428772,1.34888,
-0.43335,1.35345,
-0.442505,1.3504,
-0.445557,1.34888,
-0.45166,1.34125,
-0.45929,1.34888,
-0.462341,1.35193,
-0.468445,1.35193,
-0.471497,1.3504,
-0.474548,1.34125,
-0.474548,1.3504,
-0.480652,1.35193,
-0.485229,1.3504,
-0.488281,1.35193,
-0.492859,1.34125,
-0.497437,1.3504,
-0.502014,1.35193,
-0.506592,1.3504,
-0.512695,1.35193,
-0.514221,1.33972,
-0.518799,1.3504,
-0.521851,1.3504,
-0.524902,1.35193,
-0.52948,1.34583,
-0.531006,1.33972,
-0.534058,1.34888,
-0.538635,1.34888,
-0.547791,1.3504,
-0.55542,1.34888,
-0.566101,1.3443,
-0.570679,1.3504,
-0.58136,1.35345,
-0.588989,1.34583,
-0.601196,1.34735,
-0.608826,1.3382,
-0.621033,1.3504,
-0.628662,1.3504,
-0.636292,1.34888,
-0.646973,1.34888,
-0.657654,1.33972,
-0.668335,1.3504,
-0.675964,1.34888,
-0.68512,1.3504,
-0.694275,1.34735,
-0.701904,1.3382,
-0.715637,1.3504,
-0.724792,1.34888,
-0.737,1.3504,
-0.749207,1.34735,
-0.769043,1.33972,
-0.778198,1.35193,
-0.794983,1.35345,
-0.808716,1.35651,
-0.820923,1.3443,
-0.837708,1.34277,
-0.852966,1.34888,
-0.868225,1.3504,
-0.880432,1.34735,
-0.901794,1.34277,
-0.915527,1.34125,
-0.933838,1.34888,
-0.952148,1.35193,
-0.964355,1.34888,
-0.978088,1.34125,
-0.993347,1.34125,
-1.00861,1.3443,
-1.02386,1.34888,
-1.03607,1.34583,
-1.04828,1.3382,
-1.05896,1.33972,
-1.07574,1.34735,
-1.0849,1.34583,
-1.09711,1.34888,
-1.11389,1.3443,
-1.13373,1.34277,
-1.14746,1.34583,
-1.15814,1.3443,
-1.1734,1.3443,
-1.18713,1.34277,
-1.19934,1.3382,
-1.21155,1.3443,
-1.2207,1.34583,
-1.23596,1.34735,
-1.24817,1.33667,
-1.25885,1.34125,
-1.27106,1.34125,
-1.28632,1.34735,
-1.297,1.34735,
-1.3092,1.33667,
-1.31989,1.33972,
-1.33514,1.34583,
-1.34888,1.34888,
-1.36414,1.34125,
-1.37482,1.3382,
-1.3916,1.33972,
-1.40381,1.3443,
-1.41907,1.34735,
-1.42975,1.34277,
-1.44348,1.3382,
-1.45874,1.33972,
-1.47095,1.3443,
-1.48315,1.33972,
-1.49994,1.34277,
-1.51978,1.33362,
-1.53351,1.33972,
-1.54419,1.33972,
-1.56097,1.34277,
-1.57623,1.34277,
-1.59302,1.3382,
-1.6098,1.33514,
-1.62354,1.33972,
-1.63574,1.3443,
-1.6449,1.3443,
-1.66168,1.33514,
-1.67236,1.34125,
-1.68152,1.3382,
-1.69373,1.34277,
-1.70593,1.34277,
-1.72272,1.33514,
-1.73645,1.33667,
-1.75018,1.3382,
-1.76544,1.3443,
-1.77917,1.33972,
-1.79138,1.33972,
-1.80664,1.3382,
-1.81427,1.3382,
-1.82953,1.34125,
-1.83868,1.34125,
-1.84937,1.33362,
-1.85852,1.33667,
-1.87225,1.33667,
-1.87988,1.34277,
-1.88446,1.3382,
-1.88751,1.33514,
-1.89362,1.33514,
-1.89362,1.3382,
-1.89362,1.34277,
-1.88599,1.33972,
-1.88446,1.33209,
-1.87683,1.33667,
-1.87073,1.33362,
-1.86005,1.34125,
-1.84479,1.33972,
-1.82495,1.33362,
-1.80664,1.33362,
-1.78223,1.33667,
-1.75934,1.33972,
-1.73492,1.3382,
-1.70746,1.33362,
-1.67999,1.33362,
-1.64642,1.33362,
-1.61743,1.33667,
-1.58386,1.3382,
-1.55182,1.33514,
-1.51825,1.33362,
-1.48468,1.33209,
-1.45569,1.33667,
-1.42059,1.3382,
-1.3916,1.33362,
-1.35956,1.33057,
-1.32904,1.32904,
-1.30157,1.33667,
-1.27563,1.33972,
-1.24664,1.32904,
-1.21613,1.33209,
-1.19324,1.32599,
-1.16272,1.3382,
-1.14136,1.3382,
-1.12,1.32904,
-1.09406,1.33057,
-1.07422,1.32599,
-1.05438,1.33362,
-1.03912,1.33667,
-1.02081,1.33057,
-1.01013,1.32904,
-0.994873,1.32446,
-0.978088,1.33514,
-0.967407,1.33362,
-0.956726,1.33209,
-0.946045,1.32904,
-0.942993,1.32446,
-0.939941,1.33209,
-0.939941,1.33362,
-0.93689,1.32599,
-0.93689,1.32446,
-0.939941,1.32294,
-0.941467,1.33667,
-0.944519,1.33209,
-0.953674,1.32904,
-0.956726,1.32599,
-0.961304,1.32141,
-0.971985,1.33057,
-0.973511,1.33362,
-0.979614,1.32904,
-0.979614,1.32599,
-0.984192,1.32141,
-0.98877,1.33057,
-0.994873,1.33057,
-0.999451,1.32599,
-1.0025,1.32599,
-1.01471,1.32446,
-1.02386,1.32904,
-1.02997,1.33057,
-1.0498,1.32599,
-1.05438,1.32599,
-1.06201,1.32294,
-1.07422,1.32446,
-1.08337,1.32599,
-1.08948,1.32904,
-1.09863,1.31989,
-1.11084,1.32294,
-1.12305,1.32904,
-1.13068,1.32446,
-1.14441,1.32446,
-1.15204,1.32446,
-1.15509,1.31989,
-1.15967,1.32599,
-1.17035,1.32599,
-1.17188,1.32446,
-1.18561,1.32446,
-1.18561,1.31989,
-1.19629,1.32141,
-1.19934,1.32599,
-1.19934,1.32599,
-1.2085,1.32141,
-1.2146,1.32446,
-1.22375,1.32599,
-1.22528,1.32904,
-1.23138,1.32599,
-1.23444,1.32294,
-1.24359,1.31836,
-1.25275,1.32599,
-1.2558,1.32599,
-1.26648,1.32446,
-1.26801,1.32141,
-1.28021,1.31836,
-1.28784,1.32294,
-1.29395,1.32599,
-1.30005,1.32446,
-1.30463,1.31989,
-1.31073,1.31683,
-1.31378,1.32294,
-1.31683,1.31836,
-1.31989,1.32446,
-1.32294,1.31989,
-1.32904,1.31531,
-1.3382,1.32141,
-1.34888,1.32141,
-1.3504,1.31989,
-1.35803,1.31683,
-1.36719,1.31531,
-1.37482,1.32141,
-1.38702,1.32294,
-1.39923,1.32141,
-1.40686,1.31683,
-1.41602,1.31683,
-1.4267,1.31836,
-1.4328,1.31836,
-1.44348,1.32141,
-1.45874,1.31378,
-1.46637,1.31378,
-1.47552,1.31683,
-1.48468,1.31836,
-1.49078,1.31683,
-1.49994,1.31683,
-1.51062,1.31531,
-1.51978,1.31989,
-1.53046,1.31836,
-1.53351,1.31836,
-1.54572,1.31531,
-1.55487,1.31226,
-1.56555,1.31836,
-1.57623,1.32141,
-1.59149,1.31683,
-1.59912,1.31378,
-1.61285,1.31073,
-1.62506,1.31836,
-1.63879,1.32141,
-1.64795,1.31683,
-1.66473,1.31073,
-1.67236,1.31073,
-1.6861,1.31683,
-1.6983,1.31378,
-1.71509,1.31683,
-1.7334,1.3092,
-1.74561,1.31073,
-1.75934,1.31531,
-1.7746,1.31836,
-1.7868,1.31683,
-1.79901,1.3092,
-1.80969,1.30768,
-1.82648,1.31226,
-1.84021,1.31683,
-1.85089,1.31378,
-1.8692,1.31073,
-1.88446,1.30768,
-1.89819,1.31378,
-1.91498,1.31683,
-1.93024,1.31378,
-1.93939,1.31073,
-1.95313,1.30768,
-1.97144,1.31378,
-1.98364,1.31073,
-1.99585,1.31531,
-2.01263,1.30463,
-2.02179,1.30615,
-2.0401,1.31073,
-2.04773,1.31226,
-2.06604,1.31073,
-2.0752,1.30615,
-2.0874,1.30615,
-2.09656,1.31226,
-2.10571,1.31226,
-2.11792,1.31378,
-2.1286,1.30768,
-2.14081,1.30463,
-2.15454,1.31226,
-2.1637,1.3092,
-2.1759,1.31226,
-2.18353,1.3092,
-2.19727,1.30463,
-2.211,1.3092,
-2.22168,1.3092,
-2.23083,1.31073,
-2.24304,1.30768,
-2.2522,1.30463,
-2.2644,1.3092,
-2.27509,1.30615,
-2.28271,1.31073,
-2.2934,1.30463,
-2.3056,1.3031,
-2.31934,1.31073,
-2.32697,1.30768,
-2.3407,1.3092,
-2.34833,1.30005,
-2.35596,1.30157,
-2.36053,1.3092,
-2.37427,1.3092,
-2.37427,1.30615,
-2.37885,1.29852,
-2.37579,1.29852,
-2.37427,1.31073,
-2.36816,1.30463,
-2.36053,1.3092,
-2.34985,1.30157,
-2.33307,1.29852,
-2.31934,1.30768,
-2.30103,1.3092,
-2.28424,1.30463,
-2.25983,1.29547,
-2.23999,1.297,
-2.21405,1.31073,
-2.18658,1.30615,
-2.15454,1.30615,
-2.1225,1.29852,
-2.08893,1.297,
-2.05688,1.3092,
-2.02026,1.30463,
-1.98212,1.30157,
-1.94397,1.29852,
-1.9043,1.29547,
-1.86768,1.30615,
-1.82495,1.30005,
-1.78528,1.3031,
-1.74713,1.29852,
-1.70593,1.29547,
-1.66779,1.30615,
-1.62659,1.30157,
-1.58691,1.30157,
-1.55029,1.29852,
-1.51215,1.29547,
-1.47552,1.30157,
-1.44348,1.29852,
-1.41449,1.30615,
-1.37787,1.29547,
-1.34888,1.29242,
-1.32294,1.30005,
-1.28784,1.30463,
-1.26038,1.3031,
-1.23138,1.29547,
-1.21002,1.29089,
-1.18561,1.3031,
-1.16425,1.3031,
-1.15356,1.30157,
-1.13373,1.28937,
-1.11694,1.29547,
-1.10321,1.30157,
-1.091,1.29852,
-1.07727,1.30157,
-1.06812,1.297,
-1.05743,1.29242,
-1.05286,1.30157,
-1.0498,1.29852,
-1.04675,1.30157,
-1.0437,1.297,
-1.0376,1.29089,
-1.04218,1.29852,
-1.03912,1.30005,
-1.0376,1.30005,
-1.03455,1.29089,
-1.02997,1.29089,
-1.03455,1.29852,
-1.03607,1.30615,
-1.03912,1.297,
-1.04218,1.29242,
-1.04828,1.29089,
-1.0498,1.3031,
-1.0498,1.30005,
-1.05286,1.30005,
-1.05438,1.29547,
-1.05896,1.29242,
-1.05896,1.30157,
-1.06201,1.30005,
-1.06506,1.30005,
-1.07269,1.29547,
-1.08185,1.29852,
-1.08643,1.29852,
-1.09711,1.30157,
-1.10474,1.30005,
-1.10931,1.29852,
-1.12152,1.29852,
-1.12915,1.30157,
-1.13678,1.30157,
-1.14288,1.30005,
-1.15051,1.297,
-1.15509,1.297,
-1.16272,1.30005,
-1.1673,1.30157,
-1.16577,1.30157,
-1.17188,1.29242,
-1.17645,1.297,
-1.1795,1.30005,
-1.18866,1.30615,
-1.19171,1.30005,
-1.19781,1.297,
-1.20087,1.30157,
-1.21155,1.30615,
-1.2146,1.31073,
-1.2207,1.29852,
-1.22528,1.29852,
-1.23444,1.30005,
-1.23444,1.30463,
-1.24512,1.30768,
-1.24817,1.30157,
-1.24664,1.30157,
-1.25427,1.30005,
-1.25427,1.30463,
-1.26038,1.3092,
-1.26343,1.3031,
-1.26801,1.30615,
-1.27106,1.3031,
-1.28021,1.3092,
-1.28326,1.31531,
-1.28937,1.3031,
-1.29395,1.3031,
-1.30005,1.30463,
-1.30615,1.30615,
-1.3092,1.31836,
-1.31378,1.30768,
-1.32294,1.30768,
-1.32751,1.30463,
-1.33667,1.31073,
-1.3504,1.31836,
-1.35498,1.31073,
-1.36871,1.30463,
-1.37482,1.30768,
-1.38245,1.31378,
-1.39008,1.31531,
-1.40228,1.31531,
-1.41449,1.30615,
-1.4267,1.31073,
-1.43585,1.31226,
-1.45416,1.31683,
-1.46332,1.31226,
-1.47552,1.31073,
-1.48621,1.31073,
-1.49689,1.31683,
-1.50604,1.32141,
-1.51672,1.31531,
-1.52893,1.31531,
-1.53503,1.31073,
-1.54572,1.32141,
-1.54877,1.32446,
-1.56403,1.31683,
-1.57166,1.31378,
-1.58691,1.31073,
-1.5976,1.31836,
-1.6098,1.32446,
-1.62201,1.31989,
-1.63422,1.31683,
-1.65253,1.31531,
-1.66016,1.32141,
-1.67389,1.32904,
-1.68762,1.31683,
-1.69525,1.31531,
-1.71204,1.31989,
-1.72577,1.32141,
-1.74103,1.33057,
-1.75629,1.31836,
-1.76086,1.31836,
-1.77612,1.31989,
-1.78528,1.32141,
-1.79901,1.33362,
-1.81274,1.32141,
-1.82495,1.31989,
-1.83868,1.32141,
-1.85394,1.32599,
-1.86768,1.33667,
-1.87988,1.32904,
-1.89514,1.32446,
-1.90887,1.32294,
-1.91956,1.32904,
-1.93787,1.33667,
-1.9455,1.32294,
-1.95923,1.32599,
-1.97601,1.32446,
-1.98517,1.33057,
-1.9989,1.33667,
-2.01111,1.33057,
-2.01721,1.32904,
-2.02637,1.32904,
-2.03857,1.33362,
-2.05078,1.33972,
-2.06604,1.33209,
-2.07367,1.33514,
-2.09045,1.32904,
-2.10571,1.33667,
-2.11792,1.33972,
-2.13318,1.33057,
-2.14386,1.33362,
-2.15759,1.33057,
-2.17133,1.33972,
-2.18658,1.34125,
-2.19574,1.33362,
-2.21252,1.33514,
-2.22626,1.33362,
-2.24152,1.33972,
-2.25067,1.3443,
-2.26593,1.33514,
-2.28271,1.33362,
-2.29645,1.33667,
-2.31323,1.3443,
-2.32086,1.34888,
-2.33307,1.33972,
-2.34528,1.33972,
-2.35443,1.33972,
-2.36511,1.34583,
-2.38037,1.34735,
-2.3941,1.34125,
-2.40631,1.33972,
-2.4231,1.34277,
-2.43378,1.34735,
-2.45056,1.34735,
-2.46429,1.34277,
-2.47498,1.34125,
-2.49329,1.34125,
-2.50549,1.34888,
-2.52228,1.34888,
-2.53601,1.34735,
-2.55127,1.33667,
-2.56042,1.34277,
-2.56958,1.35498,
-2.58484,1.3504,
-2.59857,1.34583,
-2.61078,1.34277,
-2.62604,1.34583,
-2.63824,1.35345,
-2.6535,1.35345,
-2.66876,1.3504,
-2.67792,1.34735,
-2.6886,1.3443,
-2.70081,1.35498,
-2.71301,1.35498,
-2.72369,1.34735,
-2.73438,1.34735,
-2.73895,1.34735,
-2.75269,1.35803,
-2.76489,1.35498,
-2.77863,1.34888,
-2.78931,1.3504,
-2.80304,1.34735,
-2.8183,1.35803,
-2.83051,1.35651,
-2.83813,1.35498,
-2.83966,1.3504,
-2.84729,1.3504,
-2.85187,1.36261,
-2.86407,1.35345,
-2.86865,1.35345,
-2.87323,1.3504,
-2.87323,1.3504,
-2.8717,1.35956,
-2.87781,1.35956,
-2.87933,1.35193,
-2.87476,1.34888,
-2.86865,1.35345,
-2.8595,1.35956,
-2.84424,1.35651,
-2.83356,1.35803,
-2.81677,1.35956,
-2.79388,1.35345,
-2.76947,1.36261,
-2.74811,1.35803,
-2.72369,1.35498,
-2.69318,1.35651,
-2.66266,1.35193,
-2.63214,1.36566,
-2.60162,1.35956,
-2.57111,1.35651,
-2.53906,1.35345,
-2.50702,1.35651,
-2.47955,1.36261,
-2.45056,1.35803,
-2.4231,1.35498,
-2.39105,1.35803,
-2.36206,1.35345,
-2.33154,1.36261,
-2.30713,1.35803,
-2.28119,1.35956,
-2.25525,1.35345,
-2.22931,1.35193,
-2.211,1.35956,
-2.18964,1.36566,
-2.1637,1.35803,
-2.14386,1.35651,
-2.1225,1.35651,
-2.10876,1.35956,
-2.08893,1.36261,
-2.07367,1.35345,
-2.05536,1.35498,
-2.03705,1.35498,
-2.01874,1.36261,
-2.00806,1.36566,
-1.99738,1.35956,
-1.98059,1.35498,
-1.97449,1.35803,
-1.96381,1.36566,
-1.95007,1.35956,
-1.94397,1.35956,
-1.93634,1.35345,
-1.92871,1.35498,
-1.91956,1.36414,
-1.9165,1.35956,
-1.91193,1.36261,
-1.90735,1.35651,
-1.90125,1.35498,
-1.90277,1.36261,
-1.89972,1.35956,
-1.89972,1.35956,
-1.89514,1.35651,
-1.89819,1.35345,
-1.89972,1.35956,
-1.89972,1.35956,
-1.89972,1.36566,
-1.9043,1.35345,
-1.90582,1.35498,
-1.91345,1.35956,
-1.91803,1.36261,
-1.92261,1.36566,
-1.93481,1.35498,
-1.94702,1.35498,
-1.95007,1.35956,
-1.96228,1.35803,
-1.96533,1.36414,
-1.97296,1.35498,
-1.98059,1.35345,
-1.98669,1.35803,
-1.9928,1.35803,
-1.9989,1.36261,
-2.00348,1.35651,
-2.00653,1.35193,
-2.00958,1.35651,
-2.01416,1.35651,
-2.01874,1.36261,
-2.02179,1.35498,
-2.02789,1.35193,
-2.034,1.35803,
-2.03705,1.35956,
-2.04163,1.35803,
-2.04773,1.35498,
-2.04773,1.35345,
-2.05078,1.35651,
-2.05536,1.35803,
-2.05841,1.36414,
-2.05994,1.35345,
-2.06146,1.35498,
-2.07062,1.35345,
-2.07214,1.36414,
-2.0752,1.36261,
-2.07672,1.35803,
-2.07977,1.34735,
-2.08588,1.35803,
-2.09045,1.35956,
-2.09961,1.35498,
-2.10266,1.35345,
-2.11029,1.34583,
-2.11487,1.35498,
-2.11945,1.35651,
-2.12555,1.35651,
-2.13318,1.35345,
-2.13928,1.34888,
-2.14386,1.35803,
-2.14691,1.35803,
-2.15302,1.35651,
-2.15454,1.35193,
-2.1637,1.34888,
-2.1759,1.35193,
-2.18201,1.35803,
-2.19269,1.35651,
-2.20337,1.35498,
-2.21252,1.3504,
-2.21863,1.35345,
-2.22778,1.35498,
-2.23999,1.35651,
-2.24915,1.35345,
-2.2583,1.34888,
-2.2644,1.35345,
-2.27203,1.35498,
-2.28119,1.35803,
-2.28882,1.35498,
-2.30103,1.34583,
-2.30865,1.3504,
-2.32086,1.35345,
-2.32697,1.35651,
-2.33612,1.3504,
-2.34833,1.34735,
-2.35443,1.34888,
-2.35901,1.35193,
-2.36969,1.35498,
-2.38037,1.34888,
-2.39258,1.34735,
-2.40021,1.3504,
-2.41241,1.3504,
-2.42004,1.35498,
-2.42767,1.3443,
-2.44598,1.3443,
-2.45514,1.34735,
-2.46124,1.35193,
-2.47345,1.35345,
-2.48871,1.34888,
-2.50092,1.34277,
-2.50702,1.34735,
-2.51923,1.3504,
-2.53296,1.34888,
-2.54364,1.34735,
-2.55585,1.3443,
-2.56348,1.34735,
-2.57568,1.3504,
-2.58636,1.35193,
-2.59399,1.3443,
-2.60315,1.3382,
-2.61078,1.34888,
-2.61688,1.34735,
-2.62604,1.34888,
-2.63214,1.3443,
-2.64587,1.34125,
-2.65045,1.34583,
-2.65808,1.3443,
-2.66724,1.3504,
-2.67792,1.34277,
-2.6886,1.34277,
-2.69623,1.34277,
-2.70691,1.3443,
-2.71454,1.34888,
-2.72522,1.34277,
-2.73285,1.34125,
-2.73895,1.34125,
-2.74963,1.34735,
-2.75726,1.3443,
-2.76489,1.34125,
-2.77405,1.33972,
-2.7832,1.33972,
-2.79694,1.3443,
-2.80914,1.34735,
-2.81677,1.33972,
-2.83203,1.33972,
-2.84119,1.34125,
-2.85187,1.3443,
-2.8656,1.3443,
-2.87476,1.3382,
-2.88391,1.3382,
-2.89307,1.34125,
-2.90222,1.34277,
-2.9129,1.33972,
-2.92053,1.33667,
-2.93732,1.34277,
-2.94647,1.34277,
-2.9541,1.34125,
-2.97089,1.34583,
-2.98004,1.3382,
-2.98767,1.33514,
-3.00293,1.3382,
-3.01666,1.34277,
-3.02429,1.34125,
-3.03497,1.33667,
-3.04413,1.3382,
-3.05328,1.33514,
-3.06244,1.33972,
-3.07007,1.34125,
-3.07617,1.33362,
-3.08685,1.33209,
-3.09753,1.33667,
-3.10822,1.33972,
-3.11584,1.34125,
-3.12195,1.33209,
-3.13263,1.33209,
-3.14178,1.33362,
-3.14636,1.34125,
-3.15399,1.33972,
-3.15704,1.33514,
-3.16772,1.33209,
-3.17383,1.33514,
-3.18298,1.34125,
-3.19366,1.3382,
-3.20587,1.33057,
-3.2135,1.33362,
-3.2196,1.33362,
-3.22876,1.33972,
-3.24097,1.33972,
-3.2486,1.33362,
-3.25623,1.32904,
-3.26996,1.33362,
-3.28217,1.34125,
-3.28827,1.33514,
-3.302,1.32599,
-3.30963,1.32599,
-3.31573,1.33057,
-3.32336,1.33667,
-3.32947,1.3382,
-3.33862,1.33057,
-3.34473,1.32904,
-3.35083,1.33209,
-3.35693,1.33514,
-3.36151,1.33362,
-3.37219,1.32904,
-3.37982,1.32904,
-3.3905,1.33057,
-3.39966,1.33667,
-3.40729,1.33514,
-3.41492,1.32294,
-3.42102,1.32446,
-3.41949,1.32904,
-3.4256,1.32904,
-3.43018,1.32904,
-3.42712,1.32904,
-3.42407,1.32904,
-3.42102,1.32446,
-3.41797,1.33362,
-3.41034,1.32904,
-3.40576,1.32294,
-3.39203,1.32599,
-3.3783,1.32904,
-3.37067,1.33362,
-3.35846,1.33057,
-3.34015,1.32141,
-3.32642,1.32446,
-3.30811,1.32446,
-3.28827,1.33209,
-3.26996,1.32904,
-3.25012,1.31531,
-3.22876,1.32294,
-3.21198,1.31989,
-3.19214,1.33057,
-3.17078,1.32446,
-3.14941,1.31836,
-3.12653,1.32141,
-3.10974,1.32141,
-3.0899,1.33057,
-3.07007,1.32904,
-3.05328,1.31836,
-3.03192,1.32141,
-3.01514,1.32446,
-2.99988,1.32446,
-2.98309,1.32599,
-2.97089,1.31989,
-2.96021,1.32141,
-2.94342,1.32141,
-2.92816,1.32599,
-2.9129,1.32904,
-2.90222,1.31836,
-2.88239,1.31836,
-2.8717,1.31989,
-2.8595,1.32294,
-2.84119,1.32446,
-2.82745,1.31531,
-2.81372,1.31989,
-2.80151,1.31683,
-2.79083,1.32446,
-2.78015,1.32446,
-2.77252,1.31683,
-2.76184,1.31683,
-2.75269,1.31531,
-2.7359,1.32446,
-2.72675,1.32446,
-2.71759,1.31531,
-2.70691,1.31989,
-2.69928,1.31378,
-2.6947,1.32141,
-2.68707,1.32294,
-2.68555,1.31683,
-2.67792,1.31378,
-2.67639,1.31378,
-2.67487,1.32141,
-2.67487,1.31683,
-2.67334,1.31378,
-2.67334,1.31378,
-2.67487,1.31531,
-2.67181,1.32141,
-2.67181,1.31836,
-2.66724,1.31683,
-2.66724,1.31073,
-2.66571,1.31226,
-2.66876,1.31989,
-2.66418,1.31683,
-2.66266,1.31226,
-2.66266,1.31531,
-2.66113,1.3092,
-2.66418,1.31836,
-2.66113,1.31683,
-2.66113,1.31226,
-2.65808,1.31073,
-2.65961,1.31226,
-2.65808,1.31989,
-2.66266,1.31683,
-2.66113,1.3092,
-2.66266,1.31378,
-2.66724,1.31073,
-2.66418,1.31836,
-2.66571,1.31531,
-2.65961,1.31073,
-2.65656,1.30768,
-2.65808,1.30615,
-2.65503,1.31531,
-2.65656,1.31073,
-2.65503,1.31073,
-2.65961,1.30615,
-2.65808,1.3092,
-2.65503,1.31531,
-2.65503,1.31073,
-2.65656,1.31073,
-2.65503,1.3031,
-2.65656,1.31073,
-2.65808,1.31378,
-2.65961,1.31226,
-2.66266,1.31073,
-2.66266,1.30615,
-2.66418,1.30768,
-2.66113,1.31378,
-2.66418,1.31073,
-2.66266,1.30768,
-2.66113,1.30463,
-2.66113,1.3092,
-2.66266,1.31073,
-2.65961,1.31073,
-2.66266,1.30463,
-2.66418,1.30615,
-2.67029,1.3092,
-2.67029,1.31073,
-2.66876,1.3031,
-2.67334,1.30768,
-2.66876,1.30463,
-2.67029,1.31226,
-2.67181,1.3092,
-2.67334,1.30768,
-2.67487,1.30615,
-2.68097,1.3031,
-2.6886,1.30615,
-2.6886,1.3092,
-2.6886,1.30768,
-2.69165,1.30463,
-2.69012,1.30157,
-2.69165,1.30615,
-2.69623,1.31073,
-2.69928,1.30768,
-2.70233,1.30157,
-2.70538,1.29852,
-2.70691,1.30615,
-2.70996,1.31073,
-2.71912,1.30463,
-2.71301,1.3031,
-2.71759,1.29852,
-2.72522,1.3031,
-2.72675,1.31073,
-2.73438,1.30615,
-2.74353,1.3031,
-2.74811,1.297,
-2.75421,1.3031,
-2.75726,1.30768,
-2.76184,1.3031,
-2.76642,1.30157,
-2.771,1.29089,
-2.77405,1.3031,
-2.78015,1.30463,
-2.7832,1.30463,
-2.79083,1.3031,
-2.79083,1.297,
-2.79388,1.30157,
-2.79846,1.30463,
-2.80304,1.30463,
-2.80304,1.30005,
-2.80609,1.29089,
-2.81525,1.3031,
-2.8183,1.29852,
-2.8244,1.30463,
-2.83203,1.297,
-2.83813,1.28937,
-2.84729,1.30463,
-2.85034,1.29852,
-2.85797,1.30157,
-2.8656,1.3031,
-2.87476,1.29089,
-2.88086,1.29852,
-2.88391,1.3031,
-2.88544,1.30157,
-2.89307,1.297,
-2.89459,1.29547,
-2.89459,1.30157,
-2.9007,1.30157,
-2.90375,1.30157,
-2.9068,1.29852,
-2.90833,1.28632,
-2.91138,1.29852,
-2.92358,1.3031,
-2.92816,1.30005,
-2.93579,1.297,
-2.94342,1.28784,
-2.95105,1.297,
-2.95868,1.3031,
-2.96173,1.297,
-2.96783,1.29852,
-2.97699,1.28479,
-2.97852,1.29852,
-2.98309,1.29852,
-2.98767,1.29852,
-2.98615,1.29547,
-2.9953,1.28479,
-3.00446,1.29089,
-3.01208,1.3031,
-3.01666,1.297,
-3.02429,1.29547,
-3.0365,1.28632,
-3.04413,1.29242,
-3.05176,1.29089,
-3.05634,1.29547,
-3.06396,1.29242,
-3.07159,1.28479,
-3.07465,1.29242,
-3.08075,1.29852,
-3.08685,1.297,
-3.09601,1.29547,
-3.10364,1.28326,
-3.10822,1.29242,
-3.11737,1.29547,
-3.125,1.29852,
-3.13263,1.297,
-3.13873,1.28174,
-3.14636,1.29852,
-3.15094,1.29547,
-3.15552,1.28937,
-3.16162,1.29547,
-3.16925,1.28326,
-3.17383,1.29242,
-3.18451,1.29547,
-3.18909,1.29242,
-3.19214,1.28784,
-3.19672,1.28326,
-3.20282,1.29547,
-3.20892,1.29242,
-3.21198,1.29089,
-3.21503,1.28479,
-3.22266,1.28479,
-3.23029,1.28937,
-3.23944,1.28784,
-3.2486,1.28937,
-3.2547,1.28784,
-3.2608,1.28174,
-3.26996,1.29242,
-3.27301,1.28937,
-3.27911,1.28784,
-3.28369,1.28784,
-3.29285,1.28326,
-3.302,1.28784,
-3.30963,1.29547,
-3.31268,1.28784,
-3.31879,1.28632,
-3.32336,1.28326,
-3.32947,1.28479,
-3.33405,1.29089,
-3.34473,1.28632,
-3.34625,1.28326,
-3.3493,1.28479,
-3.35236,1.28632,
-3.35693,1.28937,
-3.35693,1.28479,
-3.35693,1.28174,
-3.35846,1.27869,
-3.35541,1.28479,
-3.3493,1.28784,
-3.3432,1.28632,
-3.33862,1.28021,
-3.32489,1.28021,
-3.31268,1.28784,
-3.29742,1.28632,
-3.28217,1.28479,
-3.27148,1.27563,
-3.25165,1.28174,
-3.23792,1.28632,
-3.2196,1.28479,
-3.20282,1.28632,
-3.17688,1.27869,
-3.15857,1.28021,
-3.13568,1.28326,
-3.11584,1.28479,
-3.09143,1.28479,
-3.05939,1.27716,
-3.03497,1.27869,
-3.00903,1.28174,
-2.98004,1.28632,
-2.95258,1.28326,
-2.92358,1.27716,
-2.89917,1.28021,
-2.8717,1.28021,
-2.84424,1.28632,
-2.82288,1.28174,
-2.79388,1.27716,
-2.76947,1.27869,
-2.742,1.27869,
-2.72064,1.28174,
-2.69775,1.28174,
-2.67639,1.27563,
-2.66113,1.27869,
-2.63824,1.27716,
-2.62146,1.27869,
-2.6062,1.28326,
-2.59247,1.27411,
-2.57568,1.27869,
-2.5589,1.27869,
-2.54669,1.28174,
-2.53143,1.28021,
-2.51617,1.27563,
-2.50244,1.27716,
-2.49023,1.27869,
-2.4704,1.28021,
-2.45819,1.27869,
-2.44751,1.27106,
-2.43378,1.27563,
-2.42462,1.27563,
-2.41547,1.28174,
-2.40479,1.27869,
-2.3941,1.27563,
-2.38342,1.27563,
-2.37732,1.27869,
-2.36511,1.28326,
-2.36206,1.27869,
-2.35596,1.27716,
-2.34985,1.27563,
-2.3468,1.27563,
-2.34833,1.28021,
-2.3468,1.27869,
-2.34375,1.27411,
-2.33917,1.27411,
-2.33459,1.27563,
-2.33154,1.27869,
-2.33002,1.27716,
-2.32697,1.27563,
-2.32391,1.27563,
-2.32086,1.27258,
-2.32391,1.28021,
-2.31781,1.27411,
-2.31628,1.27258,
-2.31323,1.27106,
-2.31171,1.27258,
-2.30865,1.27563,
-2.3056,1.27563,
-2.30713,1.27106,
-2.30103,1.27258,
-2.2995,1.27411,
-2.29492,1.28021,
-2.28729,1.27869,
-2.28729,1.27258,
-2.28577,1.27106,
-2.27966,1.27106,
-2.27356,1.27716,
-2.27356,1.27563,
-2.27051,1.27258,
-2.26593,1.27258,
-2.26288,1.26801,
-2.26593,1.27411,
-2.25983,1.27411,
-2.25677,1.27258,
-2.25372,1.27258,
-2.25067,1.26801,
-2.24609,1.27258,
-2.24152,1.27258,
-2.24152,1.27106,
-2.23236,1.27106,
-2.23083,1.26801,
-2.22931,1.27563,
-2.22626,1.27411,
-2.2171,1.27258,
-2.21252,1.27106,
-2.211,1.26801,
-2.20337,1.27258,
-2.20184,1.27258,
-2.19574,1.26953,
-2.19116,1.27106,
-2.18811,1.26495,
-2.18353,1.27563,
-2.17896,1.27411,
-2.17896,1.26953,
-2.1759,1.26953,
-2.17285,1.26343,
-2.17133,1.27411,
-2.17133,1.27106,
-2.16827,1.27106,
-2.16217,1.26953,
-2.16522,1.26648,
-2.16217,1.27411,
-2.16064,1.27563,
-2.1637,1.26801,
-2.15912,1.26495,
-2.15912,1.26648,
-2.15759,1.27563,
-2.15912,1.27411,
-2.15759,1.27258,
-2.15912,1.27106,
-2.1637,1.26495,
-2.1637,1.27411,
-2.16522,1.27411,
-2.16827,1.27258,
-2.16827,1.26801,
-2.17438,1.26801,
-2.17896,1.27411,
-2.18353,1.27411,
-2.18506,1.26953,
-2.18811,1.26801,
-2.19269,1.26953,
-2.20184,1.27258,
-2.20184,1.27563,
-2.20642,1.27106,
-2.21405,1.26648,
-2.21863,1.26495,
-2.22473,1.27106,
-2.22778,1.26953,
-2.23083,1.26953,
-2.24304,1.26953,
-2.24304,1.26648,
-2.24762,1.26801,
-2.25525,1.27411,
-2.25983,1.26953,
-2.26288,1.26801,
-2.2644,1.26648,
-2.26746,1.26953,
-2.27203,1.27563,
-2.27966,1.26953,
-2.28577,1.26801,
-2.28577,1.26801,
-2.29187,1.27106,
-2.2934,1.27411,
-2.29645,1.27106,
-2.29645,1.26648,
-2.30103,1.26648,
-2.31323,1.27106,
-2.31781,1.27411,
-2.32544,1.26953,
-2.33459,1.26801,
-2.34375,1.26495,
-2.34985,1.27106,
-2.35748,1.27106,
-2.36359,1.27106,
-2.36664,1.26495,
-2.37427,1.26801,
-2.37579,1.27106,
-2.38495,1.27563,
-2.38953,1.27258,
-2.39563,1.27106,
-2.40479,1.26495,
-2.41089,1.27258,
-2.41699,1.27106,
-2.4292,1.26953,
-2.43835,1.26801,
-2.44751,1.26648,
-2.45819,1.27106,
-2.46582,1.27258,
-2.47955,1.27258,
-2.48871,1.26801,
-2.49634,1.26343,
-2.50549,1.27258,
-2.51465,1.27258,
-2.52228,1.27258,
-2.52838,1.26801,
-2.53601,1.26648,
-2.54364,1.27106,
-2.5528,1.27563,
-2.56348,1.26953,
-2.57111,1.26953,
-2.58026,1.26038,
-2.58331,1.27258,
-2.58636,1.27258,
-2.59705,1.27106,
-2.60162,1.26801,
-2.61078,1.26801,
-2.61688,1.27563,
-2.62299,1.27563,
-2.62756,1.27411,
-2.63672,1.26801,
-2.64282,1.26495,
-2.64893,1.27106,
-2.65503,1.27106,
-2.65808,1.27258,
-2.66113,1.26953,
-2.66571,1.26495,
-2.67792,1.27411,
-2.68402,1.27411,
-2.69165,1.26953,
-2.69623,1.26953,
-2.70691,1.26343,
-2.71301,1.27258,
-2.71912,1.27106,
-2.7298,1.27106,
-2.73743,1.26648,
-2.74506,1.26648,
-2.75726,1.27106,
-2.76642,1.27411,
-2.76794,1.26953,
-2.77405,1.26953,
-2.78015,1.26495,
-2.78625,1.27563,
-2.79236,1.27106,
-2.79846,1.26953,
-2.80151,1.26953,
-2.80762,1.26343,
-2.80914,1.27258,
-2.81372,1.27106,
-2.81525,1.27411,
-2.82135,1.26801,
-2.82288,1.26343,
-2.82745,1.27258,
-2.83051,1.26801,
-2.83356,1.26953,
-2.83508,1.26343,
-2.83661,1.26801,
-2.83813,1.27106,
-2.84119,1.27258,
-2.83661,1.26953,
-2.83661,1.26801,
-2.83203,1.26648,
-2.82288,1.27106,
-2.81525,1.27258,
-2.80762,1.27258,
-2.79999,1.26495,
-2.78931,1.26495,
-2.7771,1.27411,
-2.76489,1.27106,
-2.75269,1.27106,
-2.73743,1.26648,
-2.71301,1.26801,
-2.69318,1.27258,
-2.67334,1.27258,
-2.64435,1.27106,
-2.62146,1.26343,
-2.59399,1.26343,
-2.56958,1.27106,
-2.53906,1.27106,
-2.51312,1.27411,
-2.47955,1.26343,
-2.44751,1.26648,
-2.41699,1.27106,
-2.388,1.26953,
-2.35291,1.27411,
-2.32239,1.26801,
-2.2934,1.26495,
-2.26593,1.27106,
-2.23694,1.26801,
-2.211,1.27411,
-2.18201,1.26801,
-2.15302,1.26801,
-2.12555,1.27258,
-2.09351,1.26648,
-2.06604,1.27258,
-2.0401,1.26495,
-2.01569,1.26343,
-1.99127,1.27258,
-1.96838,1.26953,
-1.94702,1.27258,
-1.92871,1.26038,
-1.90735,1.26648,
-1.89056,1.27411,
-1.87531,1.26953,
-1.8631,1.27106,
-1.84479,1.26038,
-1.83105,1.26495,
-1.8158,1.27258,
-1.80054,1.26801,
-1.78986,1.26953,
-1.77307,1.26495,
-1.76239,1.26343,
-1.75171,1.27106,
-1.73798,1.27258,
-1.72577,1.27106,
-1.71661,1.26343,
-1.70288,1.26648,
-1.69678,1.27563,
-1.68762,1.26953,
-1.67847,1.27411,
-1.67542,1.26495,
-1.67084,1.26038,
-1.67084,1.27258,
-1.66473,1.26801,
-1.66321,1.27411,
-1.66321,1.26343,
-1.6571,1.25885,
-1.65863,1.27563,
-1.65558,1.26953,
-1.65558,1.26495,
-1.65405,1.26648,
-1.65253,1.26343,
-1.65405,1.27563,
-1.65558,1.26801,
-1.66016,1.27411,
-1.66016,1.26495,
-1.66168,1.26038,
-1.66473,1.27258,
-1.66168,1.26801,
-1.66321,1.26801,
-1.65863,1.26343,
-1.66016,1.26495,
-1.65405,1.27411,
-1.64948,1.26801,
-1.64948,1.26953,
-1.64642,1.26343,
-1.64337,1.26038,
-1.63879,1.27258,
-1.63879,1.26801,
-1.63116,1.26953,
-1.62964,1.26038,
-1.62506,1.2558,
-1.62659,1.27106,
-1.62048,1.26648,
-1.61896,1.26801,
-1.61285,1.26343,
-1.6098,1.25732,
-1.60522,1.26343,
-1.60217,1.26648,
-1.59912,1.26953,
-1.59607,1.25885,
-1.59302,1.26343,
-1.59149,1.26953,
-1.58997,1.26953,
-1.58539,1.26953,
-1.58539,1.26648,
-1.58539,1.26343,
-1.58386,1.26953,
-1.58691,1.26953,
-1.58997,1.27106,
-1.5976,1.26495,
-1.59912,1.25885,
-1.6037,1.27106,
-1.60675,1.26801,
-1.61285,1.26801,
-1.61896,1.26495,
-1.62354,1.26495,
-1.62354,1.26801,
-1.62659,1.27106,
-1.62811,1.26648,
-1.62811,1.25885,
-1.62811,1.25885,
-1.62659,1.26801,
-1.62506,1.26648,
-1.62964,1.26495,
-1.62811,1.26343,
-1.63422,1.26343,
-1.63116,1.26953,
-1.63422,1.26801,
-1.63879,1.26801,
-1.63574,1.26038,
-1.63879,1.26495,
-1.64032,1.26495,
-1.64337,1.27106,
-1.64337,1.26648,
-1.64795,1.26343,
-1.64948,1.26495,
-1.65863,1.26801,
-1.66321,1.26953,
-1.67389,1.26801,
-1.6861,1.26648,
-1.6922,1.26495,
-1.69983,1.26953,
-1.70898,1.26801,
-1.72119,1.26343,
-1.71814,1.25732,
-1.72577,1.26495,
-1.72882,1.26801,
-1.7334,1.26801,
-1.7395,1.26038,
-1.74408,1.25885,
-1.74561,1.26343,
-1.74713,1.26495,
-1.75629,1.26953,
-1.75476,1.26343,
-1.76392,1.25732,
-1.77155,1.26343,
-1.77917,1.26343,
-1.78375,1.27106,
-1.78986,1.26343,
-1.79596,1.25885,
-1.79901,1.25885,
-1.80664,1.26495,
-1.81274,1.26801,
-1.8219,1.26343,
-1.83258,1.25885,
-1.84937,1.26343,
-1.85852,1.26648,
-1.8631,1.26648,
-1.87073,1.26038,
-1.87683,1.25732,
-1.88446,1.25885,
-1.89667,1.26648,
-1.90735,1.26953,
-1.91498,1.25885,
-1.92413,1.26038,
-1.92871,1.25732,
-1.93787,1.26495,
-1.9455,1.26953,
-1.95313,1.25885,
-1.96381,1.25732,
-1.97449,1.25885,
-1.98059,1.26648,
-1.98975,1.26801,
-1.9989,1.25885,
-2.00958,1.25885,
-2.01874,1.25732,
-2.02637,1.26648,
-2.03094,1.26801,
-2.04163,1.26038,
-2.05231,1.26038,
-2.06604,1.25885,
-2.07977,1.26038,
-2.08435,1.27106,
-2.09198,1.26038,
-2.10419,1.26038,
-2.11639,1.25885,
-2.12708,1.26343,
-2.13928,1.27106,
-2.14844,1.26038,
-2.15912,1.25885,
-2.16522,1.25732,
-2.1759,1.26648,
-2.18811,1.26801,
-2.19421,1.26038,
-2.20795,1.26038,
-2.21405,1.25885,
-2.22168,1.26343,
-2.22473,1.27258,
-2.22931,1.25885,
-2.23083,1.25732,
-2.23846,1.25885,
-2.24304,1.26038,
-2.24915,1.27106,
-2.24915,1.26343,
-2.2583,1.25885,
-2.26288,1.25732,
-2.27051,1.26495,
-2.27966,1.27106,
-2.28729,1.26343,
-2.29187,1.25885,
-2.29797,1.25732,
-2.30255,1.26495,
-2.31018,1.27106,
-2.31171,1.25885,
-2.31781,1.25427,
-2.32697,1.25732,
-2.33307,1.26343,
-2.33917,1.26953,
-2.34528,1.26038,
-2.34985,1.25732,
-2.35748,1.25732,
-2.36511,1.26343,
-2.36816,1.27258,
-2.37885,1.25885,
-2.38647,1.25732,
-2.39105,1.25732,
-2.39563,1.26495,
-2.40173,1.26953,
-2.40936,1.25885,
-2.41547,1.25885,
-2.42004,1.25732,
-2.42767,1.26038,
-2.4292,1.27106,
-2.43378,1.25885,
-2.43378,1.26038,
-2.43378,1.25732,
-2.43378,1.26343,
-2.4292,1.27106,
-2.41852,1.25885,
-2.40936,1.25732,
-2.39258,1.25427,
-2.37732,1.26648,
-2.35901,1.26801,
-2.34222,1.26038,
-2.32086,1.2558,
-2.29645,1.25427,
-2.27051,1.26495,
-2.24609,1.27106,
-2.21252,1.2558,
-2.17896,1.25732,
-2.15149,1.2558,
-2.12402,1.26038,
-2.09198,1.26953,
-2.05841,1.25732,
-2.02484,1.25732,
-1.99127,1.2558,
-1.9577,1.26495,
-1.92871,1.26801,
-1.9043,1.25885,
-1.87073,1.2558,
-1.84326,1.25885,
-1.81427,1.26648,
-1.7868,1.26495,
-1.75781,1.25885,
-1.73645,1.25427,
-1.71051,1.25732,
-1.6861,1.26495,
-1.65863,1.26495,
-1.63574,1.25732,
-1.61896,1.25275,
-1.59912,1.25732,
-1.58691,1.26648,
-1.56555,1.26343,
-1.54877,1.2558,
-1.53198,1.25885,
-1.51672,1.26038,
-1.50299,1.27106,
-1.48926,1.26495,
-1.47552,1.25732,
-1.46484,1.26038,
-1.45416,1.25732,
-1.44806,1.26801,
-1.44043,1.26801,
-1.43433,1.25732,
-1.43127,1.25732,
-1.42059,1.25427,
-1.41754,1.26648,
-1.41296,1.26801,
-1.40839,1.25732,
-1.40533,1.25885,
-1.40533,1.2558,
-1.40228,1.26648,
-1.40533,1.26343,
-1.40533,1.25885,
-1.40839,1.25885,
-1.40533,1.25885,
-1.41144,1.26801,
-1.40839,1.26953,
-1.41449,1.26038,
-1.41754,1.25732,
-1.42365,1.2558,
-1.4267,1.26648,
-1.42822,1.26648,
-1.43127,1.25885,
-1.43738,1.25732,
-1.4389,1.25732,
-1.44653,1.26648,
-1.44653,1.26953,
-1.44958,1.26343,
-1.45416,1.25732,
-1.46027,1.25885,
-1.46179,1.26801,
-1.46179,1.26495,
-1.46179,1.26343,
-1.46027,1.25885,
-1.46179,1.2558,
-1.46027,1.26801,
-1.45874,1.26343,
-1.46179,1.25885,
-1.46027,1.25885,
-1.45874,1.25732,
-1.45416,1.26343,
-1.44958,1.26495,
-1.44653,1.25885,
-1.44043,1.25885,
-1.4389,1.2558,
-1.43433,1.26953,
-1.4267,1.26495,
-1.42059,1.26038,
-1.41907,1.2558,
-1.41754,1.25427,
-1.41296,1.26495,
-1.40533,1.25885,
-1.40228,1.26038,
-1.39923,1.25732,
-1.40228,1.25732,
-1.40076,1.26343,
-1.40228,1.26343,
-1.40228,1.25885,
-1.40381,1.25732,
-1.40533,1.25732,
-1.40228,1.26495,
-1.40381,1.26343,
-1.40686,1.25885,
-1.40686,1.2558,
-1.40839,1.25732,
-1.41144,1.26495,
-1.41296,1.26343,
-1.41754,1.26038,
-1.41754,1.2558,
-1.41907,1.2558,
-1.42365,1.26343,
-1.42517,1.26038,
-1.43127,1.26343,
-1.43585,1.2558,
-1.4389,1.2558,
-1.44653,1.26495,
-1.45264,1.25885,
-1.45264,1.25885,
-1.46027,1.25885,
-1.46484,1.2558,
-1.4679,1.26343,
-1.47552,1.25885,
-1.48468,1.26038,
-1.49231,1.2558,
-1.50146,1.25122,
-1.51062,1.26038,
-1.52283,1.26495,
-1.53046,1.26495,
-1.54114,1.2558,
-1.54572,1.25732,
-1.55792,1.26343,
-1.5686,1.26343,
-1.57776,1.26495,
-1.58539,1.25427,
-1.59149,1.26343,
-1.60522,1.26038,
-1.61285,1.26343,
-1.62354,1.26648,
-1.63574,1.2558,
-1.64642,1.2558,
-1.6571,1.26343,
-1.66626,1.26343,
-1.67847,1.26648,
-1.6861,1.2558,
-1.6983,1.25732,
-1.71204,1.25885,
-1.72272,1.26495,
-1.73492,1.26648,
-1.74408,1.25732,
-1.75629,1.25427,
-1.76392,1.25885,
-1.77307,1.26343,
-1.78528,1.26038,
-1.79291,1.2558,
-1.80359,1.25427,
-1.81122,1.26038,
-1.81732,1.26038,
-1.82648,1.26343,
-1.83868,1.25275,
-1.84784,1.25275,
-1.85852,1.25885,
-1.86768,1.26495,
-1.87683,1.26495,
-1.88293,1.2558,
-1.89362,1.25885,
-1.90582,1.2558,
-1.90887,1.25885,
-1.91498,1.26495,
-1.92719,1.25732,
-1.93481,1.25122,
-1.94244,1.2558,
-1.94702,1.26038,
-1.95465,1.26038,
-1.97144,1.25427,
-1.98669,1.25122,
-1.99585,1.26038,
-2.00958,1.26038,
-2.02026,1.25732,
-2.0401,1.25732,
-2.05078,1.25275,
-2.06757,1.25885,
-2.07672,1.25885,
-2.09503,1.26343,
-2.11334,1.2558,
-2.1225,1.25275,
-2.13318,1.25885,
-2.14539,1.26038,
-2.15607,1.26343,
-2.1637,1.25885,
-2.17743,1.25122,
-2.18506,1.25885,
-2.19269,1.25885,
-2.20337,1.26343,
-2.21252,1.25732,
-2.21863,1.2558,
-2.22321,1.25885,
-2.22931,1.26343,
-2.24152,1.26038,
-2.24915,1.25427,
-2.25677,1.2558,
-2.26746,1.2558,
-2.27661,1.25732,
-2.28577,1.26343,
-2.2934,1.25732,
-2.2995,1.2558,
-2.30255,1.26038,
-2.30865,1.25885,
-2.31171,1.26343,
-2.31323,1.25427,
-2.31628,1.25427,
-2.31476,1.25885,
-2.31171,1.26495,
-2.30255,1.26495,
-2.29645,1.26038,
-2.28271,1.25427,
-2.27051,1.26343,
-2.25983,1.26343,
-2.24304,1.26343,
-2.22778,1.25732,
-2.2049,1.25732,
-2.18353,1.26648,
-2.15759,1.26495,
-2.1286,1.26343,
-2.09351,1.25732,
-2.06146,1.25732,
-2.02179,1.26343,
-1.98669,1.26343,
-1.94855,1.26648,
-1.90887,1.25885,
-1.87225,1.25885,
-1.82953,1.26495,
-1.79138,1.26038,
-1.75476,1.27106,
-1.70898,1.25885,
-1.67084,1.25885,
-1.63269,1.26343,
-1.59607,1.26343,
-1.5564,1.26801,
-1.51825,1.26343,
-1.4801,1.25732,
-1.44653,1.26801,
-1.41602,1.26953,
-1.37939,1.26801,
-1.3504,1.26343,
-1.31836,1.2558,
-1.29089,1.26648,
-1.26343,1.26495,
-1.24359,1.27258,
-1.2207,1.26495,
-1.19934,1.25885,
-1.17798,1.26648,
-1.15662,1.26801,
-1.14288,1.27258,
-1.12915,1.26801,
-1.11847,1.26343,
-1.10474,1.26495,
-1.08795,1.26801,
-1.08337,1.27258,
-1.07269,1.26801,
-1.06812,1.26343,
-1.05896,1.26953,
-1.05286,1.27106,
-1.0498,1.27411,
-1.0437,1.26648,
-1.0376,1.26495,
-1.02844,1.26801,
-1.02386,1.27411,
-1.02386,1.27411,
-1.02386,1.26648,
-1.02386,1.26953,
-1.02539,1.26953,
-1.02997,1.27563,
-1.03455,1.27411,
-1.03912,1.26953,
-1.04218,1.26953,
-1.04675,1.27106,
-1.04828,1.27716,
-1.04828,1.27869,
-1.05286,1.27106,
-1.05286,1.26953,
-1.05743,1.27411,
-1.06049,1.27563,
-1.06354,1.27716,
-1.06506,1.27716,
-1.06964,1.27411,
-1.06964,1.27716,
-1.07422,1.28021,
-1.07574,1.27869,
-1.07574,1.27411,
-1.07269,1.27563,
-1.07574,1.27869,
-1.0788,1.28021,
-1.07727,1.28326,
-1.08337,1.27716,
-1.091,1.27563,
-1.09558,1.28021,
-1.09863,1.28632,
-1.10321,1.28174,
-1.10626,1.28021,
-1.11084,1.27716,
-1.11389,1.27869,
-1.11542,1.28632,
-1.12152,1.28479,
-1.12152,1.27869,
-1.12305,1.27869,
-1.12457,1.27869,
-1.12762,1.28479,
-1.13068,1.28632,
-1.13373,1.28021,
-1.1322,1.28021,
-1.13373,1.28021,
-1.1322,1.28937,
-1.13831,1.28937,
-1.14288,1.28174,
-1.14288,1.28021,
-1.14441,1.28174,
-1.15051,1.29089,
-1.15204,1.28784,
-1.15509,1.28326,
-1.15814,1.28632,
-1.16119,1.28632,
-1.16272,1.28937,
-1.1673,1.29242,
-1.1734,1.28479,
-1.17645,1.28784,
-1.18256,1.28632,
-1.18866,1.29089,
-1.18866,1.28937,
-1.19324,1.28479,
-1.19934,1.28784,
-1.20544,1.29089,
-1.21307,1.29242,
-1.21613,1.29089,
-1.22528,1.28632,
-1.23138,1.28632,
-1.23596,1.28937,
-1.24359,1.29547,
-1.25122,1.29242,
-1.25427,1.28479,
-1.2619,1.28784,
-1.26953,1.29089,
-1.28021,1.29547,
-1.28632,1.29547,
-1.29242,1.28937,
-1.30005,1.29089,
-1.30463,1.29089,
-1.31073,1.297,
-1.32294,1.29852,
-1.33362,1.28784,
-1.34735,1.297,
-1.36108,1.29242,
-1.37177,1.297,
-1.38245,1.30005,
-1.39465,1.28937,
-1.40381,1.297,
-1.41449,1.297,
-1.42212,1.29852,
-1.43585,1.30005,
-1.44958,1.28784,
-1.46027,1.29242,
-1.47095,1.29242,
-1.47705,1.30157,
-1.48621,1.30463,
-1.49231,1.29089,
-1.50452,1.29852,
-1.51978,1.29547,
-1.5274,1.3031,
-1.53809,1.30615,
-1.54877,1.29242,
-1.56403,1.29852,
-1.57623,1.29547,
-1.59302,1.3031,
-1.6037,1.3031,
-1.62048,1.29089,
-1.63269,1.29852,
-1.64795,1.297,
-1.66321,1.30615,
-1.67542,1.30463,
-1.68915,1.297,
-1.70288,1.30005,
-1.71814,1.29852,
-1.73035,1.30615,
-1.74255,1.30463,
-1.75781,1.29852,
-1.76849,1.30157,
-1.77765,1.3031,
-1.79291,1.30615,
-1.80054,1.30615,
-1.8158,1.30157,
-1.82953,1.30157,
-1.84479,1.30005,
-1.86005,1.30615,
-1.8692,1.30768,
-1.88141,1.30157,
-1.89514,1.30157,
-1.9104,1.3031,
-1.91956,1.31073,
-1.92871,1.30768,
-1.93939,1.30157,
-1.9455,1.30463,
-1.96228,1.30157,
-1.97296,1.30768,
-1.98364,1.30615,
-1.99738,1.3031,
-2.005,1.30157,
-2.00806,1.30463,
-2.01874,1.30768,
-2.02637,1.3031,
-2.03857,1.3031,
-2.0462,1.30157,
-2.05688,1.3031,
-2.07214,1.30615,
-2.07977,1.30768,
-2.08893,1.3031,
-2.09503,1.30157,
-2.10876,1.30463,
-2.11487,1.31073,
-2.12402,1.31073,
-2.1347,1.30615,
-2.14233,1.30463,
-2.14996,1.30615,
-2.15454,1.31226,
-2.16217,1.3092,
-2.17133,1.30768,
-2.18048,1.30005,
-2.18811,1.30615,
-2.19574,1.3092,
-2.20642,1.30615,
-2.21558,1.30463,
-2.22015,1.3031,
-2.23083,1.3031,
-2.23846,1.3092,
-2.24609,1.30615,
-2.2522,1.30615,
-2.26135,1.3031,
-2.2644,1.30615,
-2.26746,1.3092,
-2.26593,1.30768,
-2.26288,1.30615,
-2.26135,1.30615,
-2.25372,1.30768,
-2.23999,1.31226,
-2.22778,1.3092,
-2.211,1.30768,
-2.18964,1.30005,
-2.16827,1.3092,
-2.13928,1.31378,
-2.10724,1.30615,
-2.06757,1.30768,
-2.02484,1.30463,
-1.98669,1.30768,
-1.94244,1.31226,
-1.89667,1.3031,
-1.84631,1.3092,
-1.80206,1.30157,
-1.75018,1.3092,
-1.69983,1.31378,
-1.64948,1.3092,
-1.59912,1.31073,
-1.54877,1.30463,
-1.49841,1.30768,
-1.45111,1.31378,
-1.39771,1.30768,
-1.34735,1.30768,
-1.29852,1.30005,
-1.25732,1.30768,
-1.21307,1.31073,
-1.1734,1.3092,
-1.13068,1.30768,
-1.09253,1.3031,
-1.05286,1.30768,
-1.01624,1.31378,
-0.985718,1.31073,
-0.953674,1.30768,
-0.926208,1.3031,
-0.906372,1.30768,
-0.87738,1.31378,
-0.852966,1.3092,
-0.83313,1.3092,
-0.808716,1.3031,
-0.793457,1.30615,
-0.775146,1.31073,
-0.75531,1.3092,
-0.743103,1.30615,
-0.733948,1.29547,
-0.717163,1.30768,
-0.704956,1.31073,
-0.695801,1.31073,
-0.686646,1.30768,
-0.680542,1.29852,
-0.672913,1.30615,
-0.669861,1.31226,
-0.665283,1.30615,
-0.662231,1.30768,
-0.662231,1.30005,
-0.660706,1.30768,
-0.660706,1.3092,
-0.657654,1.30615,
-0.65918,1.3031,
-0.665283,1.30005,
-0.669861,1.30768,
-0.672913,1.3092,
-0.67749,1.30768,
-0.68512,1.30615,
-0.691223,1.30157,
-0.694275,1.3092,
-0.701904,1.30768,
-0.709534,1.30463,
-0.71106,1.30463,
-0.720215,1.29852,
-0.726318,1.30463,
-0.72937,1.3092,
-0.735474,1.30615,
-0.741577,1.30615,
-0.747681,1.29852,
-0.753784,1.3092,
-0.762939,1.3092,
-0.767517,1.30463,
-0.775146,1.30615,
-0.779724,1.297,
-0.782776,1.30768,
-0.787354,1.31073,
-0.794983,1.30615,
-0.798035,1.30615,
-0.802612,1.29547,
-0.80719,1.30463,
-0.810242,1.30615,
-0.813293,1.30463,
-0.814819,1.30768,
-0.820923,1.297,
-0.828552,1.30768,
-0.827026,1.30768,
-0.830078,1.30615,
-0.831604,1.30768,
-0.830078,1.297,
-0.83313,1.30615,
-0.836182,1.3092,
-0.836182,1.31073,
-0.837708,1.30768,
-0.842285,1.29547,
-0.843811,1.30615,
-0.852966,1.30615,
-0.856018,1.31073,
-0.863647,1.3031,
-0.866699,1.29547,
-0.872803,1.30768,
-0.880432,1.3092,
-0.886536,1.3031,
-0.895691,1.3031,
-0.897217,1.297,
-0.909424,1.30615,
-0.917053,1.3031,
-0.924683,1.30463,
-0.933838,1.30615,
-0.941467,1.297,
-0.947571,1.30463,
-0.9552,1.30463,
-0.964355,1.30615,
-0.970459,1.3031,
-0.979614,1.29547,
-0.984192,1.30463,
-0.993347,1.30463,
-1.00403,1.3031,
-1.01776,1.30157,
-1.02997,1.30005,
-1.0437,1.3092,
-1.05591,1.3031,
-1.07117,1.30463,
-1.0849,1.30005,
-1.09711,1.29242,
-1.11237,1.30615,
-1.1261,1.30768,
-1.13983,1.3031,
-1.15356,1.29852,
-1.16272,1.29242,
-1.1795,1.30463,
-1.18866,1.30768,
-1.20239,1.3031,
-1.21613,1.29852,
-1.22681,1.29547,
-1.23749,1.3031,
-1.24359,1.30768,
-1.24969,1.3031,
-1.26495,1.30005,
-1.27411,1.29242,
-1.27716,1.30463,
-1.28784,1.3031,
-1.29547,1.30005,
-1.30615,1.29852,
-1.31836,1.297,
-1.32446,1.30157,
-1.33667,1.3031,
-1.35193,1.30005,
-1.36108,1.29242,
-1.37177,1.29547,
-1.3855,1.30157,
-1.39923,1.30005,
-1.41602,1.3031,
-1.42822,1.29089,
-1.44348,1.297,
-1.45721,1.30005,
-1.474,1.3031,
-1.49078,1.3031,
-1.49994,1.29089,
-1.51825,1.29547,
-1.52893,1.30005,
-1.53961,1.3031,
-1.55334,1.30005,
-1.56403,1.29242,
-1.57623,1.29242,
-1.58997,1.30157,
-1.6037,1.30463,
-1.6098,1.3031,
-1.62048,1.29242,
-1.63422,1.29547,
-1.64185,1.30005,
-1.6571,1.30157,
-1.67084,1.30157,
-1.68152,1.29089,
-1.69678,1.297,
-1.71051,1.30157,
-1.71814,1.30157,
-1.73187,1.3031,
-1.74713,1.28937,
-1.75629,1.29852,
-1.77002,1.297,
-1.78375,1.30157,
-1.79443,1.29852,
-1.80664,1.29089,
-1.8158,1.29547,
-1.828,1.29547,
-1.83716,1.297,
-1.84784,1.30157,
-1.86005,1.29089,
-1.87378,1.29089,
-1.88599,1.30005,
-1.90277,1.30463,
-1.91193,1.29852,
-1.91956,1.28784,
-1.93024,1.29547,
-1.94244,1.29852,
-1.95465,1.30005,
-1.96686,1.30005,
-1.97144,1.28784,
-1.98212,1.29547,
-1.98975,1.29852,
-2.00043,1.30157,
-2.01263,1.30463,
-2.02026,1.29089,
-2.034,1.29089,
-2.04926,1.297,
-2.05841,1.30157,
-2.07367,1.29852,
-2.07977,1.29089,
-2.09198,1.28937,
-2.10724,1.297,
-2.11487,1.29852,
-2.13318,1.30157,
-2.14386,1.29242,
-2.15912,1.29242,
-2.17285,1.29547,
-2.18353,1.30157,
-2.19116,1.30005,
-2.20337,1.29089,
-2.20947,1.29242,
-2.21558,1.29089,
-2.22321,1.30157,
-2.23236,1.30005,
-2.23694,1.29242,
-2.24304,1.29242,
-2.24915,1.29242,
-2.25067,1.30157,
-2.25067,1.297,
-2.24762,1.28784,
-2.24304,1.297,
-2.23694,1.29547,
-2.22321,1.29547,
-2.211,1.30005,
-2.18353,1.28937,
-2.16522,1.29242,
-2.13928,1.28937,
-2.11029,1.297,
-2.07367,1.29547,
-2.04315,1.29242,
-2.00653,1.28937,
-1.96533,1.29242,
-1.92413,1.29242,
-1.87988,1.297,
-1.84021,1.29089,
-1.79443,1.29089,
-1.74713,1.29242,
-1.69983,1.29852,
-1.65405,1.29242,
-1.6037,1.29547,
-1.55792,1.28937,
-1.51062,1.28784,
-1.46179,1.29852,
-1.41907,1.29547,
-1.37329,1.29089,
-1.33514,1.28937,
-1.30005,1.28632,
-1.26038,1.29547,
-1.22528,1.29547,
-1.19171,1.29547,
-1.15967,1.28784,
-1.12762,1.28632,
-1.10474,1.29852,
-1.07727,1.297,
-1.05133,1.28937,
-1.02081,1.29547,
-0.993347,1.28479,
-0.970459,1.29852,
-0.947571,1.297,
-0.926208,1.29089,
-0.909424,1.28784,
-0.891113,1.28784,
-0.872803,1.29852,
-0.862122,1.29089,
-0.845337,1.28784,
-0.837708,1.28784,
-0.827026,1.28326,
-0.820923,1.29242,
-0.813293,1.297,
-0.808716,1.29089,
-0.804138,1.28937,
-0.796509,1.28632,
-0.798035,1.29547,
-0.802612,1.29089,
-0.798035,1.28937,
-0.802612,1.28784,
-0.799561,1.28326,
-0.804138,1.29852,
-0.804138,1.29852,
-0.80719,1.28784,
-0.808716,1.28632,
-0.817871,1.28784,
-0.827026,1.297,
-0.834656,1.29242,
-0.839233,1.28784,
-0.845337,1.28632,
-0.854492,1.28479,
-0.85907,1.29547,
-0.869751,1.29242,
-0.878906,1.28937,
-0.889587,1.28784,
-0.900269,1.28784,
-0.906372,1.29242,
-0.918579,1.297,
-0.930786,1.29242,
-0.93689,1.28784,
-0.949097,1.28632,
-0.956726,1.29089,
-0.964355,1.29089,
-0.973511,1.28479,
-0.98114,1.28937,
-0.979614,1.28632,
-0.982666,1.29089,
-0.987244,1.29547,
-0.990295,1.29089,
-0.990295,1.28784,
-0.991821,1.28632,
-0.993347,1.29089,
-0.993347,1.29242,
-0.990295,1.28937,
-0.991821,1.28937,
-0.991821,1.28479,
-0.993347,1.29089,
-0.98877,1.297,
-0.984192,1.29089,
-0.984192,1.28632,
-0.98114,1.28326,
-0.98114,1.28784,
-0.975037,1.297,
-0.976563,1.28632,
-0.973511,1.28937,
-0.971985,1.28479,
-0.978088,1.28784,
-0.98114,1.29242,
-0.979614,1.28479,
-0.982666,1.28632,
-0.984192,1.28479,
-0.98877,1.29547,
-0.994873,1.29547,
-0.996399,1.29242,
-0.999451,1.28937,
-1.00403,1.28479,
-1.00555,1.28937,
-1.01166,1.29089,
-1.01471,1.28937,
-1.01471,1.28479,
-1.02234,1.28326,
-1.03455,1.28937,
-1.0376,1.29089,
-1.04523,1.28784,
-1.05438,1.28632,
-1.06354,1.28479,
-1.07574,1.28937,
-1.0849,1.29089,
-1.09253,1.28784,
-1.10626,1.28632,
-1.11694,1.28479,
-1.12457,1.29089,
-1.13678,1.28937,
-1.15051,1.29089,
-1.15814,1.28784,
-1.17798,1.28326,
-1.18408,1.28937,
-1.19934,1.28937,
-1.21307,1.28937,
-1.22528,1.28632,
-1.23749,1.28479,
-1.2558,1.28937,
-1.26801,1.28784,
-1.28326,1.28632,
-1.29089,1.28632,
-1.30157,1.27869,
-1.31683,1.29089,
-1.32751,1.28937,
-1.3382,1.28784,
-1.34735,1.28326,
-1.35956,1.28174,
-1.37329,1.28784,
-1.3916,1.28937,
-1.40228,1.28937,
-1.41602,1.28479,
-1.42517,1.28174,
-1.44043,1.28937,
-1.44958,1.28784,
-1.46332,1.28784,
-1.474,1.28479,
-1.49231,1.28021,
-1.50146,1.28632,
-1.5213,1.28632,
-1.53046,1.28632,
-1.54419,1.28784,
-1.55945,1.28021,
-1.5686,1.28937,
-1.57928,1.28632,
-1.58997,1.28784,
-1.59912,1.28326,
-1.61133,1.28021,
-1.62506,1.28784,
-1.63574,1.28632,
-1.65253,1.28326,
-1.66473,1.28326,
-1.67694,1.27716,
-1.68915,1.28632,
-1.70135,1.28632,
-1.71204,1.28632,
-1.72729,1.28174,
-1.74103,1.28021,
-1.75171,1.28326,
-1.76239,1.28479,
-1.77155,1.28784,
-1.77917,1.28326,
-1.79138,1.27869,
-1.79596,1.28632,
-1.81274,1.28326,
-1.82495,1.28784,
-1.82953,1.28021,
-1.83868,1.27869,
-1.84784,1.28479,
-1.85547,1.28479,
-1.86615,1.28326,
-1.87073,1.28021,
-1.88446,1.27716,
-1.89667,1.28479,
-1.9043,1.28326,
-1.9165,1.28174,
-1.92413,1.27563,
-1.93634,1.27869,
-1.95007,1.28479,
-1.95923,1.28021,
-1.97601,1.28174,
-1.98822,1.28021,
-2.00043,1.27869,
-2.01263,1.28326,
-2.02026,1.28479,
-2.03552,1.28479,
-2.04773,1.28021,
-2.05536,1.27563,
-2.07062,1.28479,
-2.08282,1.28326,
-2.09656,1.28479,
-2.10876,1.27869,
-2.11792,1.27869,
-2.12097,1.28632,
-2.1347,1.28326,
-2.14386,1.28326,
-2.15149,1.27716,
-2.16064,1.27716,
-2.17438,1.28326,
-2.18201,1.28479,
-2.18964,1.28174,
-2.19879,1.27563,
-2.20795,1.27716,
-2.21252,1.27869,
-2.22015,1.28632,
-2.22473,1.28479,
-2.22321,1.27716,
-2.22473,1.27563,
-2.22473,1.28479,
-2.22015,1.27869,
-2.2171,1.28174,
-2.211,1.28021,
-2.19574,1.27563,
-2.18048,1.28326,
-2.15759,1.28174,
-2.13928,1.28021,
-2.11334,1.27411,
-2.0874,1.27716,
-2.05231,1.28174,
-2.01569,1.28174,
-1.97906,1.28174,
-1.94244,1.27411,
-1.90582,1.27258,
-1.86462,1.28326,
-1.81885,1.27869,
-1.77765,1.28174,
-1.73187,1.27106,
-1.6861,1.27411,
-1.63422,1.28021,
-1.59149,1.27869,
-1.54419,1.27716,
-1.50146,1.27106,
-1.45721,1.27411,
-1.41296,1.28021,
-1.36566,1.27716,
-1.32446,1.27869,
-1.27869,1.27563,
-1.24359,1.26953,
-1.19781,1.28021,
-1.15662,1.27411,
-1.12152,1.28021,
-1.08185,1.27106,
-1.04828,1.26953,
-1.01318,1.28021,
-0.98114,1.27716,
-0.953674,1.27563,
-0.926208,1.26801,
-0.907898,1.26801,
-0.886536,1.28174,
-0.863647,1.27411,
-0.846863,1.28021,
-0.823975,1.27106,
-0.810242,1.27106,
-0.798035,1.27869,
-0.785828,1.27411,
-0.770569,1.27411,
-0.762939,1.27106,
-0.75531,1.27258,
-0.749207,1.27716,
-0.746155,1.27258,
-0.740051,1.27563,
-0.732422,1.26953,
-0.727844,1.26648,
-0.720215,1.27563,
-0.724792,1.27411,
-0.720215,1.27258,
-0.726318,1.26801,
-0.72937,1.26495,
-0.735474,1.27563,
-0.740051,1.27411,
-0.741577,1.27716,
-0.747681,1.26953,
-0.752258,1.26801,
-0.759888,1.27563,
-0.765991,1.27411,
-0.773621,1.27563,
-0.776672,1.26801,
-0.779724,1.26343,
-0.787354,1.27716,
-0.794983,1.27258,
-0.804138,1.27411,
-0.808716,1.26495,
-0.817871,1.26953,
-0.827026,1.27563,
-0.828552,1.27106,
-0.836182,1.27258,
-0.840759,1.26801,
-0.846863,1.26801,
-0.85144,1.27563,
-0.85907,1.27258,
-0.862122,1.27106,
-0.866699,1.26801,
-0.869751,1.26495,
-0.872803,1.27411,
-0.880432,1.27411,
-0.880432,1.27411,
-0.878906,1.26648,
-0.883484,1.26495,
-0.88501,1.27106,
-0.889587,1.27716,
-0.897217,1.27258,
-0.90332,1.26648,
-0.907898,1.26343,
-0.912476,1.27106,
-0.920105,1.27258,
-0.918579,1.27106,
-0.920105,1.26648,
-0.921631,1.26648,
-0.921631,1.26953,
-0.923157,1.27258,
-0.926208,1.26953,
-0.930786,1.26495,
-0.93689,1.26648,
-0.93689,1.27258,
-0.941467,1.27258,
-0.949097,1.26953,
-0.956726,1.26038,
-0.959778,1.26648,
-0.971985,1.27106,
-0.976563,1.27258,
-0.982666,1.26953,
-0.990295,1.26648,
-0.999451,1.26495,
-1.0025,1.26953,
-1.00861,1.27106,
-1.01471,1.26801,
-1.02234,1.26038,
-1.02997,1.26343,
-1.03607,1.27106,
-1.04675,1.26953,
-1.05133,1.27106,
-1.05591,1.26038,
-1.06812,1.26343,
-1.07117,1.26953,
-1.0788,1.27411,
-1.08643,1.26648,
-1.09711,1.26343,
-1.10779,1.26648,
-1.12,1.26953,
-1.12915,1.27106,
-1.14288,1.26953,
-1.15509,1.25885,
-1.1673,1.26648,
-1.1795,1.27106,
-1.19324,1.27258,
-1.20544,1.26495,
-1.21765,1.26038,
-1.22986,1.26801,
-1.24207,1.27258,
-1.25427,1.27258,
-1.26495,1.26801,
-1.27563,1.26343,
-1.28326,1.26648,
-1.29852,1.26953,
-1.3092,1.27563,
-1.32141,1.26801,
-1.32904,1.26648,
-1.34583,1.26648,
-1.36108,1.27106,
-1.37177,1.27411,
-1.38397,1.27106,
-1.39771,1.26495,
-1.41602,1.26495,
-1.42975,1.26953,
-1.44043,1.27716,
-1.45569,1.26801,
-1.47247,1.26495,
-1.48621,1.26495,
-1.50452,1.26953,
-1.5213,1.27411,
-1.53809,1.26953,
-1.55334,1.26495,
-1.57013,1.26648,
-1.58539,1.27106,
-1.60065,1.27106,
-1.61743,1.26953,
-1.63269,1.26648,
-1.64795,1.26648,
-1.6571,1.27106,
-1.66779,1.27411,
-1.67847,1.26801,
-1.69067,1.26648,
-1.70441,1.26495,
-1.71356,1.26953,
-1.72424,1.27563,
-1.73645,1.26953,
-1.74561,1.26801,
-1.75629,1.26801,
-1.76544,1.27258,
-1.77155,1.27716,
-1.78223,1.26495,
-1.79443,1.27106,
-1.80969,1.26801,
-1.82037,1.27258,
-1.83105,1.27411,
-1.84479,1.26801,
-1.85852,1.26801,
-1.87073,1.26495,
-1.87836,1.27106,
-1.88904,1.28021,
-1.89819,1.26953,
-1.90125,1.26648,
-1.91345,1.26801,
-1.92261,1.27106,
-1.93481,1.27716,
-1.9455,1.27106,
-1.95465,1.26953,
-1.96228,1.26648,
-1.96686,1.26953,
-1.97754,1.27869,
-1.98212,1.27106,
-1.9928,1.26801,
-2.00348,1.26801,
-2.01263,1.27258,
-2.02026,1.27869,
-2.03552,1.26953,
-2.04315,1.27106,
-2.05383,1.27106,
-2.07062,1.27563,
-2.0813,1.27869,
-2.09198,1.27563,
-2.10266,1.27258,
-2.11639,1.26801,
-2.12708,1.27563,
-2.14081,1.28174,
-2.15149,1.27258,
-2.15912,1.27411,
-2.1759,1.26953,
-2.18658,1.27563,
-2.19269,1.28326,
-2.20795,1.27258,
-2.21558,1.27411,
-2.22626,1.27258,
-2.23389,1.27716,
-2.24304,1.28326,
-2.25067,1.27411,
-2.2522,1.27411,
-2.25525,1.27411,
-2.25525,1.27563,
-2.25677,1.28174,
-2.25372,1.27563,
-2.24609,1.27411,
-2.23999,1.27411,
-2.22473,1.28021,
-2.20947,1.28632,
-2.19116,1.27563,
-2.1637,1.27869,
-2.14081,1.27411,
-2.10876,1.28326,
-2.07825,1.28632,
-2.03857,1.27716,
-1.99585,1.28021,
-1.9516,1.27716,
-1.90582,1.28021,
-1.85852,1.28632,
-1.80817,1.28174,
-1.75018,1.28021,
-1.69373,1.27563,
-1.64185,1.28326,
-1.58539,1.28479,
-1.53046,1.27716,
-1.474,1.27563,
-1.42212,1.27716,
-1.36719,1.28326,
-1.31226,1.28326,
-1.26038,1.27869,
-1.21307,1.27869,
-1.16425,1.27869,
-1.11847,1.28479,
-1.07574,1.28632,
-1.02997,1.28174,
-0.98877,1.27563,
-0.949097,1.27869,
-0.915527,1.28632,
-0.881958,1.28326,
-0.846863,1.28021,
-0.816345,1.27411,
-0.787354,1.27869,
-0.759888,1.28632,
-0.735474,1.28784,
-0.712585,1.27716,
-0.689697,1.28174,
-0.669861,1.28326,
-0.65155,1.28784,
-0.634766,1.28479,
-0.617981,1.28479,
-0.613403,1.28021,
-0.595093,1.28021,
-0.582886,1.28784,
-0.572205,1.28784,
-0.563049,1.27869,
-0.556946,1.28326,
-0.553894,1.27869,
-0.546265,1.29242,
-0.544739,1.28784,
-0.541687,1.28174,
-0.541687,1.28021,
-0.541687,1.27869,
-0.544739,1.29089,
-0.546265,1.28937,
-0.549316,1.28174,
-0.556946,1.28326,
-0.564575,1.28174,
-0.570679,1.29242,
-0.575256,1.28937,
-0.588989,1.28632,
-0.596619,1.28326,
-0.602722,1.28174,
-0.611877,1.28937,
-0.622559,1.29547,
-0.627136,1.28479,
-0.634766,1.28479,
-0.645447,1.28632,
-0.653076,1.29547,
-0.665283,1.28937,
-0.67749,1.28326,
-0.68512,1.28174,
-0.700378,1.28784,
-0.708008,1.297,
-0.718689,1.29242,
-0.732422,1.28784,
-0.740051,1.28479,
-0.750732,1.28479,
-0.762939,1.29089,
-0.769043,1.28937,
-0.778198,1.28937,
-0.785828,1.28479,
-0.788879,1.28326,
-0.799561,1.297,
-0.804138,1.28937,
-0.808716,1.28784,
-0.813293,1.28479,
-0.822449,1.28632,
-0.830078,1.29547,
-0.834656,1.28784,
-0.839233,1.28937,
-0.843811,1.28632,
-0.85144,1.28784,
-0.857544,1.29547,
-0.863647,1.29089,
-0.872803,1.28784,
-0.874329,1.28784,
-0.87738,1.28479,
-0.886536,1.29089,
-0.892639,1.29242,
-0.900269,1.28632,
-0.906372,1.28784,
-0.912476,1.28326,
-0.918579,1.29242,
-0.923157,1.29089,
-0.932312,1.29089,
-0.93689,1.28326,
-0.942993,1.28632,
-0.947571,1.29547,
-0.950623,1.297,
-0.9552,1.28784,
-0.964355,1.28632,
-0.971985,1.28479,
-0.982666,1.29547,
-0.991821,1.29242,
-1.00403,1.28937,
-1.01318,1.28632,
-1.02081,1.28784,
-1.02997,1.29547,
-1.04675,1.29242,
-1.05591,1.29242,
-1.06964,1.28632,
-1.08337,1.28632,
-1.09253,1.29089,
-1.10474,1.29242,
-1.11542,1.29089,
-1.12457,1.28632,
-1.13373,1.28784,
-1.14899,1.29547,
-1.16272,1.297,
-1.17188,1.29089,
-1.18713,1.28937,
-1.19781,1.28479,
-1.21613,1.29089,
-1.22528,1.28937,
-1.24512,1.29547,
-1.25732,1.28326,
-1.27106,1.28632,
-1.28784,1.29089,
-1.3031,1.29089,
-1.31683,1.29242,
-1.32751,1.28326,
-1.3443,1.28632,
-1.35498,1.29242,
-1.36719,1.29089,
-1.3855,1.28937,
-1.40076,1.28784,
-1.41602,1.28479,
-1.42975,1.28937,
-1.44806,1.29089,
-1.46637,1.29089,
-1.48315,1.28784,
-1.49994,1.28479,
-1.51215,1.28937,
-1.53046,1.29089,
-1.54572,1.29547,
-1.56403,1.28479,
-1.57928,1.28326,
-1.60522,1.29089,
-1.62048,1.29089,
-1.63727,1.29242,
-1.6571,1.28632,
-1.66931,1.28479,
-1.6922,1.29089,
-1.70898,1.29089,
-1.72729,1.29089,
-1.74408,1.28784,
-1.75934,1.28479,
-1.77765,1.29089,
-1.79291,1.29242,
-1.81122,1.29547,
-1.82648,1.28784,
-1.84174,1.28479,
-1.85394,1.29089,
-1.8692,1.28937,
-1.88141,1.29852,
-1.89667,1.28479,
-1.91345,1.28479,
-1.92719,1.29242,
-1.93939,1.29089,
-1.9516,1.29547,
-1.96686,1.28479,
-1.98059,1.28326,
-1.99738,1.28784,
-2.00958,1.28937,
-2.02332,1.297,
-2.03705,1.28784,
-2.05231,1.28479,
-2.06757,1.28937,
-2.08282,1.28937,
-2.09656,1.29089,
-2.11487,1.28632,
-2.12402,1.28326,
-2.13928,1.28937,
-2.15149,1.28632,
-2.1637,1.29242,
-2.1759,1.28479,
-2.19116,1.28632,
-2.19879,1.28784,
-2.21252,1.28937,
-2.22321,1.29242,
-2.23694,1.28479,
-2.24762,1.28479,
-2.2583,1.29089,
-2.26746,1.28632,
-2.28271,1.29089,
-2.29034,1.28784,
-2.3056,1.28632,
-2.31628,1.29089,
-2.33307,1.28784,
-2.34528,1.28937,
-2.35748,1.28632,
-2.36969,1.28174,
-2.38342,1.28479,
-2.3941,1.28937,
-2.40479,1.28937,
-2.41547,1.28479,
-2.42767,1.28326,
-2.43683,1.28326,
-2.44904,1.29089,
-2.45819,1.28784,
-2.46429,1.28784,
-2.47955,1.28326,
-2.48871,1.28326,
-2.50244,1.28784,
-2.5116,1.28937,
-2.52533,1.28632,
-2.53296,1.28326,
-2.54059,1.28632,
-2.5528,1.28784,
-2.56348,1.29089,
-2.57721,1.28479,
-2.59247,1.27869,
-2.6062,1.28784,
-2.61688,1.28479,
-2.62909,1.28937,
-2.63977,1.28326,
-2.64893,1.28174,
-2.6535,1.28784,
-2.65961,1.28784,
-2.66266,1.28937,
-2.66418,1.28479,
-2.66113,1.28021,
-2.6535,1.28784,
-2.63824,1.28479,
-2.62451,1.28632,
-2.6062,1.28632,
-2.58484,1.28326,
-2.5589,1.28784,
-2.53143,1.28784,
-2.50092,1.28784,
-2.47498,1.28479,
-2.43683,1.28479,
-2.40021,1.28784,
-2.35596,1.28784,
-2.31323,1.28937,
-2.26288,1.28326,
-2.21405,1.28632,
-2.1637,1.28479,
-2.11792,1.28784,
-2.06909,1.28937,
-2.01874,1.28326,
-1.96838,1.28326,
-1.92108,1.28479,
-1.87531,1.28784,
-1.8219,1.29089,
-1.7746,1.28326,
-1.72424,1.28326,
-1.67236,1.28784,
-1.62506,1.28784,
-1.58691,1.28632,
-1.54114,1.28021,
-1.50299,1.28174,
-1.45874,1.28479,
-1.42212,1.28632,
-1.3855,1.28632,
-1.34583,1.28326,
-1.31836,1.27716,
-1.28632,1.28632,
-1.2558,1.28479,
-1.22833,1.28937,
-1.20544,1.28174,
-1.18408,1.28174,
-1.16119,1.28479,
-1.14441,1.28479,
-1.12762,1.28632,
-1.11542,1.28021,
-1.10474,1.28632,
-1.09558,1.28326,
-1.08795,1.28632,
-1.08337,1.28784,
-1.08185,1.28479,
-1.07574,1.28021,
-1.07727,1.28479,
-1.0788,1.28632,
-1.08032,1.28479,
-1.08032,1.28326,
-1.08337,1.27716,
-1.08948,1.28479,
-1.091,1.28632,
-1.09406,1.28479,
-1.10168,1.27869,
-1.10474,1.28021,
-1.11084,1.28326,
-1.11847,1.28326,
-1.1261,1.28479,
-1.1322,1.28174,
-1.14136,1.28021,
-1.15051,1.28632,
-1.15967,1.28326,
-1.1734,1.28784,
-1.18408,1.28326,
-1.19476,1.27869,
-1.20544,1.28021,
-1.2146,1.28632,
-1.22375,1.28784,
-1.22986,1.27869,
-1.23749,1.28174,
-1.24664,1.28326,
-1.25732,1.28784,
-1.26343,1.28479,
-1.27106,1.28021,
-1.28326,1.28021,
-1.28632,1.28326,
-1.29547,1.28784,
-1.30463,1.28479,
-1.31073,1.28021,
-1.31683,1.28021,
-1.31989,1.28174,
-1.31836,1.28784,
-1.32141,1.28937,
-1.32294,1.28021,
-1.32294,1.28021,
-1.32141,1.28326,
-1.32141,1.28784,
-1.31989,1.28479,
-1.32141,1.28326,
-1.31989,1.28021,
-1.31531,1.28174,
-1.31531,1.28784,
-1.31531,1.28632,
-1.31226,1.28174,
-1.31378,1.28174,
-1.31531,1.27869,
-1.31683,1.28784,
-1.31836,1.28326,
-1.32141,1.27869,
-1.32294,1.28021,
-1.32751,1.28174,
-1.33209,1.28784,
-1.33514,1.28174,
-1.34735,1.28174,
-1.35651,1.28021,
-1.36414,1.28021,
-1.37024,1.28632,
-1.37787,1.28632,
-1.38397,1.28021,
-1.39313,1.28479,
-1.39618,1.28021,
-1.40839,1.28479,
-1.41449,1.28479,
-1.42517,1.27869,
-1.43127,1.27716,
-1.44043,1.27716,
-1.45111,1.28784,
-1.46332,1.28326,
-1.47247,1.28021,
-1.48163,1.27716,
-1.49536,1.28174,
-1.50604,1.28479,
-1.51825,1.28326,
-1.52588,1.27869,
-1.52893,1.28021,
-1.54572,1.27716,
-1.5564,1.28632,
-1.57166,1.28479,
-1.58386,1.27563,
-1.5976,1.27869,
-1.6098,1.28021,
-1.62354,1.28326,
-1.63727,1.28326,
-1.64795,1.27869,
-1.66016,1.27716,
-1.67084,1.27869,
-1.68304,1.28479,
-1.69678,1.28174,
-1.71051,1.27563,
-1.72272,1.27563,
-1.73492,1.27869,
-1.74866,1.28479,
-1.76239,1.28479,
-1.77612,1.27716,
-1.78986,1.28174,
-1.80359,1.27869,
-1.81732,1.28784,
-1.83258,1.28326,
-1.84326,1.27563,
-1.85852,1.28021,
-1.8692,1.27869,
-1.88599,1.28326,
-1.89819,1.28326,
-1.90582,1.28021,
-1.9165,1.27716,
-1.93024,1.27869,
-1.9455,1.28784,
-1.9577,1.28479,
-1.97449,1.27716,
-1.9928,1.28021,
-2.00653,1.28021,
-2.02026,1.28632,
-2.03247,1.28784,
-2.04468,1.27716,
-2.05688,1.28021,
-2.06909,1.28021,
-2.07825,1.28479,
-2.08893,1.28479,
-2.10419,1.28021,
-2.12097,1.27869,
-2.14081,1.27869,
-2.15149,1.28937,
-2.17133,1.28632,
-2.18506,1.28021,
-2.20337,1.27716,
-2.21863,1.27563,
-2.23083,1.28937,
-2.24304,1.28632,
-2.2583,1.28326,
-2.2644,1.28021,
-2.27814,1.28021,
-2.28577,1.28632,
-2.30255,1.28632,
-2.31323,1.28021,
-2.33002,1.28021,
-2.33917,1.27869,
-2.34985,1.28326,
-2.36053,1.28632,
-2.38037,1.27869,
-2.38953,1.28021,
-2.40021,1.27869,
-2.41241,1.28632,
-2.42767,1.28174,
-2.43988,1.28174,
-2.45819,1.28021,
-2.46887,1.27716,
-2.4826,1.28174,
-2.49329,1.28479,
-2.50702,1.28174,
-2.52075,1.27869,
-2.52533,1.28021,
-2.53448,1.28632,
-2.54822,1.28479,
-2.55737,1.28326,
-2.56653,1.27869,
-2.58179,1.28021,
-2.59247,1.28632,
-2.59857,1.28326,
-2.61078,1.28174,
-2.61993,1.27869,
-2.62909,1.28174,
-2.63367,1.28784,
-2.63824,1.28326,
-2.63824,1.28174,
-2.64282,1.28174,
-2.63977,1.28326,
-2.63977,1.28784,
-2.63977,1.28784,
-2.62756,1.28326,
-2.62146,1.28021,
-2.60468,1.28632,
-2.59399,1.28937,
-2.57111,1.28632,
-2.55127,1.28784,
-2.51923,1.28021,
-2.49176,1.28479,
-2.45667,1.28784,
-2.42157,1.28479,
-2.3819,1.28632,
-2.33612,1.28174,
-2.29645,1.28784,
-2.2522,1.28784,
-2.2049,1.28937,
-2.15149,1.28326,
-2.10419,1.28174,
-2.05078,1.28937,
-2.00043,1.29547,
-1.95007,1.29089,
-1.90125,1.28784,
-1.85089,1.28174,
-1.79901,1.29089,
-1.74866,1.29089,
-1.70135,1.28784,
-1.64795,1.28632,
-1.59912,1.28174,
-1.55487,1.28937,
-1.50909,1.29547,
-1.4679,1.28937,
-1.42975,1.28937,
-1.39008,1.28784,
-1.35956,1.29242,
-1.32141,1.30005,
-1.29242,1.29242,
-1.26038,1.29089,
-1.22986,1.28174,
-1.20239,1.29242,
-1.17493,1.30005,
-1.14441,1.29089,
-1.12305,1.28937,
-1.10321,1.28479,
-1.08032,1.29242,
-1.06201,1.30005,
-1.04065,1.29242,
-1.03302,1.29242,
-1.01624,1.28326,
-1.01013,1.29242,
-1.0025,1.29852,
-0.994873,1.29547,
-0.990295,1.29547,
-0.984192,1.28479,
-0.982666,1.30005,
-0.982666,1.29852,
-0.984192,1.29852,
-0.98877,1.29242,
-0.98877,1.28784,
-0.994873,1.29852,
-0.996399,1.3031,
-1.00403,1.29547,
-1.00708,1.30005,
-1.01166,1.28632,
-1.02386,1.30157,
-1.03607,1.30157,
-1.04523,1.30157,
-1.05896,1.297,
-1.07422,1.29089,
-1.0849,1.29852,
-1.09711,1.30463,
-1.10626,1.3031,
-1.11847,1.30005,
-1.12457,1.28937,
-1.13831,1.30005,
-1.14746,1.30157,
-1.15509,1.30463,
-1.16272,1.3031,
-1.1734,1.29242,
-1.18256,1.30463,
-1.19019,1.3031,
-1.19629,1.30463,
-1.20697,1.30005,
-1.21765,1.29242,
-1.22833,1.30157,
-1.23444,1.30768,
-1.24359,1.30463,
-1.25427,1.3031,
-1.2558,1.29242,
-1.26038,1.30157,
-1.26038,1.30463,
-1.2619,1.30615,
-1.26648,1.3031,
-1.26648,1.29547,
-1.26648,1.30615,
-1.27106,1.30615,
-1.27716,1.3031,
-1.28021,1.3031,
-1.28174,1.29089,
-1.28326,1.30768,
-1.28632,1.3092,
-1.28784,1.30463,
-1.29242,1.30615,
-1.29547,1.29547,
-1.29852,1.3092,
-1.3031,1.3092,
-1.3092,1.30768,
-1.31531,1.30615,
-1.31683,1.29852,
-1.32446,1.30615,
-1.33057,1.31226,
-1.3382,1.31073,
-1.34277,1.30768,
-1.34583,1.29852,
-1.35498,1.3092,
-1.35956,1.3092,
-1.36261,1.3092,
-1.36871,1.3092,
-1.37482,1.30157,
-1.38245,1.3092,
-1.39465,1.31073,
-1.40381,1.30768,
-1.41449,1.31226,
-1.42822,1.3031,
-1.44043,1.31226,
-1.44958,1.31073,
-1.46179,1.31073,
-1.46942,1.31073,
-1.48926,1.30005,
-1.49536,1.31226,
-1.50604,1.3092,
-1.51978,1.31073,
-1.5274,1.31073,
-1.54266,1.3031,
-1.55792,1.3092,
-1.5686,1.31226,
-1.58539,1.31226,
-1.5976,1.30768,
-1.6098,1.30157,
-1.62659,1.31378,
-1.63879,1.31226,
-1.65558,1.31531,
-1.67389,1.31073,
-1.6861,1.3031,
-1.69983,1.31378,
-1.71509,1.31378,
-1.73492,1.31226,
-1.74866,1.3092,
-1.76392,1.30615,
-1.77765,1.31531,
-1.79138,1.31378,
-1.80817,1.31378,
-1.82037,1.31683,
-1.83563,1.30463,
-1.85089,1.31531,
-1.87073,1.31531,
-1.88293,1.31531,
-1.89667,1.30768,
-1.91193,1.30615,
-1.93024,1.31683,
-1.94702,1.31531,
-1.96686,1.31531,
-1.98364,1.31073,
-2.00348,1.30463,
-2.01569,1.31378,
-2.03247,1.31531,
-2.0462,1.31531,
-2.05841,1.31073,
-2.07367,1.30768,
-2.08588,1.31378,
-2.09961,1.31836,
-2.11487,1.31531,
-2.13318,1.30768,
-2.14996,1.30768,
-2.1637,1.31378,
-2.18048,1.31378,
-2.19574,1.3092,
-2.21252,1.3092,
-2.22931,1.30615,
-2.24304,1.31531,
-2.25677,1.31683,
-2.27051,1.31226,
-2.27814,1.3092,
-2.2934,1.30768,
-2.2995,1.31378,
-2.31323,1.31531,
-2.32544,1.31378,
-2.33459,1.30615,
-2.35138,1.30768,
-2.36511,1.31226,
-2.37732,1.31226,
-2.38495,1.31073,
-2.39716,1.30768,
-2.40631,1.3092,
-2.41852,1.31378,
-2.4292,1.31531,
-2.44293,1.31531,
-2.45514,1.30615,
-2.46887,1.31073,
-2.48413,1.31378,
-2.49481,1.31836,
-2.50549,1.31378,
-2.51617,1.3092,
-2.52991,1.3092,
-2.53754,1.31226,
-2.5528,1.31531,
-2.56042,1.31531,
-2.57111,1.30768,
-2.58331,1.3092,
-2.59857,1.31531,
-2.60315,1.31683,
-2.61688,1.31531,
-2.62299,1.30768,
-2.63519,1.3092,
-2.64435,1.31378,
-2.6535,1.31531,
-2.66571,1.31683,
-2.67487,1.30768,
-2.68555,1.3092,
-2.6947,1.31226,
-2.70233,1.31531,
-2.72064,1.31226,
-2.7298,1.3092,
-2.742,1.30768,
-2.75726,1.31378,
-2.76642,1.31683,
-2.77557,1.31683,
-2.78168,1.3092,
-2.79541,1.30768,
-2.80151,1.31226,
-2.80609,1.31531,
-2.81067,1.31378,
-2.81677,1.30768,
-2.82288,1.31378,
-2.8244,1.31226,
-2.81525,1.31683,
-2.80762,1.31683,
-2.79846,1.3092,
-2.78015,1.3092,
-2.76184,1.31073,
-2.73743,1.31531,
-2.70844,1.31378,
-2.67181,1.3092,
-2.63672,1.30615,
-2.59399,1.31073,
-2.5528,1.31683,
-2.50702,1.31683,
-2.45972,1.31073,
-2.40936,1.30768,
-2.35291,1.31226,
-2.30255,1.31378,
-2.24915,1.31226,
-2.18811,1.31378,
-2.1286,1.30615,
-2.06909,1.3092,
-2.00958,1.31378,
-1.9516,1.31226,
-1.88904,1.3092,
-1.83258,1.31073,
-1.77612,1.31073,
-1.71814,1.31378,
-1.66626,1.31378,
-1.60828,1.30615,
-1.55945,1.3092,
-1.50757,1.30615,
-1.4679,1.31531,
-1.42517,1.31378,
-1.38855,1.30463,
-1.3504,1.3092,
-1.31378,1.3092,
-1.28021,1.31531,
-1.24664,1.31073,
-1.2146,1.30768,
-1.18408,1.3092,
-1.15356,1.30463,
-1.12305,1.31073,
-1.09711,1.31073,
-1.07727,1.30768,
-1.05286,1.30615,
-1.02844,1.30463,
-1.01013,1.31073,
-0.987244,1.3092,
-0.976563,1.30615,
-0.958252,1.3031,
-0.946045,1.30615,
-0.939941,1.3092,
-0.935364,1.30615,
-0.930786,1.30768,
-0.921631,1.3031,
-0.915527,1.30768,
-0.914001,1.31073,
-0.917053,1.3092,
-0.918579,1.30463,
-0.918579,1.3031,
-0.920105,1.30463,
-0.923157,1.31073,
-0.926208,1.3092,
-0.930786,1.30463,
-0.935364,1.3031,
-0.939941,1.30157,
-0.946045,1.3092,
-0.952148,1.30615,
-0.9552,1.30463,
-0.967407,1.30005,
-0.978088,1.3031,
-0.987244,1.31073,
-0.994873,1.30768,
-1.00708,1.3031,
-1.01776,1.3031,
-1.02539,1.29852,
-1.0376,1.31073,
-1.0437,1.3092,
-1.0498,1.30615,
-1.05743,1.30463,
-1.06506,1.30157,
-1.07269,1.30768,
-1.0788,1.31073,
-1.08337,1.3031,
-1.08948,1.30157,
-1.10168,1.29547,
-1.10474,1.30768,
-1.11542,1.30615,
-1.12457,1.30463,
-1.12915,1.30615,
-1.13831,1.297,
-1.14288,1.30463,
-1.15051,1.30463,
-1.15662,1.30463,
-1.16425,1.30157,
-1.17035,1.29547,
-1.17798,1.30768,
-1.18408,1.30463,
-1.18408,1.30157,
-1.19019,1.30005,
-1.19171,1.297,
-1.19629,1.30615,
-1.19629,1.30463,
-1.19781,1.30463,
-1.20239,1.30157,
-1.2085,1.297,
-1.21307,1.30615,
-1.2207,1.30768,
-1.22681,1.30157,
-1.23444,1.30005,
-1.24512,1.29852,
-1.25427,1.30615,
-1.26495,1.30463,
-1.27869,1.30005,
-1.28784,1.29852,
-1.297,1.29547,
-1.31226,1.30463,
-1.31989,1.30463,
-1.33209,1.30463,
-1.34277,1.30157,
-1.3504,1.297,
-1.36414,1.30463,
-1.37024,1.30615,
-1.38397,1.297,
-1.39771,1.30005,
-1.40839,1.297,
-1.42212,1.297,
-1.43585,1.3031,
-1.44806,1.30005,
-1.46332,1.29852,
-1.47552,1.29547,
-1.49078,1.30157,
-1.50452,1.3031,
-1.51672,1.30005,
-1.53198,1.30005,
-1.54572,1.29852,
-1.56403,1.29852,
-1.57928,1.30463,
-1.59302,1.30157,
-1.6098,1.29852,
-1.62354,1.29547,
-1.63727,1.30157,
-1.65558,1.3031,
-1.67389,1.297,
-1.68915,1.30005,
-1.70441,1.29089,
-1.72424,1.30005,
-1.73645,1.30157,
-1.75781,1.30005,
-1.77155,1.29852,
-1.7868,1.29242,
-1.80054,1.30157,
-1.8219,1.30005,
-1.84479,1.297,
-1.86157,1.29852,
-1.87683,1.29547,
-1.89514,1.3031,
-1.91345,1.30005,
-1.93329,1.29852,
-1.9516,1.29852,
-1.96991,1.29242,
-1.98822,1.30157,
-2.005,1.30157,
-2.02332,1.297,
-2.04468,1.29242,
-2.06146,1.29089,
-2.07825,1.29852,
-2.09503,1.30005,
-2.11945,1.29852,
-2.13318,1.29089,
-2.14844,1.29242,
-2.1637,1.30005,
-2.18353,1.297,
-2.20337,1.29547,
-2.21252,1.29242,
-2.22168,1.28937,
-2.23694,1.29547,
-2.24915,1.29852,
-2.26593,1.29242,
-2.28119,1.29089,
-2.29034,1.28784,
-2.31323,1.297,
-2.32391,1.29242,
-2.33917,1.29242,
-2.35596,1.28937,
-2.36969,1.29089,
-2.38037,1.29852,
-2.39258,1.297,
-2.40479,1.29242,
-2.41547,1.29089,
-2.42462,1.28784,
-2.43835,1.29547,
-2.45361,1.29852,
-2.45972,1.29547,
-2.4704,1.28937,
-2.48566,1.28632,
-2.49329,1.29547,
-2.50397,1.29242,
-2.51312,1.29547,
-2.5238,1.28937,
-2.53448,1.28632,
-2.54211,1.29089,
-2.55737,1.29242,
-2.56958,1.28937,
-2.58179,1.28784,
-2.59247,1.28479,
-2.60773,1.29547,
-2.62146,1.29089,
-2.63062,1.28784,
-2.63824,1.28632,
-2.65198,1.28326,
-2.66113,1.29242,
-2.67181,1.28784,
-2.68555,1.28784,
-2.69775,1.28632,
-2.70538,1.28479,
-2.71454,1.29089,
-2.72522,1.29242,
-2.73895,1.29089,
-2.75269,1.28784,
-2.76489,1.28632,
-2.77557,1.28632,
-2.78625,1.29242,
-2.79846,1.29089,
-2.80457,1.28479,
-2.81372,1.28326,
-2.82745,1.28784,
-2.84119,1.28937,
-2.85492,1.28937,
-2.86407,1.28174,
-2.87628,1.28326,
