-5.85632,0.645447,
-5.87769,0.668335,
-5.89905,0.688171,
-5.92194,0.640869,
-5.94177,0.624084,
-5.96619,0.642395,
-5.98907,0.669861,
-6.01044,0.688171,
-6.03027,0.643921,
-6.05316,0.617981,
-6.07605,0.640869,
-6.09741,0.660706,
-6.11725,0.694275,
-6.13708,0.640869,
-6.15234,0.627136,
-6.17065,0.648499,
-6.18591,0.669861,
-6.19659,0.686646,
-6.21185,0.642395,
-6.21948,0.614929,
-6.22864,0.645447,
-6.23322,0.668335,
-6.23322,0.686646,
-6.23016,0.653076,
-6.22864,0.624084,
-6.22711,0.642395,
-6.21796,0.666809,
-6.21185,0.689697,
-6.19812,0.646973,
-6.17828,0.628662,
-6.16302,0.645447,
-6.14624,0.672913,
-6.13251,0.689697,
-6.11725,0.646973,
-6.10352,0.624084,
-6.09131,0.645447,
-6.07147,0.666809,
-6.05927,0.665283,
-6.04706,0.65155,
-6.04248,0.63324,
-6.03638,0.643921,
-6.03027,0.668335,
-6.02417,0.691223,
-6.02264,0.648499,
-6.02264,0.624084,
-6.02722,0.646973,
-6.03333,0.662231,
-6.03943,0.68512,
-6.04858,0.645447,
-6.06384,0.604248,
-6.07605,0.642395,
-6.09589,0.666809,
-6.11267,0.683594,
-6.12946,0.650024,
-6.14777,0.627136,
-6.16302,0.643921,
-6.17676,0.666809,
-6.19659,0.682068,
-6.2088,0.648499,
-6.22406,0.619507,
-6.23627,0.642395,
-6.25153,0.671387,
-6.26526,0.683594,
-6.27441,0.65155,
-6.2851,0.627136,
-6.2973,0.645447,
-6.31104,0.669861,
-6.31714,0.680542,
-6.32477,0.648499,
-6.33392,0.624084,
-6.34308,0.643921,
-6.35376,0.668335,
-6.35834,0.680542,
-6.36444,0.650024,
-6.37207,0.622559,
-6.38275,0.645447,
-6.3858,0.65918,
-6.39954,0.68512,
-6.40259,0.650024,
-6.41022,0.627136,
-6.41937,0.645447,
-6.42548,0.668335,
-6.43311,0.679016,
-6.44379,0.653076,
-6.44989,0.636292,
-6.45905,0.643921,
-6.46667,0.717163,
-6.47888,0.682068,
-6.48499,0.65918,
-6.49261,0.624084,
-6.50482,0.643921,
-6.51245,0.660706,
-6.52008,0.683594,
-6.52924,0.654602,
-6.53992,0.627136,
-6.54449,0.643921,
-6.55365,0.665283,
-6.56281,0.680542,
-6.57043,0.65918,
-6.57806,0.627136,
-6.57959,0.642395,
-6.58722,0.666809,
-6.59027,0.682068,
-6.59027,0.656128,
-6.59637,0.627136,
-6.5979,0.642395,
-6.59943,0.665283,
-6.604,0.682068,
-6.60553,0.668335,
-6.61011,0.628662,
-6.61011,0.648499,
-6.61316,0.680542,
-6.61316,0.688171,
-6.61621,0.660706,
-6.62079,0.628662,
-6.62994,0.650024,
-6.63147,0.674438,
-6.64063,0.666809,
-6.6452,0.666809,
-6.64978,0.631714,
-6.66046,0.642395,
-6.67419,0.668335,
-6.68335,0.688171,
-6.69403,0.65918,
-6.70624,0.631714,
-6.71387,0.642395,
-6.72607,0.668335,
-6.73676,0.683594,
-6.74591,0.669861,
-6.75354,0.627136,
-6.75812,0.637817,
-6.7688,0.668335,
-6.77795,0.683594,
-6.78558,0.668335,
-6.79169,0.62561,
-6.79474,0.639343,
-6.80084,0.665283,
-6.79932,0.683594,
-6.80237,0.666809,
-6.80389,0.628662,
-6.80389,0.643921,
-6.80389,0.665283,
-6.79932,0.683594,
-6.79474,0.665283,
-6.79016,0.62561,
-6.78558,0.637817,
-6.78101,0.666809,
-6.76727,0.680542,
-6.7627,0.675964,
-6.75812,0.627136,
-6.74744,0.639343,
-6.7337,0.668335,
-6.71997,0.682068,
-6.70776,0.668335,
-6.69556,0.631714,
-6.6864,0.639343,
-6.67572,0.660706,
-6.66656,0.679016,
-6.65283,0.668335,
-6.6452,0.631714,
-6.64063,0.636292,
-6.63147,0.668335,
-6.62384,0.680542,
-6.61774,0.665283,
-6.60858,0.634766,
-6.604,0.646973,
-6.59485,0.669861,
-6.58722,0.68512,
-6.57806,0.668335,
-6.57349,0.631714,
-6.56281,0.642395,
-6.55975,0.669861,
-6.55365,0.680542,
-6.54907,0.672913,
-6.54144,0.63324,
-6.53687,0.639343,
-6.53381,0.668335,
-6.52771,0.67749,
-6.52618,0.669861,
-6.52466,0.62561,
-6.52466,0.634766,
-6.51855,0.662231,
-6.51093,0.679016,
-6.50635,0.672913,
-6.50635,0.59967,
-6.5033,0.628662,
-6.49414,0.660706,
-6.49109,0.682068,
-6.48804,0.669861,
-6.48499,0.627136,
-6.48499,0.640869,
-6.48041,0.668335,
-6.4743,0.682068,
-6.47278,0.686646,
-6.46515,0.62561,
-6.46057,0.636292,
-6.45752,0.669861,
-6.45752,0.688171,
-6.45599,0.672913,
-6.45294,0.631714,
-6.45294,0.636292,
-6.44989,0.668335,
-6.44379,0.67749,
-6.44226,0.674438,
-6.44226,0.631714,
-6.44379,0.639343,
-6.44531,0.672913,
-6.44684,0.686646,
-6.44989,0.680542,
-6.44531,0.627136,
-6.44989,0.637817,
-6.44989,0.671387,
-6.44989,0.68512,
-6.45294,0.679016,
-6.45905,0.63324,
-6.46515,0.639343,
-6.46973,0.672913,
-6.47278,0.686646,
-6.46973,0.680542,
-6.4682,0.637817,
-6.4682,0.643921,
-6.46515,0.671387,
-6.46515,0.749207,
-6.46057,0.680542,
-6.45905,0.636292,
-6.45447,0.646973,
-6.44989,0.675964,
-6.45142,0.688171,
-6.44989,0.691223,
-6.45142,0.627136,
-6.45447,0.605774,
-6.45142,0.669861,
-6.45752,0.688171,
-6.45752,0.675964,
-6.45752,0.62561,
-6.45905,0.636292,
-6.4621,0.662231,
-6.45752,0.68512,
-6.46057,0.671387,
-6.45599,0.622559,
-6.45752,0.63324,
-6.45294,0.65918,
-6.44684,0.683594,
-6.44226,0.671387,
-6.43768,0.624084,
-6.44073,0.631714,
-6.43768,0.662231,
-6.43768,0.683594,
-6.43616,0.671387,
-6.43311,0.621033,
-6.43158,0.62561,
-6.43005,0.656128,
-6.43005,0.680542,
-6.43005,0.671387,
-6.42395,0.622559,
-6.42548,0.628662,
-6.43005,0.653076,
-6.43463,0.675964,
-6.43311,0.680542,
-6.43921,0.63324,
-6.44226,0.62561,
-6.44531,0.665283,
-6.44989,0.692749,
-6.45142,0.669861,
-6.45447,0.622559,
-6.46057,0.636292,
-6.4621,0.692749,
-6.46667,0.682068,
-6.46667,0.668335,
-6.47125,0.624084,
-6.47583,0.62561,
-6.48346,0.65918,
-6.48956,0.679016,
-6.49414,0.668335,
-6.50177,0.619507,
-6.50787,0.617981,
-6.51093,0.656128,
-6.51398,0.674438,
-6.5155,0.668335,
-6.51703,0.621033,
-6.52161,0.624084,
-6.52313,0.656128,
-6.52466,0.679016,
-6.52618,0.65918,
-6.52771,0.621033,
-6.53076,0.624084,
-6.53381,0.653076,
-6.53534,0.680542,
-6.53992,0.662231,
-6.54144,0.619507,
-6.54602,0.616455,
-6.54755,0.653076,
-6.54755,0.67749,
-6.55365,0.665283,
-6.55823,0.619507,
-6.56586,0.621033,
-6.57196,0.654602,
-6.57196,0.674438,
-6.57501,0.660706,
-6.57501,0.621033,
-6.57806,0.624084,
-6.57806,0.653076,
-6.58112,0.679016,
-6.58264,0.653076,
-6.58722,0.619507,
-6.58569,0.608826,
-6.59027,0.65155,
-6.59027,0.672913,
-6.5918,0.660706,
-6.59485,0.616455,
-6.5979,0.616455,
-6.60248,0.653076,
-6.604,0.67749,
-6.59943,0.660706,
-6.5979,0.619507,
-6.59332,0.616455,
-6.59027,0.648499,
-6.58417,0.686646,
-6.57959,0.656128,
-6.57501,0.587463,
-6.57043,0.616455,
-6.56281,0.650024,
-6.55365,0.674438,
-6.54755,0.660706,
-6.53992,0.63324,
-6.53076,0.624084,
-6.52008,0.656128,
-6.51245,0.686646,
-6.50177,0.666809,
-6.49414,0.613403,
-6.48651,0.616455,
-6.4743,0.653076,
-6.4682,0.68512,
-6.4621,0.660706,
-6.45599,0.619507,
-6.44989,0.616455,
-6.44989,0.65155,
-6.44226,0.683594,
-6.44073,0.657654,
-6.43768,0.619507,
-6.43616,0.605774,
-6.43768,0.650024,
-6.43463,0.679016,
-6.43463,0.65918,
-6.43463,0.617981,
-6.43158,0.621033,
-6.43311,0.650024,
-6.43463,0.679016,
-6.43616,0.660706,
-6.43616,0.622559,
-6.43921,0.619507,
-6.44073,0.650024,
-6.44531,0.67749,
-6.45142,0.657654,
-6.45294,0.62561,
-6.45752,0.617981,
-6.46515,0.653076,
-6.46973,0.67749,
-6.47278,0.656128,
-6.47888,0.616455,
-6.48651,0.616455,
-6.49414,0.65155,
-6.49719,0.68512,
-6.5033,0.660706,
-6.50787,0.614929,
-6.51398,0.617981,
-6.5155,0.650024,
-6.52161,0.674438,
-6.52924,0.65918,
-6.52924,0.610352,
-6.52924,0.614929,
-6.53381,0.650024,
-6.53687,0.671387,
-6.53687,0.65918,
-6.53534,0.613403,
-6.53381,0.616455,
-6.53381,0.650024,
-6.53076,0.674438,
-6.53076,0.656128,
-6.53534,0.610352,
-6.53534,0.617981,
-6.53534,0.648499,
-6.53992,0.640869,
-6.53992,0.645447,
-6.53687,0.617981,
-6.53992,0.614929,
-6.53534,0.648499,
-6.53534,0.669861,
-6.52771,0.648499,
-6.52924,0.619507,
-6.52618,0.616455,
-6.52771,0.65155,
-6.52924,0.671387,
-6.52618,0.650024,
-6.52466,0.613403,
-6.51855,0.616455,
-6.51703,0.654602,
-6.51245,0.660706,
-6.50635,0.648499,
-6.50177,0.621033,
-6.50024,0.614929,
-6.49567,0.654602,
-6.48956,0.672913,
-6.48346,0.645447,
-6.47583,0.616455,
-6.4682,0.617981,
-6.46515,0.654602,
-6.45905,0.672913,
-6.46057,0.648499,
-6.4621,0.613403,
-6.4621,0.616455,
-6.4682,0.654602,
-6.46973,0.672913,
-6.47583,0.648499,
-6.47736,0.608826,
-6.48346,0.614929,
-6.49109,0.654602,
-6.49109,0.671387,
-6.49414,0.645447,
-6.49261,0.613403,
-6.49719,0.613403,
-6.49567,0.65155,
-6.49109,0.668335,
-6.48804,0.642395,
-6.48651,0.611877,
-6.48041,0.613403,
-6.47888,0.65155,
-6.47278,0.671387,
-6.46515,0.643921,
-6.45294,0.611877,
-6.44836,0.614929,
-6.44073,0.65155,
-6.43158,0.665283,
-6.41937,0.639343,
-6.40564,0.611877,
-6.39191,0.613403,
-6.38428,0.646973,
-6.3736,0.666809,
-6.35834,0.639343,
-6.34766,0.608826,
-6.33392,0.613403,
-6.31714,0.628662,
-6.30798,0.662231,
-6.2973,0.637817,
-6.2851,0.608826,
-6.27441,0.614929,
-6.25916,0.648499,
-6.24695,0.660706,
-6.23779,0.634766,
-6.22101,0.604248,
-6.20422,0.610352,
-6.19049,0.646973,
-6.17218,0.662231,
-6.15692,0.63324,
-6.14319,0.604248,
-6.12488,0.611877,
-6.11572,0.646973,
-6.10199,0.666809,
-6.08978,0.631714,
-6.0791,0.605774,
-6.06537,0.59967,
-6.05316,0.65155,
-6.04401,0.666809,
-6.03485,0.63324,
-6.0257,0.598145,
-6.01196,0.610352,
-6.00281,0.645447,
-5.99518,0.666809,
-5.98755,0.637817,
-5.97992,0.604248,
-5.96924,0.611877,
-5.96619,0.65155,
-5.96008,0.650024,
-5.95093,0.63324,
-5.94482,0.601196,
-5.93414,0.611877,
-5.92651,0.650024,
-5.91736,0.668335,
-5.90973,0.628662,
-5.89905,0.604248,
-5.89447,0.611877,
-5.88684,0.646973,
-5.88074,0.668335,
-5.87311,0.627136,
-5.87006,0.608826,
-5.86853,0.610352,
-5.86548,0.646973,
-5.85938,0.666809,
-5.85785,0.628662,
-5.85327,0.605774,
-5.85022,0.619507,
-5.84564,0.646973,
-5.84564,0.669861,
-5.83649,0.627136,
-5.83191,0.602722,
-5.82886,0.613403,
-5.82886,0.646973,
-5.82733,0.665283,
-5.82581,0.621033,
-5.82275,0.601196,
-5.82123,0.614929,
-5.81818,0.648499,
-5.81818,0.671387,
-5.81665,0.621033,
-5.81665,0.601196,
-5.81665,0.613403,
-5.81512,0.65155,
-5.81207,0.671387,
-5.80597,0.624084,
-5.79834,0.59967,
-5.79376,0.614929,
-5.78461,0.648499,
-5.77393,0.666809,
-5.7724,0.621033,
-5.7663,0.601196,
-5.77087,0.613403,
-5.76477,0.650024,
-5.75867,0.672913,
-5.75867,0.621033,
-5.75409,0.6073,
-5.75104,0.614929,
-5.74951,0.648499,
-5.74341,0.672913,
-5.7312,0.62561,
-5.7312,0.6073,
-5.72662,0.614929,
-5.71747,0.646973,
-5.71136,0.675964,
-5.70374,0.628662,
-5.70374,0.6073,
-5.69458,0.611877,
-5.69,0.645447,
-5.68542,0.679016,
-5.68085,0.62561,
-5.67474,0.598145,
-5.66711,0.617981,
-5.66101,0.642395,
-5.65643,0.669861,
-5.65186,0.62561,
-5.64423,0.610352,
-5.6427,0.614929,
-5.63507,0.648499,
-5.63049,0.666809,
-5.62592,0.62561,
-5.62439,0.605774,
-5.62134,0.628662,
-5.61676,0.648499,
-5.61371,0.672913,
-5.60913,0.63324,
-5.60913,0.59967,
-5.60303,0.616455,
-5.59387,0.648499,
-5.58319,0.671387,
-5.57861,0.634766,
-5.57251,0.602722,
-5.56335,0.619507,
-5.55267,0.648499,
-5.54199,0.674438,
-5.53436,0.639343,
-5.52368,0.595093,
-5.51453,0.617981,
-5.50232,0.648499,
-5.49622,0.671387,
-5.48401,0.634766,
-5.47791,0.587463,
-5.46875,0.616455,
-5.45807,0.646973,
-5.45044,0.669861,
-5.44434,0.637817,
-5.44128,0.592041,
-5.43671,0.614929,
-5.42908,0.648499,
-5.42297,0.665283,
-5.41992,0.639343,
-5.40771,0.604248,
-5.40009,0.605774,
-5.39093,0.704956,
-5.3833,0.665283,
-5.37262,0.642395,
-5.36194,0.593567,
-5.36041,0.614929,
-5.35126,0.650024,
-5.34515,0.671387,
-5.34363,0.63324,
-5.34668,0.593567,
-5.34668,0.613403,
-5.34668,0.646973,
-5.34973,0.672913,
-5.35431,0.637817,
-5.35278,0.598145,
-5.35889,0.619507,
-5.35583,0.648499,
-5.35126,0.669861,
-5.35278,0.640869,
-5.35278,0.601196,
-5.35278,0.616455,
-5.34973,0.648499,
-5.35126,0.669861,
-5.3421,0.643921,
-5.33905,0.601196,
-5.33447,0.619507,
-5.33142,0.648499,
-5.32379,0.672913,
-5.32074,0.643921,
-5.31464,0.598145,
-5.31006,0.617981,
-5.30701,0.650024,
-5.30396,0.672913,
-5.29327,0.645447,
-5.2887,0.595093,
-5.29022,0.619507,
-5.28412,0.65155,
-5.27649,0.672913,
-5.27496,0.645447,
-5.26886,0.602722,
-5.26733,0.605774,
-5.26733,0.648499,
-5.26276,0.671387,
-5.26123,0.645447,
-5.26123,0.59967,
-5.26123,0.617981,
-5.26276,0.639343,
-5.26276,0.671387,
-5.26428,0.654602,
-5.26581,0.598145,
-5.26428,0.616455,
-5.26581,0.646973,
-5.26428,0.668335,
-5.26276,0.648499,
-5.26581,0.598145,
-5.27039,0.628662,
-5.26886,0.646973,
-5.26581,0.669861,
-5.26428,0.648499,
-5.26276,0.602722,
-5.25818,0.614929,
-5.25055,0.645447,
-5.24292,0.668335,
-5.23987,0.656128,
-5.23834,0.595093,
-5.22919,0.614929,
-5.22308,0.646973,
-5.21545,0.669861,
-5.21088,0.646973,
-5.2002,0.588989,
-5.19562,0.616455,
-5.19409,0.650024,
-5.19257,0.675964,
-5.17883,0.653076,
-5.17273,0.598145,
-5.16663,0.614929,
-5.15442,0.646973,
-5.14374,0.674438,
-5.13306,0.65155,
-5.12543,0.59967,
-5.11017,0.610352,
-5.10559,0.648499,
-5.10101,0.674438,
-5.09796,0.653076,
-5.10101,0.598145,
-5.09644,0.611877,
-5.10101,0.653076,
-5.09949,0.671387,
-5.09796,0.650024,
-5.09949,0.598145,
-5.09796,0.6073,
-5.09796,0.643921,
-5.09644,0.67749,
-5.09796,0.650024,
-5.09491,0.59967,
-5.09033,0.611877,
-5.09033,0.665283,
-5.09033,0.680542,
-5.0827,0.645447,
-5.0827,0.605774,
-5.07965,0.6073,
-5.07965,0.648499,
-5.0766,0.67749,
-5.06744,0.65155,
-5.06592,0.601196,
-5.06134,0.608826,
-5.06134,0.656128,
-5.05524,0.67749,
-5.05066,0.653076,
-5.05066,0.622559,
-5.05066,0.610352,
-5.04608,0.648499,
-5.04608,0.683594,
-5.04456,0.657654,
-5.03845,0.598145,
-5.0354,0.608826,
-5.0293,0.650024,
-5.0293,0.679016,
-5.02167,0.654602,
-5.01862,0.59967,
-5.01862,0.608826,
-5.01404,0.65155,
-5.00793,0.675964,
-5.00793,0.654602,
-5.00488,0.59967,
-5.00031,0.611877,
-4.99115,0.657654,
-4.98657,0.680542,
-4.98657,0.656128,
-4.97742,0.601196,
-4.97742,0.608826,
-4.97437,0.650024,
-4.96979,0.674438,
-4.96368,0.662231,
-4.96063,0.601196,
-4.95605,0.602722,
-4.94995,0.65155,
-4.9408,0.679016,
-4.93469,0.657654,
-4.93317,0.602722,
-4.93011,0.610352,
-4.92096,0.656128,
-4.91791,0.662231,
-4.90875,0.65918,
-4.90265,0.602722,
-4.89044,0.610352,
-4.87976,0.648499,
-4.86755,0.67749,
-4.85382,0.656128,
-4.83856,0.6073,
-4.82635,0.6073,
-4.81567,0.653076,
-4.80194,0.682068,
-4.79279,0.654602,
-4.78058,0.602722,
-4.76685,0.6073,
-4.75769,0.656128,
-4.74243,0.688171,
-4.73175,0.660706,
-4.72412,0.601196,
-4.71344,0.608826,
-4.69818,0.650024,
-4.68597,0.653076,
-4.67682,0.656128,
-4.66156,0.601196,
-4.65088,0.6073,
-4.63715,0.653076,
-4.62494,0.67749,
-4.61884,0.627136,
-4.6051,0.602722,
-4.59137,0.604248,
-4.58069,0.650024,
-4.56543,0.67749,
-4.55627,0.65918,
-4.54559,0.605774,
-4.52576,0.592041,
-4.5166,0.617981,
-4.50745,0.675964,
-4.49677,0.668335,
-4.48761,0.604248,
-4.47998,0.6073,
-4.46625,0.650024,
-4.45709,0.682068,
-4.45099,0.653076,
-4.43878,0.6073,
-4.42963,0.604248,
-4.42352,0.646973,
-4.41132,0.674438,
-4.40826,0.654602,
-4.39911,0.608826,
-4.39301,0.601196,
-4.38385,0.653076,
-4.37622,0.669861,
-4.36859,0.654602,
-4.35791,0.605774,
-4.34723,0.602722,
-4.34113,0.654602,
-4.3396,0.657654,
-4.32739,0.657654,
-4.32129,0.610352,
-4.31976,0.59967,
-4.31519,0.653076,
-4.31366,0.671387,
-4.31366,0.653076,
-4.31213,0.619507,
-4.31366,0.601196,
-4.31366,0.616455,
-4.31519,0.672913,
-4.31824,0.656128,
-4.31671,0.608826,
-4.31824,0.611877,
-4.32129,0.657654,
-4.31824,0.672913,
-4.31976,0.653076,
-4.31366,0.613403,
-4.31366,0.598145,
-4.30908,0.646973,
-4.30603,0.671387,
-4.3045,0.654602,
-4.30298,0.611877,
-4.29993,0.602722,
-4.29535,0.650024,
-4.28619,0.668335,
-4.28162,0.654602,
-4.27399,0.610352,
-4.26788,0.59967,
-4.26178,0.648499,
-4.24957,0.668335,
-4.245,0.654602,
-4.23889,0.614929,
-4.23431,0.645447,
-4.22211,0.639343,
-4.216,0.680542,
-4.2099,0.65155,
-4.20532,0.610352,
-4.19769,0.601196,
-4.19006,0.65155,
-4.18549,0.669861,
-4.17938,0.709534,
-4.1748,0.604248,
-4.17175,0.604248,
-4.16565,0.648499,
-4.15955,0.665283,
-4.15192,0.653076,
-4.15039,0.608826,
-4.14276,0.59967,
-4.14124,0.648499,
-4.14124,0.668335,
-4.14124,0.646973,
-4.13361,0.616455,
-4.13361,0.602722,
-4.12445,0.65155,
-4.11987,0.669861,
-4.11682,0.65155,
-4.1153,0.613403,
-4.11682,0.598145,
-4.11835,0.636292,
-4.11835,0.668335,
-4.1153,0.650024,
-4.11224,0.614929,
-4.10919,0.601196,
-4.10767,0.646973,
-4.10461,0.65918,
-4.09851,0.642395,
-4.09393,0.614929,
-4.08783,0.598145,
-4.08325,0.645447,
-4.0802,0.662231,
-4.07715,0.645447,
-4.0741,0.65155,
-4.07257,0.595093,
-4.06952,0.645447,
-4.06494,0.662231,
-4.06494,0.650024,
-4.06036,0.617981,
-4.05426,0.598145,
-4.05273,0.645447,
-4.04205,0.660706,
-4.04053,0.646973,
-4.03137,0.619507,
-4.02679,0.595093,
-4.01764,0.648499,
-4.01306,0.65918,
-4.01001,0.646973,
-4.00391,0.616455,
-3.99933,0.601196,
-3.9978,0.646973,
-3.99017,0.65918,
-3.98407,0.648499,
-3.97797,0.621033,
-3.97644,0.602722,
-3.97339,0.642395,
-3.96881,0.660706,
-3.96118,0.645447,
-3.9566,0.621033,
-3.95508,0.601196,
-3.95813,0.643921,
-3.95203,0.65918,
-3.94897,0.645447,
-3.94745,0.617981,
-3.9444,0.598145,
-3.94287,0.645447,
-3.93982,0.660706,
-3.93829,0.654602,
-3.93219,0.622559,
-3.93066,0.598145,
-3.92761,0.642395,
-3.92456,0.654602,
-3.92303,0.646973,
-3.92303,0.619507,
-3.91846,0.602722,
-3.91388,0.645447,
-3.90778,0.654602,
-3.9032,0.646973,
-3.89862,0.617981,
-3.89709,0.602722,
-3.89862,0.643921,
-3.89099,0.654602,
-3.89404,0.642395,
-3.88794,0.631714,
-3.88336,0.588989,
-3.88184,0.617981,
-3.87726,0.650024,
-3.87268,0.642395,
-3.8681,0.595093,
-3.86658,0.604248,
-3.86505,0.636292,
-3.862,0.654602,
-3.85437,0.636292,
-3.85437,0.616455,
-3.84979,0.601196,
-3.84674,0.613403,
-3.84369,0.65155,
-3.84827,0.637817,
-3.84216,0.617981,
-3.83911,0.604248,
-3.83606,0.639343,
-3.82996,0.653076,
-3.82538,0.637817,
-3.8208,0.614929,
-3.81927,0.610352,
-3.81165,0.617981,
-3.80707,0.653076,
-3.79486,0.640869,
-3.78723,0.617981,
-3.78113,0.598145,
-3.78113,0.634766,
-3.77808,0.657654,
-3.77502,0.643921,
-3.7735,0.617981,
-3.77502,0.604248,
-3.7735,0.634766,
-3.7735,0.648499,
-3.7735,0.636292,
-3.77655,0.614929,
-3.77655,0.605774,
-3.78723,0.631714,
-3.79333,0.653076,
-3.79944,0.624084,
-3.81012,0.614929,
-3.81775,0.602722,
-3.8269,0.63324,
-3.83148,0.653076,
-3.84216,0.637817,
-3.85437,0.616455,
-3.8681,0.602722,
-3.88184,0.628662,
-3.90015,0.65155,
-3.91083,0.639343,
-3.92609,0.616455,
-3.94135,0.610352,
-3.9505,0.634766,
-3.96576,0.645447,
-3.97491,0.637817,
-3.99017,0.613403,
-3.99628,0.602722,
-4.00848,0.624084,
-4.01459,0.653076,
-4.02527,0.637817,
-4.02985,0.617981,
-4.03442,0.604248,
-4.03442,0.627136,
-4.03748,0.648499,
-4.03442,0.637817,
-4.02985,0.616455,
-4.01917,0.601196,
-4.00848,0.621033,
-3.99628,0.648499,
-3.97949,0.639343,
-3.96423,0.619507,
-3.9444,0.605774,
-3.92456,0.62561,
-3.9032,0.65155,
-3.87268,0.640869,
-3.85284,0.617981,
-3.8269,0.601196,
-3.80096,0.622559,
-3.7735,0.650024,
-3.75366,0.640869,
-3.7323,0.617981,
-3.71094,0.6073,
-3.69415,0.614929,
-3.67584,0.650024,
-3.65906,0.640869,
-3.64227,0.616455,
-3.62549,0.614929,
-3.60718,0.621033,
-3.59039,0.65155,
-3.57513,0.642395,
-3.5614,0.614929,
-3.54919,0.602722,
-3.53699,0.622559,
-3.52631,0.648499,
-3.51563,0.639343,
-3.508,0.613403,
-3.49731,0.59967,
-3.48816,0.621033,
-3.48206,0.650024,
-3.46985,0.628662,
-3.46375,0.616455,
-3.45306,0.59967,
-3.44238,0.614929,
-3.43018,0.65155,
-3.41644,0.640869,
-3.39966,0.613403,
-3.38287,0.598145,
-3.37067,0.608826,
-3.3493,0.686646,
-3.33099,0.650024,
-3.31726,0.614929,
-3.29895,0.604248,
-3.28217,0.617981,
-3.26233,0.65155,
-3.24707,0.639343,
-3.23029,0.6073,
-3.21808,0.604248,
-3.2074,0.613403,
-3.19519,0.646973,
-3.17993,0.646973,
-3.16925,0.616455,
-3.15247,0.608826,
-3.14178,0.624084,
-3.1311,0.660706,
-3.11584,0.648499,
-3.10669,0.619507,
-3.08685,0.604248,
-3.07007,0.619507,
-3.05939,0.646973,
-3.0426,0.645447,
-3.03497,0.610352,
-3.01819,0.604248,
-3.00598,0.621033,
-2.99377,0.65155,
-2.97546,0.646973,
-2.95563,0.616455,
-2.93732,0.59967,
-2.91748,0.631714,
-2.89917,0.648499,
-2.87781,0.645447,
-2.85492,0.617981,
-2.83203,0.604248,
-2.81219,0.622559,
-2.79541,0.648499,
-2.77863,0.642395,
-2.76794,0.616455,
-2.75269,0.605774,
-2.73743,0.616455,
-2.71912,0.654602,
-2.70233,0.653076,
-2.68707,0.617981,
-2.67029,0.592041,
-2.65656,0.613403,
-2.63977,0.650024,
-2.62604,0.646973,
-2.61536,0.614929,
-2.60468,0.605774,
-2.59399,0.617981,
-2.58179,0.654602,
-2.56958,0.648499,
-2.56042,0.616455,
-2.55127,0.608826,
-2.54669,0.611877,
-2.54059,0.656128,
-2.53448,0.646973,
-2.53143,0.617981,
-2.52228,0.602722,
-2.5177,0.610352,
-2.51923,0.656128,
-2.51617,0.645447,
-2.51312,0.616455,
-2.51465,0.602722,
-2.51312,0.613403,
-2.50854,0.65155,
-2.51465,0.646973,
-2.51312,0.614929,
-2.51312,0.602722,
-2.50702,0.613403,
-2.50549,0.653076,
-2.50092,0.648499,
-2.49481,0.616455,
-2.48871,0.605774,
-2.4826,0.608826,
-2.46887,0.650024,
-2.45819,0.646973,
-2.45056,0.613403,
-2.43378,0.598145,
-2.4231,0.610352,
-2.40631,0.65155,
-2.3941,0.646973,
-2.38495,0.616455,
-2.36969,0.605774,
-2.35596,0.619507,
-2.33917,0.656128,
-2.32544,0.653076,
-2.31018,0.614929,
-2.29645,0.595093,
-2.27966,0.579834,
-2.26746,0.656128,
-2.2583,0.648499,
-2.24457,0.616455,
-2.23083,0.601196,
-2.21863,0.613403,
-2.20947,0.657654,
-2.20184,0.653076,
-2.18964,0.619507,
-2.18353,0.59967,
-2.1759,0.611877,
-2.1698,0.657654,
-2.16064,0.653076,
-2.15302,0.617981,
-2.14386,0.601196,
-2.13928,0.616455,
-2.1347,0.65918,
-2.13318,0.656128,
-2.1286,0.619507,
-2.13318,0.601196,
-2.12708,0.617981,
-2.13318,0.656128,
-2.13776,0.656128,
-2.14081,0.622559,
-2.14844,0.59967,
-2.15149,0.613403,
-2.16217,0.654602,
-2.17285,0.654602,
-2.18506,0.621033,
-2.19269,0.601196,
-2.20642,0.619507,
-2.22168,0.656128,
-2.23846,0.654602,
-2.2522,0.621033,
-2.2644,0.59967,
-2.27509,0.616455,
-2.29034,0.65918,
-2.2995,0.65155,
-2.31781,0.622559,
-2.33307,0.601196,
-2.34985,0.616455,
-2.36206,0.656128,
-2.37732,0.653076,
-2.39563,0.621033,
-2.41089,0.601196,
-2.42157,0.616455,
-2.43073,0.657654,
-2.44293,0.657654,
-2.44904,0.631714,
-2.45972,0.6073,
-2.4704,0.617981,
-2.47345,0.656128,
-2.48108,0.648499,
-2.4826,0.622559,
-2.48566,0.601196,
-2.48718,0.614929,
-2.48718,0.660706,
-2.48718,0.65918,
-2.48413,0.627136,
-2.48108,0.598145,
-2.47803,0.619507,
-2.47955,0.657654,
-2.48413,0.642395,
-2.49023,0.624084,
-2.49329,0.601196,
-2.49481,0.619507,
-2.49634,0.660706,
-2.50244,0.662231,
-2.50549,0.627136,
-2.50854,0.605774,
-2.50854,0.619507,
-2.51617,0.65918,
-2.51923,0.654602,
-2.52686,0.62561,
-2.52991,0.602722,
-2.53143,0.621033,
-2.53296,0.648499,
-2.53754,0.65918,
-2.53754,0.624084,
-2.53906,0.59967,
-2.53448,0.621033,
-2.52838,0.657654,
-2.52533,0.656128,
-2.52533,0.62561,
-2.52075,0.598145,
-2.52075,0.624084,
-2.51465,0.65918,
-2.50702,0.660706,
-2.50092,0.628662,
-2.49481,0.6073,
-2.48718,0.617981,
-2.47498,0.636292,
-2.4704,0.653076,
-2.46582,0.62561,
-2.45819,0.59967,
-2.45209,0.63324,
-2.44598,0.657654,
-2.44598,0.718689,
-2.43225,0.63324,
-2.43073,0.587463,
-2.4231,0.622559,
-2.42157,0.657654,
-2.41089,0.662231,
-2.41394,0.627136,
-2.40479,0.604248,
-2.40173,0.619507,
-2.40173,0.648499,
-2.40936,0.662231,
-2.40936,0.628662,
-2.41089,0.59967,
-2.41699,0.624084,
-2.4231,0.65918,
-2.43073,0.665283,
-2.43378,0.62561,
-2.43988,0.59967,
-2.45056,0.622559,
-2.45209,0.65918,
-2.46277,0.660706,
-2.46887,0.627136,
-2.47345,0.601196,
-2.47498,0.622559,
-2.47498,0.660706,
-2.47955,0.665283,
-2.48413,0.627136,
-2.48871,0.602722,
-2.49023,0.617981,
-2.49329,0.662231,
-2.49329,0.660706,
-2.49786,0.601196,
-2.50092,0.584412,
-2.50397,0.622559,
-2.50244,0.660706,
-2.5116,0.662231,
-2.51617,0.63324,
-2.52075,0.601196,
-2.52686,0.621033,
-2.52991,0.657654,
-2.53601,0.657654,
-2.54211,0.631714,
-2.54974,0.602722,
-2.54974,0.619507,
-2.55432,0.657654,
-2.5589,0.666809,
-2.56195,0.631714,
-2.56042,0.601196,
-2.56042,0.621033,
-2.56195,0.657654,
-2.56653,0.666809,
-2.56653,0.63324,
-2.56653,0.602722,
-2.56958,0.624084,
-2.57111,0.65918,
-2.56958,0.665283,
-2.56958,0.628662,
-2.56195,0.602722,
-2.56042,0.624084,
-2.55737,0.662231,
-2.55127,0.668335,
-2.54669,0.627136,
-2.54059,0.604248,
-2.53448,0.621033,
-2.52686,0.666809,
-2.51312,0.666809,
-2.49481,0.634766,
-2.47803,0.604248,
-2.45514,0.62561,
-2.43073,0.65918,
-2.40631,0.660706,
-2.38342,0.613403,
-2.36053,0.602722,
-2.33002,0.622559,
-2.3056,0.65918,
-2.27661,0.675964,
-2.24762,0.639343,
-2.2171,0.662231,
-2.18964,0.624084,
-2.15759,0.672913,
-2.1286,0.668335,
-2.10266,0.63324,
-2.06757,0.6073,
-2.0462,0.627136,
-2.01263,0.662231,
-1.97906,0.714111,
-1.95313,0.636292,
-1.92108,0.610352,
-1.88599,0.628662,
-1.85242,0.668335,
-1.8219,0.671387,
-1.79291,0.628662,
-1.76392,0.605774,
-1.73492,0.654602,
-1.71051,0.65918,
-1.68304,0.669861,
-1.66016,0.63324,
-1.63422,0.616455,
-1.60828,0.636292,
-1.58691,0.669861,
-1.56403,0.671387,
-1.54572,0.636292,
-1.5274,0.610352,
-1.50757,0.63324,
-1.48621,0.668335,
-1.46942,0.665283,
-1.45721,0.631714,
-1.44196,0.605774,
-1.43433,0.63324,
-1.42517,0.668335,
-1.41907,0.672913,
-1.41144,0.631714,
-1.40228,0.6073,
-1.39618,0.639343,
-1.38702,0.671387,
-1.38245,0.672913,
-1.37482,0.631714,
-1.37329,0.6073,
-1.37177,0.63324,
-1.37024,0.669861,
-1.36871,0.669861,
-1.36719,0.627136,
-1.36871,0.605774,
-1.37329,0.639343,
-1.37787,0.671387,
-1.37939,0.666809,
-1.37482,0.621033,
-1.37787,0.605774,
-1.37787,0.636292,
-1.37787,0.665283,
-1.37787,0.668335,
-1.37939,0.628662,
-1.38397,0.604248,
-1.38855,0.639343,
-1.39008,0.665283,
-1.39465,0.666809,
-1.39771,0.62561,
-1.40533,0.602722,
-1.40533,0.640869,
-1.41296,0.662231,
-1.41449,0.662231,
-1.41296,0.628662,
-1.41144,0.592041,
-1.40686,0.640869,
-1.40228,0.648499,
-1.39923,0.662231,
-1.39465,0.62561,
-1.3916,0.605774,
-1.38702,0.643921,
-1.37329,0.646973,
-1.36414,0.657654,
-1.35345,0.631714,
-1.33972,0.6073,
-1.32904,0.637817,
-1.31531,0.662231,
-1.3031,0.660706,
-1.28632,0.62561,
-1.27563,0.6073,
-1.2619,0.636292,
-1.25122,0.666809,
-1.23444,0.666809,
-1.22833,0.624084,
-1.2207,0.59967,
-1.21155,0.639343,
-1.19781,0.671387,
-1.19171,0.660706,
-1.18256,0.634766,
-1.17188,0.604248,
-1.16425,0.639343,
-1.15509,0.672913,
-1.14288,0.665283,
-1.13373,0.624084,
-1.12152,0.605774,
-1.11542,0.637817,
-1.10626,0.721741,
-1.09863,0.65918,
-1.09253,0.628662,
-1.08643,0.602722,
-1.08185,0.637817,
-1.08032,0.672913,
-1.07269,0.669861,
-1.06506,0.657654,
-1.05896,0.605774,
-1.05591,0.645447,
-1.0498,0.680542,
-1.05133,0.668335,
-1.04523,0.631714,
-1.04675,0.611877,
-1.0437,0.646973,
-1.04218,0.669861,
-1.03912,0.636292,
-1.0376,0.628662,
-1.03607,0.605774,
-1.02844,0.645447,
-1.02997,0.669861,
-1.02692,0.660706,
-1.02844,0.627136,
-1.02692,0.604248,
-1.02539,0.648499,
-1.02234,0.666809,
-1.02234,0.665283,
-1.02386,0.640869,
-1.02386,0.604248,
-1.02386,0.645447,
-1.02081,0.668335,
-1.02386,0.660706,
-1.02539,0.624084,
-1.03302,0.604248,
-1.03912,0.648499,
-1.04218,0.675964,
-1.0498,0.669861,
-1.05591,0.59967,
-1.05896,0.604248,
-1.06354,0.648499,
-1.06506,0.674438,
-1.06964,0.662231,
-1.06812,0.619507,
-1.06964,0.601196,
-1.07269,0.694275,
-1.07422,0.675964,
-1.07117,0.660706,
-1.06964,0.62561,
-1.07574,0.604248,
-1.07574,0.645447,
-1.07422,0.674438,
-1.07422,0.666809,
-1.07422,0.627136,
-1.0788,0.604248,
-1.0788,0.643921,
-1.08032,0.671387,
-1.08185,0.682068,
-1.08337,0.622559,
-1.08032,0.6073,
-1.08032,0.642395,
-1.0788,0.668335,
-1.07574,0.666809,
-1.07574,0.627136,
-1.07574,0.602722,
-1.07422,0.642395,
-1.07422,0.665283,
-1.07727,0.668335,
-1.07727,0.624084,
-1.07574,0.604248,
-1.08337,0.642395,
-1.08948,0.666809,
-1.08643,0.660706,
-1.09406,0.62561,
-1.09558,0.608826,
-1.10474,0.634766,
-1.11084,0.669861,
-1.11542,0.665283,
-1.12,0.62561,
-1.12457,0.601196,
-1.12915,0.646973,
-1.13678,0.666809,
-1.14136,0.662231,
-1.14441,0.631714,
-1.15356,0.605774,
-1.15509,0.640869,
-1.15662,0.671387,
-1.16119,0.660706,
-1.1673,0.627136,
-1.17035,0.605774,
-1.1734,0.639343,
-1.1734,0.675964,
-1.17798,0.666809,
-1.1795,0.627136,
-1.18103,0.601196,
-1.18561,0.637817,
-1.18408,0.679016,
-1.18561,0.65918,
-1.18561,0.62561,
-1.18256,0.604248,
-1.18561,0.636292,
-1.18713,0.67749,
-1.19324,0.666809,
-1.19171,0.628662,
-1.19171,0.585938,
-1.19629,0.628662,
-1.20087,0.68512,
-1.19934,0.662231,
-1.20239,0.627136,
-1.20697,0.602722,
-1.2085,0.631714,
-1.20697,0.679016,
-1.21307,0.665283,
-1.2146,0.62561,
-1.21613,0.604248,
-1.21765,0.631714,
-1.21613,0.67749,
-1.2207,0.662231,
-1.22986,0.621033,
-1.23444,0.610352,
-1.23596,0.627136,
-1.24207,0.674438,
-1.23749,0.662231,
-1.24664,0.62561,
-1.24512,0.601196,
-1.24207,0.628662,
-1.24512,0.671387,
-1.24969,0.666809,
-1.25122,0.62561,
-1.25122,0.6073,
-1.25427,0.628662,
-1.25732,0.671387,
-1.25275,0.662231,
-1.24969,0.634766,
-1.24969,0.605774,
-1.24664,0.627136,
-1.23291,0.671387,
-1.22986,0.665283,
-1.22223,0.62561,
-1.21613,0.604248,
-1.19934,0.622559,
-1.18561,0.672913,
-1.16425,0.660706,
-1.14899,0.624084,
-1.13068,0.604248,
-1.10931,0.62561,
-1.08032,0.665283,
-1.05286,0.666809,
-1.02997,0.628662,
-1.00555,0.601196,
-0.978088,0.62561,
-0.946045,0.67749,
-0.915527,0.660706,
-0.88501,0.628662,
-0.854492,0.595093,
-0.828552,0.590515,
-0.799561,0.674438,
-0.762939,0.65918,
-0.735474,0.63324,
-0.70343,0.602722,
-0.672913,0.627136,
-0.643921,0.671387,
-0.608826,0.666809,
-0.579834,0.628662,
-0.552368,0.604248,
-0.521851,0.628662,
-0.492859,0.675964,
-0.468445,0.654602,
-0.444031,0.628662,
-0.421143,0.601196,
-0.395203,0.62561,
-0.372314,0.679016,
-0.352478,0.660706,
-0.328064,0.627136,
-0.308228,0.601196,
-0.285339,0.628662,
-0.265503,0.672913,
-0.245667,0.666809,
-0.227356,0.628662,
-0.212097,0.604248,
-0.190735,0.628662,
-0.178528,0.672913,
-0.163269,0.668335,
-0.151062,0.62561,
-0.135803,0.59967,
-0.126648,0.628662,
-0.115967,0.672913,
-0.106812,0.666809,
-0.0946045,0.624084,
-0.0900269,0.604248,
-0.0823975,0.62561,
-0.0747681,0.674438,
-0.0640869,0.669861,
-0.0549316,0.631714,
-0.0549316,0.601196,
-0.0488281,0.62561,
-0.0411987,0.674438,
-0.038147,0.671387,
-0.0335693,0.631714,
-0.0274658,0.59967,
-0.0244141,0.62561,
-0.0228882,0.672913,
-0.0244141,0.666809,
-0.0274658,0.627136,
-0.0259399,0.59967,
-0.0289917,0.627136,
-0.0274658,0.660706,
-0.0244141,0.668335,
-0.0289917,0.631714,
-0.0274658,0.595093,
-0.0289917,0.624084,
-0.0274658,0.672913,
-0.0259399,0.656128,
-0.0228882,0.62561,
-0.0213623,0.601196,
-0.0183105,0.624084,
-0.0167847,0.671387,
-0.00762939,0.668335,
-0.0106812,0.627136,
-0.00457764,0.59967,
-0.00305176,0.621033,
0.00305176,0.672913,
0.0106812,0.669861,
0.0167847,0.627136,
0.0289917,0.592041,
0.038147,0.622559,
0.0488281,0.675964,
0.0579834,0.662231,
0.0610352,0.622559,
0.0717163,0.593567,
0.0732422,0.608826,
0.0778198,0.67749,
0.0823975,0.666809,
0.0869751,0.63324,
0.0961304,0.595093,
0.10376,0.619507,
0.115967,0.718689,
0.12207,0.67749,
0.131226,0.627136,
0.140381,0.59967,
0.146484,0.624084,
0.152588,0.67749,
0.161743,0.674438,
0.167847,0.624084,
0.169373,0.595093,
0.167847,0.621033,
0.172424,0.672913,
0.17395,0.671387,
0.17395,0.628662,
0.17395,0.595093,
0.175476,0.622559,
0.180054,0.660706,
0.180054,0.671387,
0.178528,0.62561,
0.180054,0.592041,
0.178528,0.621033,
0.177002,0.675964,
0.175476,0.671387,
0.180054,0.62561,
0.178528,0.595093,
0.175476,0.624084,
0.177002,0.669861,
0.17395,0.671387,
0.177002,0.624084,
0.180054,0.598145,
0.180054,0.622559,
0.178528,0.672913,
0.180054,0.671387,
0.178528,0.628662,
0.172424,0.593567,
0.164795,0.624084,
0.163269,0.679016,
0.160217,0.668335,
0.158691,0.62561,
0.160217,0.595093,
0.157166,0.621033,
0.151062,0.671387,
0.146484,0.657654,
0.144958,0.622559,
0.134277,0.592041,
0.1297,0.624084,
0.123596,0.665283,
0.119019,0.669861,
0.114441,0.62561,
0.109863,0.602722,
0.10376,0.622559,
0.0946045,0.668335,
0.0900269,0.653076,
0.0808716,0.622559,
0.0732422,0.592041,
0.0671387,0.605774,
0.0579834,0.662231,
0.0518799,0.672913,
0.0457764,0.622559,
0.0396729,0.605774,
0.0289917,0.621033,
0.0244141,0.665283,
0.0213623,0.65918,
0.0152588,0.624084,
0.0106812,0.598145,
0.00457764,0.662231,
0,0.672913,
-0.00762939,0.674438,
-0.0137329,0.627136,
-0.0183105,0.59967,
-0.0228882,0.619507,
-0.0274658,0.665283,
-0.0366211,0.669861,
-0.0473022,0.621033,
-0.0534058,0.595093,
-0.062561,0.619507,
-0.0656128,0.666809,
-0.0717163,0.67749,
-0.0762939,0.627136,
-0.0839233,0.598145,
-0.0930786,0.621033,
-0.0976563,0.662231,
-0.106812,0.674438,
-0.114441,0.624084,
-0.123596,0.604248,
-0.1297,0.63324,
-0.137329,0.665283,
-0.14801,0.675964,
-0.15564,0.628662,
-0.160217,0.598145,
-0.170898,0.622559,
-0.175476,0.660706,
-0.180054,0.683594,
-0.187683,0.624084,
-0.193787,0.598145,
-0.202942,0.624084,
-0.205994,0.662231,
-0.215149,0.672913,
-0.219727,0.62561,
-0.224304,0.604248,
-0.228882,0.621033,
-0.234985,0.665283,
-0.236511,0.675964,
-0.242615,0.622559,
-0.247192,0.595093,
-0.254822,0.624084,
-0.259399,0.65918,
-0.260925,0.674438,
-0.268555,0.627136,
-0.274658,0.598145,
-0.283813,0.622559,
-0.286865,0.660706,
-0.291443,0.675964,
-0.299072,0.624084,
-0.30365,0.608826,
-0.312805,0.622559,
-0.32196,0.65918,
-0.332642,0.67749,
-0.3479,0.627136,
-0.360107,0.602722,
-0.367737,0.614929,
-0.38147,0.657654,
-0.390625,0.67749,
-0.396729,0.62561,
-0.402832,0.604248,
-0.416565,0.62561,
-0.424194,0.660706,
-0.431824,0.671387,
-0.440979,0.628662,
-0.45166,0.608826,
-0.457764,0.634766,
-0.465393,0.657654,
-0.476074,0.674438,
-0.485229,0.62561,
-0.492859,0.604248,
-0.508118,0.62561,
-0.518799,0.656128,
-0.531006,0.666809,
-0.540161,0.628662,
-0.547791,0.605774,
-0.552368,0.627136,
-0.559998,0.653076,
-0.564575,0.671387,
-0.569153,0.62561,
-0.569153,0.605774,
-0.575256,0.631714,
-0.575256,0.642395,
-0.57373,0.669861,
-0.572205,0.63324,
-0.566101,0.608826,
-0.553894,0.622559,
-0.544739,0.653076,
-0.531006,0.653076,
-0.509644,0.628662,
-0.494385,0.608826,
-0.473022,0.627136,
-0.448608,0.65155,
-0.416565,0.672913,
-0.393677,0.62561,
-0.367737,0.608826,
-0.338745,0.62561,
-0.314331,0.65155,
-0.283813,0.674438,
-0.248718,0.631714,
-0.219727,0.6073,
-0.186157,0.63324,
-0.15564,0.654602,
-0.128174,0.668335,
-0.0961304,0.631714,
-0.0732422,0.611877,
-0.0442505,0.634766,
-0.0152588,0.646973,
0.012207,0.672913,
0.0411987,0.63324,
0.0656128,0.611877,
0.0900269,0.628662,
0.112915,0.654602,
0.131226,0.671387,
0.151062,0.62561,
0.166321,0.611877,
0.184631,0.628662,
0.202942,0.654602,
0.216675,0.669861,
0.222778,0.631714,
0.241089,0.610352,
0.250244,0.628662,
0.257874,0.656128,
0.267029,0.683594,
0.280762,0.634766,
0.288391,0.611877,
0.291443,0.63324,
0.296021,0.656128,
0.305176,0.669861,
0.309753,0.63324,
0.314331,0.601196,
0.32196,0.637817,
0.326538,0.660706,
0.332642,0.668335,
0.340271,0.639343,
0.346375,0.614929,
0.349426,0.634766,
0.3479,0.65155,
0.346375,0.668335,
0.3479,0.637817,
0.3479,0.616455,
0.344849,0.631714,
0.346375,0.653076,
0.341797,0.662231,
0.338745,0.634766,
0.337219,0.646973,
0.331116,0.660706,
0.32959,0.656128,
0.323486,0.675964,
0.320435,0.636292,
0.312805,0.619507,
0.309753,0.628662,
0.297546,0.654602,
0.291443,0.653076,
0.286865,0.645447,
0.273132,0.610352,
0.268555,0.628662,
0.265503,0.653076,
0.263977,0.675964,
0.262451,0.645447,
0.257874,0.614929,
0.254822,0.63324,
0.254822,0.653076,
0.253296,0.666809,
0.253296,0.640869,
0.253296,0.601196,
0.256348,0.628662,
0.257874,0.656128,
0.263977,0.668335,
0.267029,0.640869,
0.268555,0.616455,
0.276184,0.634766,
0.280762,0.657654,
0.282288,0.669861,
0.285339,0.639343,
0.285339,0.611877,
0.286865,0.627136,
0.285339,0.654602,
0.283813,0.666809,
0.283813,0.643921,
0.286865,0.621033,
0.288391,0.628662,
0.291443,0.653076,
0.294495,0.669861,
0.297546,0.628662,
0.297546,0.584412,
0.292969,0.63324,
0.292969,0.654602,
0.294495,0.671387,
0.294495,0.65155,
0.291443,0.628662,
0.283813,0.637817,
0.276184,0.648499,
0.271606,0.717163,
0.267029,0.650024,
0.257874,0.619507,
0.253296,0.62561,
0.247192,0.645447,
0.245667,0.666809,
0.234985,0.662231,
0.227356,0.617981,
0.219727,0.67749,
0.209045,0.657654,
0.198364,0.669861,
0.192261,0.654602,
0.178528,0.617981,
0.169373,0.627136,
0.157166,0.654602,
0.14801,0.671387,
0.138855,0.648499,
0.1297,0.614929,
0.12207,0.62561,
0.117493,0.656128,
0.105286,0.669861,
0.0976563,0.65155,
0.0869751,0.616455,
0.0778198,0.627136,
0.0671387,0.650024,
0.0595093,0.668335,
0.0488281,0.65918,
0.0442505,0.616455,
0.0366211,0.628662,
0.0259399,0.656128,
0.0259399,0.669861,
0.012207,0.65155,
0.00457764,0.617981,
-0.00610352,0.63324,
-0.0152588,0.669861,
-0.0244141,0.674438,
-0.0335693,0.654602,
-0.0457764,0.617981,
-0.0534058,0.628662,
-0.0656128,0.642395,
-0.0823975,0.668335,
-0.0946045,0.660706,
-0.108337,0.616455,
-0.123596,0.62561,
-0.131226,0.650024,
-0.143433,0.668335,
-0.158691,0.65155,
-0.169373,0.616455,
-0.184631,0.62561,
-0.193787,0.653076,
-0.205994,0.666809,
-0.219727,0.653076,
-0.227356,0.619507,
-0.239563,0.624084,
-0.254822,0.654602,
-0.265503,0.666809,
-0.27771,0.65155,
-0.288391,0.619507,
-0.294495,0.624084,
-0.305176,0.654602,
-0.317383,0.669861,
-0.323486,0.656128,
-0.331116,0.619507,
-0.343323,0.624084,
-0.357056,0.653076,
-0.367737,0.669861,
-0.372314,0.666809,
-0.384521,0.621033,
-0.393677,0.622559,
-0.40741,0.653076,
-0.419617,0.668335,
-0.430298,0.657654,
-0.440979,0.622559,
-0.457764,0.622559,
-0.468445,0.65155,
-0.4776,0.666809,
-0.489807,0.657654,
-0.494385,0.627136,
-0.50354,0.621033,
-0.512695,0.656128,
-0.526428,0.662231,
-0.541687,0.654602,
-0.556946,0.613403,
-0.566101,0.624084,
-0.579834,0.646973,
-0.595093,0.665283,
-0.602722,0.656128,
-0.611877,0.637817,
-0.627136,0.622559,
-0.642395,0.656128,
-0.65155,0.660706,
-0.663757,0.654602,
-0.675964,0.613403,
-0.683594,0.622559,
-0.697327,0.640869,
-0.706482,0.665283,
-0.715637,0.656128,
-0.730896,0.6073,
-0.740051,0.622559,
-0.746155,0.645447,
-0.75531,0.662231,
-0.767517,0.668335,
-0.773621,0.605774,
-0.78125,0.621033,
-0.788879,0.617981,
-0.801086,0.65918,
-0.810242,0.657654,
-0.828552,0.619507,
-0.845337,0.622559,
-0.862122,0.653076,
-0.875854,0.666809,
-0.889587,0.657654,
-0.906372,0.608826,
-0.918579,0.622559,
-0.932312,0.650024,
-0.946045,0.666809,
-0.958252,0.656128,
-0.976563,0.619507,
-0.993347,0.627136,
-1.00861,0.624084,
-1.02234,0.669861,
-1.04218,0.645447,
-1.05286,0.613403,
-1.06964,0.622559,
-1.0849,0.648499,
-1.09863,0.669861,
-1.11084,0.657654,
-1.12457,0.608826,
-1.13373,0.621033,
-1.14899,0.650024,
-1.15967,0.666809,
-1.17035,0.656128,
-1.18103,0.610352,
-1.19019,0.617981,
-1.19629,0.65155,
-1.2085,0.668335,
-1.21613,0.65918,
-1.22528,0.595093,
-1.23444,0.616455,
-1.24207,0.646973,
-1.25122,0.669861,
-1.25885,0.654602,
-1.26495,0.610352,
-1.27563,0.614929,
-1.28021,0.646973,
-1.28479,0.665283,
-1.29242,0.654602,
-1.29547,0.610352,
-1.297,0.617981,
-1.30463,0.634766,
-1.3031,0.660706,
-1.30005,0.665283,
-1.297,0.614929,
-1.28937,0.616455,
-1.27716,0.65155,
-1.26343,0.665283,
-1.24817,0.654602,
-1.23291,0.611877,
-1.21307,0.613403,
-1.19019,0.657654,
-1.1673,0.674438,
-1.14136,0.65155,
-1.11847,0.610352,
-1.09253,0.616455,
-1.06812,0.648499,
-1.03455,0.668335,
-1.00861,0.650024,
-0.978088,0.610352,
-0.946045,0.616455,
-0.914001,0.648499,
-0.883484,0.666809,
-0.852966,0.65155,
-0.817871,0.604248,
-0.787354,0.616455,
-0.752258,0.628662,
-0.721741,0.666809,
-0.683594,0.646973,
-0.65155,0.602722,
-0.616455,0.611877,
-0.582886,0.65155,
-0.549316,0.668335,
-0.518799,0.65155,
-0.488281,0.6073,
-0.463867,0.608826,
-0.43335,0.645447,
-0.404358,0.648499,
-0.379944,0.65155,
-0.35553,0.605774,
-0.335693,0.610352,
-0.320435,0.643921,
-0.300598,0.662231,
-0.289917,0.65155,
-0.279236,0.608826,
-0.265503,0.617981,
-0.254822,0.640869,
-0.247192,0.662231,
-0.233459,0.643921,
-0.227356,0.608826,
-0.216675,0.608826,
-0.209045,0.643921,
-0.201416,0.666809,
-0.190735,0.65155,
-0.184631,0.672913,
-0.175476,0.584412,
-0.167847,0.646973,
-0.161743,0.660706,
-0.15564,0.653076,
-0.15564,0.6073,
-0.151062,0.614929,
-0.149536,0.682068,
-0.146484,0.665283,
-0.146484,0.65155,
-0.146484,0.605774,
-0.146484,0.6073,
-0.149536,0.643921,
-0.149536,0.675964,
-0.151062,0.640869,
-0.161743,0.604248,
-0.166321,0.6073,
-0.170898,0.640869,
-0.180054,0.665283,
-0.189209,0.654602,
-0.193787,0.592041,
-0.201416,0.610352,
-0.209045,0.642395,
-0.215149,0.666809,
-0.224304,0.646973,
-0.227356,0.601196,
-0.233459,0.610352,
-0.236511,0.643921,
-0.242615,0.665283,
-0.242615,0.646973,
-0.247192,0.604248,
-0.247192,0.6073,
-0.250244,0.637817,
-0.248718,0.665283,
-0.247192,0.650024,
-0.250244,0.608826,
-0.245667,0.605774,
-0.245667,0.637817,
-0.239563,0.660706,
-0.234985,0.648499,
-0.231934,0.605774,
-0.227356,0.6073,
-0.221252,0.637817,
-0.215149,0.662231,
-0.209045,0.646973,
-0.209045,0.604248,
-0.205994,0.604248,
-0.204468,0.636292,
-0.202942,0.660706,
-0.196838,0.643921,
-0.196838,0.608826,
-0.201416,0.6073,
-0.202942,0.640869,
-0.198364,0.662231,
-0.198364,0.643921,
-0.198364,0.604248,
-0.198364,0.593567,
-0.201416,0.639343,
-0.201416,0.65918,
-0.202942,0.643921,
-0.202942,0.6073,
-0.209045,0.601196,
-0.213623,0.637817,
-0.218201,0.660706,
-0.222778,0.643921,
-0.230408,0.59967,
-0.239563,0.610352,
-0.247192,0.636292,
-0.254822,0.665283,
-0.259399,0.656128,
-0.263977,0.601196,
-0.273132,0.605774,
-0.279236,0.628662,
-0.280762,0.666809,
-0.288391,0.613403,
-0.294495,0.611877,
-0.299072,0.59967,
-0.308228,0.642395,
-0.314331,0.65918,
-0.323486,0.643921,
-0.332642,0.602722,
-0.346375,0.570679,
-0.352478,0.639343,
-0.354004,0.660706,
-0.361633,0.639343,
-0.367737,0.604248,
-0.370789,0.604248,
-0.379944,0.636292,
-0.387573,0.65918,
-0.393677,0.639343,
-0.404358,0.605774,
-0.415039,0.601196,
-0.422668,0.640869,
-0.430298,0.665283,
-0.437927,0.639343,
-0.445557,0.602722,
-0.456238,0.601196,
-0.465393,0.636292,
-0.471497,0.662231,
-0.485229,0.636292,
-0.492859,0.602722,
-0.508118,0.602722,
-0.523376,0.650024,
-0.534058,0.708008,
-0.544739,0.637817,
-0.556946,0.605774,
-0.569153,0.601196,
-0.58136,0.636292,
-0.592041,0.657654,
-0.604248,0.634766,
-0.614929,0.59967,
-0.631714,0.602722,
-0.643921,0.639343,
-0.657654,0.656128,
-0.669861,0.631714,
-0.680542,0.593567,
-0.694275,0.59967,
-0.70343,0.636292,
-0.715637,0.666809,
-0.727844,0.668335,
-0.737,0.593567,
-0.746155,0.605774,
-0.753784,0.634766,
-0.762939,0.65918,
-0.767517,0.628662,
-0.776672,0.592041,
-0.785828,0.656128,
-0.793457,0.621033,
-0.801086,0.656128,
-0.80719,0.62561,
-0.813293,0.602722,
-0.822449,0.601196,
-0.830078,0.642395,
-0.839233,0.656128,
-0.846863,0.588989,
-0.857544,0.595093,
-0.869751,0.602722,
-0.87738,0.645447,
-0.888062,0.639343,
-0.900269,0.624084,
-0.91095,0.601196,
-0.923157,0.59967,
-0.932312,0.637817,
-0.941467,0.657654,
-0.953674,0.627136,
-0.961304,0.58136,
-0.975037,0.601196,
-0.98114,0.636292,
-0.990295,0.656128,
-0.999451,0.622559,
-1.00555,0.593567,
-1.01318,0.604248,
-1.02081,0.637817,
-1.02692,0.657654,
-1.03302,0.624084,
-1.03912,0.592041,
-1.0437,0.601196,
-1.04675,0.637817,
-1.05286,0.654602,
-1.05743,0.624084,
-1.06049,0.590515,
-1.06964,0.601196,
-1.0788,0.637817,
-1.08337,0.660706,
-1.09253,0.624084,
-1.10321,0.587463,
-1.11542,0.602722,
-1.12152,0.631714,
-1.13068,0.654602,
-1.14288,0.614929,
-1.15356,0.592041,
-1.16272,0.601196,
-1.1673,0.645447,
-1.17798,0.653076,
-1.18866,0.622559,
-1.19171,0.593567,
-1.19781,0.601196,
-1.20544,0.642395,
-1.21307,0.656128,
-1.21918,0.627136,
-1.22833,0.595093,
-1.23596,0.605774,
-1.24512,0.622559,
-1.25275,0.65918,
-1.2619,0.622559,
-1.27106,0.598145,
-1.27869,0.602722,
-1.28784,0.640869,
-1.29395,0.656128,
-1.31073,0.621033,
-1.31378,0.6073,
-1.32599,0.608826,
-1.3382,0.634766,
-1.34888,0.654602,
-1.35498,0.616455,
-1.36414,0.592041,
-1.37939,0.610352,
-1.38855,0.637817,
-1.39923,0.653076,
-1.41144,0.616455,
-1.42365,0.576782,
-1.43585,0.608826,
-1.45264,0.637817,
-1.46942,0.657654,
-1.48315,0.605774,
-1.49841,0.587463,
-1.51215,0.604248,
-1.5274,0.653076,
-1.54572,0.668335,
-1.56097,0.608826,
-1.57928,0.584412,
-1.60065,0.602722,
-1.62048,0.637817,
-1.64185,0.656128,
-1.66016,0.610352,
-1.67847,0.58136,
-1.69525,0.601196,
-1.70746,0.634766,
-1.72729,0.65918,
-1.74713,0.611877,
-1.76697,0.590515,
-1.78986,0.578308,
-1.80664,0.637817,
-1.8219,0.657654,
-1.84021,0.616455,
-1.85242,0.588989,
-1.8692,0.604248,
-1.87988,0.639343,
-1.89819,0.662231,
-1.90887,0.619507,
-1.93024,0.593567,
-1.9455,0.59967,
-1.96533,0.637817,
-1.97601,0.662231,
-1.98517,0.602722,
-1.99585,0.598145,
-2.00653,0.604248,
-2.00806,0.637817,
-2.01111,0.660706,
-2.00958,0.614929,
-2.00958,0.595093,
-2.00653,0.587463,
-1.99585,0.642395,
-1.98059,0.657654,
-1.96686,0.62561,
-1.95007,0.593567,
-1.92719,0.6073,
-1.9043,0.639343,
-1.87836,0.654602,
-1.85089,0.627136,
-1.8219,0.592041,
-1.79596,0.6073,
-1.76239,0.640869,
-1.72729,0.65918,
-1.69067,0.622559,
-1.65253,0.582886,
-1.61285,0.604248,
-1.57318,0.627136,
-1.53198,0.65918,
-1.48163,0.63324,
-1.44348,0.582886,
-1.39923,0.608826,
-1.35651,0.639343,
-1.3092,0.662231,
-1.2619,0.627136,
-1.2207,0.579834,
-1.1795,0.6073,
-1.13983,0.640869,
-1.09558,0.660706,
-1.06049,0.627136,
-1.02234,0.58136,
-0.987244,0.605774,
-0.949097,0.637817,
-0.914001,0.660706,
-0.878906,0.627136,
-0.846863,0.582886,
-0.819397,0.602722,
-0.796509,0.640869,
-0.764465,0.662231,
-0.741577,0.63324,
-0.717163,0.58136,
-0.698853,0.602722,
-0.682068,0.636292,
-0.669861,0.665283,
-0.657654,0.634766,
-0.642395,0.592041,
-0.63324,0.604248,
-0.622559,0.634766,
-0.614929,0.646973,
-0.601196,0.642395,
-0.595093,0.585938,
-0.579834,0.604248,
-0.566101,0.637817,
-0.556946,0.662231,
-0.544739,0.637817,
-0.537109,0.590515,
-0.52948,0.616455,
-0.520325,0.639343,
-0.509644,0.662231,
-0.500488,0.637817,
-0.491333,0.585938,
-0.488281,0.6073,
-0.480652,0.642395,
-0.476074,0.665283,
-0.468445,0.637817,
-0.462341,0.590515,
-0.456238,0.613403,
-0.450134,0.640869,
-0.442505,0.660706,
-0.434875,0.642395,
-0.42572,0.588989,
-0.415039,0.608826,
-0.405884,0.640869,
-0.393677,0.662231,
-0.387573,0.640869,
-0.379944,0.588989,
-0.372314,0.601196,
-0.364685,0.639343,
-0.358582,0.665283,
-0.350952,0.645447,
-0.350952,0.587463,
-0.346375,0.608826,
-0.346375,0.634766,
-0.346375,0.714111,
-0.350952,0.613403,
-0.357056,0.592041,
-0.360107,0.610352,
-0.366211,0.640869,
-0.372314,0.660706,
-0.379944,0.642395,
-0.382996,0.579834,
-0.384521,0.572205,
-0.389099,0.640869,
-0.396729,0.660706,
-0.398254,0.645447,
-0.405884,0.588989,
-0.408936,0.6073,
-0.416565,0.639343,
-0.42572,0.721741,
-0.428772,0.645447,
-0.437927,0.601196,
-0.445557,0.605774,
-0.453186,0.640869,
-0.460815,0.665283,
-0.465393,0.640869,
-0.469971,0.592041,
-0.473022,0.605774,
-0.4776,0.643921,
-0.483704,0.666809,
-0.485229,0.646973,
-0.480652,0.592041,
-0.4776,0.601196,
-0.479126,0.640869,
-0.474548,0.669861,
-0.463867,0.642395,
-0.457764,0.590515,
-0.453186,0.611877,
-0.444031,0.640869,
-0.437927,0.668335,
-0.434875,0.642395,
-0.430298,0.588989,
-0.421143,0.598145,
-0.418091,0.640869,
-0.419617,0.668335,
-0.411987,0.642395,
-0.404358,0.590515,
-0.39978,0.604248,
-0.392151,0.636292,
-0.384521,0.672913,
-0.376892,0.645447,
-0.372314,0.592041,
-0.369263,0.598145,
-0.363159,0.645447,
-0.35553,0.666809,
-0.343323,0.653076,
-0.334167,0.590515,
-0.32959,0.595093,
-0.326538,0.643921,
-0.320435,0.671387,
-0.317383,0.645447,
-0.315857,0.590515,
-0.305176,0.601196,
-0.30365,0.640869,
-0.297546,0.675964,
-0.292969,0.648499,
-0.286865,0.593567,
-0.280762,0.601196,
-0.271606,0.642395,
-0.268555,0.674438,
-0.262451,0.645447,
-0.260925,0.593567,
-0.259399,0.601196,
-0.256348,0.640869,
-0.253296,0.671387,
-0.248718,0.648499,
-0.242615,0.588989,
-0.244141,0.608826,
-0.234985,0.642395,
-0.222778,0.674438,
-0.215149,0.650024,
-0.204468,0.592041,
-0.195313,0.602722,
-0.186157,0.643921,
-0.170898,0.67749,
-0.15564,0.65155,
-0.144958,0.593567,
-0.1297,0.602722,
-0.12207,0.643921,
-0.111389,0.675964,
-0.0991821,0.653076,
-0.0900269,0.595093,
-0.0762939,0.598145,
-0.0717163,0.642395,
-0.0610352,0.679016,
-0.0534058,0.65155,
-0.0457764,0.595093,
-0.0457764,0.601196,
-0.0457764,0.646973,
-0.0473022,0.672913,
-0.0534058,0.648499,
-0.062561,0.598145,
-0.0686646,0.578308,
-0.0839233,0.643921,
-0.0900269,0.675964,
-0.102234,0.653076,
-0.119019,0.595093,
-0.137329,0.59967,
-0.15564,0.639343,
-0.180054,0.653076,
-0.198364,0.665283,
-0.221252,0.595093,
-0.239563,0.602722,
-0.268555,0.640869,
-0.289917,0.669861,
-0.314331,0.653076,
-0.340271,0.593567,
-0.364685,0.59967,
-0.392151,0.650024,
-0.416565,0.674438,
-0.440979,0.654602,
-0.465393,0.59967,
-0.483704,0.598145,
-0.511169,0.645447,
-0.532532,0.674438,
-0.553894,0.65155,
-0.578308,0.601196,
-0.59967,0.595093,
-0.622559,0.646973,
-0.645447,0.669861,
-0.666809,0.650024,
-0.692749,0.59967,
-0.712585,0.595093,
-0.730896,0.650024,
-0.753784,0.671387,
-0.775146,0.653076,
-0.796509,0.590515,
-0.819397,0.578308,
-0.843811,0.637817,
-0.868225,0.67749,
-0.888062,0.646973,
-0.91095,0.605774,
-0.935364,0.588989,
-0.9552,0.640869,
-0.975037,0.666809,
-0.999451,0.619507,
-1.01929,0.604248,
-1.0437,0.588989,
-1.06354,0.637817,
-1.0849,0.669861,
-1.10626,0.656128,
-1.12457,0.605774,
-1.14441,0.595093,
-1.15662,0.642395,
-1.17035,0.674438,
-1.1795,0.653076,
-1.18866,0.605774,
-1.19476,0.588989,
-1.20239,0.634766,
-1.21002,0.669861,
-1.21307,0.648499,
-1.21613,0.604248,
-1.21918,0.601196,
-1.2207,0.643921,
-1.2146,0.665283,
-1.21155,0.654602,
-1.21002,0.608826,
-1.2085,0.653076,
-1.20697,0.648499,
-1.19934,0.665283,
-1.19629,0.65155,
-1.19476,0.608826,
-1.19629,0.593567,
-1.19781,0.650024,
-1.19476,0.668335,
-1.19934,0.654602,
-1.20544,0.608826,
-1.21613,0.598145,
-1.22833,0.643921,
-1.23749,0.665283,
-1.25122,0.65918,
-1.26801,0.6073,
-1.28479,0.598145,
-1.30157,0.645447,
-1.31836,0.666809,
-1.33362,0.645447,
-1.35651,0.605774,
-1.37482,0.595093,
-1.38855,0.650024,
-1.40533,0.662231,
-1.41907,0.650024,
-1.4328,0.621033,
-1.44196,0.593567,
-1.45264,0.642395,
-1.45874,0.666809,
-1.46637,0.650024,
-1.47095,0.611877,
-1.48315,0.593567,
-1.48773,0.645447,
-1.49231,0.665283,
-1.50452,0.616455,
-1.51062,0.602722,
-1.5213,0.590515,
-1.53046,0.640869,
-1.53809,0.662231,
-1.54419,0.648499,
-1.54877,0.619507,
-1.54572,0.592041,
-1.54572,0.637817,
-1.54114,0.656128,
-1.54114,0.650024,
-1.53503,0.610352,
-1.5274,0.6073,
-1.51825,0.643921,
-1.50909,0.65918,
-1.49536,0.646973,
-1.48315,0.611877,
-1.46484,0.58136,
-1.4389,0.645447,
-1.41602,0.656128,
-1.38702,0.643921,
-1.36261,0.613403,
-1.33514,0.593567,
-1.30463,0.65155,
-1.27716,0.654602,
-1.24817,0.642395,
-1.21307,0.616455,
-1.18256,0.598145,
-1.15204,0.637817,
-1.12,0.65155,
-1.08948,0.642395,
-1.05743,0.605774,
-1.02692,0.592041,
-0.993347,0.640869,
-0.959778,0.656128,
-0.932312,0.643921,
-0.901794,0.611877,
-0.871277,0.592041,
-0.842285,0.648499,
-0.817871,0.695801,
-0.796509,0.636292,
-0.778198,0.619507,
-0.762939,0.601196,
-0.738525,0.643921,
-0.718689,0.645447,
-0.698853,0.639343,
-0.680542,0.660706,
-0.660706,0.59967,
-0.640869,0.640869,
-0.624084,0.654602,
-0.608826,0.642395,
-0.595093,0.614929,
-0.579834,0.598145,
-0.575256,0.637817,
-0.564575,0.631714,
-0.556946,0.643921,
-0.546265,0.622559,
-0.537109,0.598145,
-0.531006,0.637817,
-0.526428,0.654602,
-0.520325,0.642395,
-0.512695,0.617981,
-0.511169,0.598145,
-0.50354,0.63324,
-0.498962,0.646973,
-0.497437,0.640869,
-0.492859,0.619507,
-0.491333,0.598145,
-0.492859,0.639343,
-0.486755,0.675964,
-0.480652,0.665283,
-0.474548,0.613403,
-0.466919,0.602722,
-0.469971,0.634766,
-0.468445,0.653076,
-0.466919,0.637817,
-0.468445,0.604248,
-0.466919,0.645447,
-0.466919,0.622559,
-0.468445,0.65155,
-0.471497,0.639343,
-0.479126,0.617981,
-0.486755,0.59967,
-0.486755,0.63324,
-0.494385,0.650024,
-0.502014,0.639343,
-0.505066,0.614929,
-0.511169,0.59967,
-0.512695,0.639343,
-0.521851,0.666809,
-0.526428,0.640869,
-0.532532,0.614929,
-0.540161,0.598145,
-0.546265,0.628662,
-0.55542,0.65918,
-0.558472,0.634766,
-0.563049,0.619507,
-0.567627,0.598145,
-0.572205,0.628662,
-0.572205,0.648499,
-0.57373,0.639343,
-0.572205,0.614929,
-0.572205,0.59967,
-0.578308,0.634766,
-0.585938,0.648499,
-0.592041,0.637817,
-0.596619,0.611877,
-0.602722,0.601196,
-0.605774,0.636292,
-0.613403,0.650024,
-0.621033,0.637817,
-0.624084,0.617981,
-0.627136,0.602722,
-0.637817,0.62561,
-0.643921,0.639343,
-0.653076,0.636292,
-0.65918,0.619507,
-0.663757,0.601196,
-0.669861,0.62561,
-0.671387,0.646973,
-0.675964,0.639343,
-0.679016,0.611877,
-0.683594,0.588989,
-0.691223,0.62561,
-0.701904,0.648499,
-0.709534,0.636292,
-0.718689,0.614929,
-0.733948,0.601196,
-0.746155,0.621033,
-0.761414,0.646973,
-0.779724,0.6073,
-0.798035,0.608826,
-0.817871,0.605774,
-0.837708,0.624084,
-0.85144,0.65155,
-0.868225,0.646973,
-0.881958,0.616455,
-0.901794,0.578308,
-0.917053,0.602722,
-0.93689,0.656128,
-0.9552,0.640869,
-0.976563,0.619507,
-0.994873,0.598145,
-1.01471,0.621033,
-1.03607,0.648499,
-1.05743,0.63324,
-1.07727,0.614929,
-1.09406,0.59967,
-1.11237,0.617981,
-1.12762,0.653076,
-1.14288,0.642395,
-1.16119,0.613403,
-1.17798,0.601196,
-1.19476,0.621033,
-1.20697,0.650024,
-1.21765,0.645447,
-1.22986,0.617981,
-1.24207,0.604248,
-1.25122,0.621033,
-1.25732,0.65155,
-1.26495,0.619507,
-1.26953,0.593567,
-1.27716,0.601196,
-1.28326,0.619507,
-1.28784,0.65155,
-1.29852,0.645447,
-1.30005,0.621033,
-1.3031,0.598145,
-1.31226,0.587463,
-1.31226,0.653076,
-1.31531,0.646973,
-1.31683,0.622559,
-1.31683,0.604248,
-1.31531,0.617981,
-1.31683,0.650024,
-1.31989,0.622559,
-1.32294,0.62561,
-1.32141,0.601196,
-1.32294,0.616455,
-1.32446,0.643921,
-1.32751,0.643921,
-1.32599,0.616455,
-1.33209,0.59967,
-1.3382,0.621033,
-1.3382,0.648499,
-1.34583,0.648499,
-1.3504,0.627136,
-1.35651,0.605774,
-1.36566,0.613403,
-1.37177,0.65155,
-1.37787,0.646973,
-1.38397,0.613403,
-1.39313,0.601196,
-1.39923,0.611877,
-1.40228,0.65155,
-1.40533,0.646973,
-1.41602,0.613403,
-1.42365,0.604248,
-1.43127,0.616455,
-1.43433,0.653076,
-1.44196,0.645447,
-1.44806,0.616455,
-1.45721,0.604248,
-1.46179,0.617981,
-1.46942,0.650024,
-1.4801,0.646973,
-1.48773,0.617981,
-1.49536,0.602722,
-1.50299,0.613403,
-1.50604,0.650024,
-1.50909,0.645447,
-1.51978,0.627136,
-1.52588,0.604248,
-1.53198,0.614929,
-1.54266,0.653076,
-1.55334,0.646973,
-1.5625,0.614929,
-1.57776,0.59967,
-1.58691,0.619507,
-1.59302,0.654602,
-1.59912,0.648499,
-1.60675,0.617981,
-1.61285,0.605774,
-1.62048,0.614929,
-1.62964,0.657654,
-1.63727,0.650024,
-1.64337,0.616455,
-1.65558,0.604248,
-1.66321,0.616455,
-1.67389,0.657654,
-1.69067,0.653076,
-1.70135,0.617981,
-1.71204,0.605774,
-1.72882,0.622559,
-1.74103,0.660706,
-1.75934,0.653076,
-1.7746,0.621033,
-1.7868,0.601196,
-1.80206,0.614929,
-1.8158,0.639343,
-1.83258,0.653076,
-1.84784,0.617981,
-1.86005,0.601196,
-1.87531,0.616455,
-1.89362,0.654602,
-1.90887,0.65918,
-1.92108,0.614929,
-1.93024,0.6073,
-1.93939,0.613403,
-1.94702,0.654602,
-1.95923,0.654602,
-1.96838,0.622559,
-1.97601,0.608826,
-1.98669,0.614929,
-2.00043,0.669861,
-2.00806,0.657654,
-2.02179,0.616455,
-2.03247,0.601196,
-2.04163,0.611877,
-2.05078,0.656128,
-2.05994,0.653076,
-2.07062,0.616455,
-2.08435,0.598145,
-2.09351,0.611877,
-2.10266,0.656128,
-2.11029,0.65155,
-2.12097,0.614929,
-2.13318,0.605774,
-2.14386,0.622559,
-2.15302,0.65918,
-2.16217,0.653076,
-2.1759,0.617981,
-2.18506,0.598145,
-2.19116,0.613403,
-2.20642,0.656128,
-2.211,0.657654,
-2.22168,0.619507,
-2.22778,0.601196,
-2.23999,0.613403,
-2.25067,0.65918,
-2.25677,0.657654,
-2.26746,0.621033,
-2.27356,0.608826,
-2.27509,0.617981,
-2.27509,0.656128,
-2.27356,0.656128,
-2.2644,0.621033,
-2.25677,0.602722,
-2.24915,0.619507,
-2.23236,0.662231,
-2.21405,0.65155,
-2.19421,0.619507,
-2.16827,0.59967,
-2.14081,0.616455,
-2.10724,0.657654,
-2.07672,0.642395,
-2.04315,0.624084,
-2.01569,0.59967,
-1.97754,0.617981,
-1.94244,0.665283,
-1.90125,0.65918,
-1.86005,0.622559,
-1.8219,0.601196,
-1.77917,0.619507,
-1.73798,0.65918,
-1.6983,0.662231,
-1.65558,0.624084,
-1.61133,0.605774,
-1.5686,0.619507,
-1.52588,0.656128,
-1.48163,0.662231,
-1.43433,0.62561,
-1.39313,0.602722,
-1.35498,0.63324,
-1.31531,0.665283,
-1.28021,0.662231,
-1.25122,0.62561,
-1.2146,0.604248,
-1.1795,0.616455,
-1.14899,0.65918,
-1.12,0.665283,
-1.08795,0.624084,
-1.06964,0.59967,
-1.04828,0.619507,
-1.02386,0.660706,
-1.00555,0.666809,
-0.985718,0.624084,
-0.965881,0.592041,
-0.950623,0.621033,
-0.93689,0.654602,
-0.921631,0.662231,
-0.914001,0.624084,
-0.906372,0.598145,
-0.898743,0.616455,
-0.889587,0.657654,
-0.881958,0.656128,
-0.87738,0.627136,
-0.87738,0.601196,
-0.874329,0.666809,
-0.871277,0.656128,
-0.87738,0.662231,
-0.878906,0.62561,
-0.881958,0.601196,
-0.88501,0.617981,
-0.889587,0.660706,
-0.898743,0.666809,
-0.906372,0.62561,
-0.915527,0.601196,
-0.923157,0.619507,
-0.93689,0.660706,
-0.944519,0.665283,
-0.953674,0.631714,
-0.965881,0.59967,
-0.975037,0.592041,
-0.987244,0.657654,
-0.994873,0.662231,
-1.00555,0.628662,
-1.01624,0.601196,
-1.02081,0.619507,
-1.02692,0.657654,
-1.0376,0.660706,
-1.04523,0.62561,
-1.05591,0.592041,
-1.06354,0.619507,
-1.06812,0.65918,
-1.07574,0.660706,
-1.08032,0.628662,
-1.08795,0.602722,
-1.091,0.619507,
-1.10321,0.660706,
-1.10474,0.65918,
-1.10626,0.631714,
-1.10931,0.598145,
-1.11237,0.619507,
-1.11237,0.660706,
-1.11542,0.660706,
-1.11542,0.637817,
-1.11847,0.605774,
-1.12152,0.621033,
-1.11542,0.648499,
-1.12,0.660706,
-1.11694,0.627136,
-1.11847,0.59967,
-1.12,0.619507,
-1.12,0.657654,
-1.12,0.662231,
-1.11847,0.608826,
-1.11389,0.604248,
-1.11084,0.621033,
-1.11237,0.665283,
-1.10931,0.665283,
-1.11389,0.631714,
-1.11237,0.611877,
-1.11694,0.604248,
-1.12305,0.65918,
-1.12305,0.665283,
-1.12152,0.627136,
-1.12457,0.608826,
-1.13068,0.622559,
-1.12915,0.660706,
-1.1322,0.65918,
-1.14441,0.62561,
-1.15204,0.604248,
-1.15814,0.622559,
-1.17035,0.65918,
-1.18256,0.662231,
-1.18713,0.627136,
-1.20087,0.604248,
-1.2146,0.63324,
-1.2207,0.65918,
-1.23596,0.666809,
-1.24817,0.616455,
-1.25732,0.611877,
-1.26648,0.631714,
-1.28021,0.662231,
-1.28632,0.666809,
-1.29547,0.624084,
-1.30463,0.608826,
-1.31683,0.631714,
-1.33057,0.65918,
-1.33972,0.662231,
-1.35193,0.628662,
-1.36261,0.610352,
-1.37939,0.63324,
-1.39008,0.671387,
-1.39771,0.668335,
-1.41449,0.62561,
-1.4267,0.595093,
-1.43738,0.68512,
-1.44958,0.645447,
-1.46637,0.666809,
-1.48315,0.624084,
-1.49384,0.610352,
-1.51062,0.637817,
-1.52588,0.666809,
-1.53809,0.660706,
-1.55334,0.62561,
-1.5625,0.602722,
-1.57166,0.63324,
-1.58386,0.65918,
-1.5976,0.660706,
-1.6098,0.628662,
-1.62354,0.6073,
-1.63422,0.634766,
-1.6449,0.665283,
-1.64795,0.662231,
-1.65863,0.62561,
-1.66626,0.6073,
-1.67847,0.636292,
-1.69067,0.660706,
-1.6983,0.65918,
-1.71051,0.628662,
-1.72424,0.608826,
-1.73798,0.636292,
-1.75018,0.65918,
-1.76392,0.660706,
-1.7746,0.624084,
-1.78528,0.608826,
-1.80206,0.637817,
-1.81274,0.662231,
-1.82648,0.660706,
-1.83716,0.628662,
-1.84631,0.6073,
-1.85852,0.654602,
-1.8692,0.65155,
-1.88141,0.65918,
-1.89667,0.62561,
-1.90735,0.6073,
-1.92413,0.642395,
-1.93787,0.671387,
-1.94702,0.660706,
-1.96533,0.62561,
-1.97754,0.608826,
-1.99738,0.639343,
-2.00806,0.675964,
-2.02026,0.662231,
-2.034,0.624084,
-2.04773,0.593567,
-2.06146,0.639343,
-2.0813,0.672913,
-2.09503,0.660706,
-2.11182,0.628662,
-2.12555,0.608826,
-2.14081,0.621033,
-2.15149,0.669861,
-2.1637,0.65918,
-2.1759,0.624084,
-2.18658,0.6073,
-2.19574,0.642395,
-2.21252,0.665283,
-2.21863,0.65918,
-2.23236,0.621033,
-2.24457,0.6073,
-2.2583,0.639343,
-2.26288,0.662231,
-2.27356,0.65918,
-2.28729,0.624084,
-2.29492,0.605774,
-2.31018,0.640869,
-2.32391,0.645447,
-2.3407,0.660706,
-2.35443,0.621033,
-2.36816,0.605774,
-2.37885,0.640869,
-2.38953,0.660706,
-2.40021,0.671387,
-2.41547,0.631714,
-2.43378,0.6073,
-2.44904,0.645447,
-2.46124,0.665283,
-2.47345,0.656128,
-2.48413,0.602722,
-2.49786,0.55542,
-2.50854,0.646973,
-2.52533,0.674438,
-2.52991,0.656128,
-2.53906,0.617981,
-2.55127,0.6073,
-2.56042,0.642395,
-2.56805,0.62561,
-2.57721,0.645447,
-2.58636,0.622559,
-2.58789,0.601196,
-2.59552,0.645447,
-2.59247,0.679016,
-2.59247,0.65155,
-2.58636,0.622559,
-2.58484,0.569153,
-2.57568,0.645447,
-2.56042,0.67749,
-2.54364,0.660706,
-2.52991,0.621033,
-2.51312,0.59967,
-2.49023,0.643921,
-2.46582,0.669861,
-2.43988,0.65918,
-2.41547,0.621033,
-2.38647,0.601196,
-2.35443,0.645447,
-2.32239,0.665283,
-2.28882,0.660706,
-2.25677,0.621033,
-2.22321,0.59967,
-2.18811,0.645447,
-2.15454,0.662231,
-2.11945,0.660706,
-2.07977,0.619507,
-2.04163,0.598145,
-2.01111,0.639343,
-1.96991,0.660706,
-1.93481,0.656128,
-1.90277,0.622559,
-1.87073,0.601196,
-1.84021,0.642395,
-1.80664,0.662231,
-1.7746,0.657654,
-1.75171,0.622559,
-1.72729,0.598145,
-1.70441,0.637817,
-1.68152,0.665283,
-1.67236,0.65918,
-1.65863,0.624084,
-1.64948,0.59967,
-1.64337,0.637817,
-1.63727,0.669861,
-1.63269,0.65918,
-1.62964,0.619507,
-1.62659,0.59967,
-1.62811,0.634766,
-1.62811,0.674438,
-1.63269,0.656128,
-1.63269,0.621033,
-1.63574,0.605774,
-1.64185,0.640869,
-1.64337,0.674438,
-1.65863,0.662231,
-1.66779,0.624084,
-1.67694,0.601196,
-1.6861,0.636292,
-1.69067,0.662231,
-1.69525,0.660706,
-1.70593,0.622559,
-1.70746,0.595093,
-1.71356,0.627136,
-1.72577,0.671387,
-1.73035,0.662231,
-1.74408,0.63324,
-1.75171,0.598145,
-1.76239,0.639343,
-1.77002,0.669861,
-1.78223,0.715637,
-1.79443,0.610352,
-1.80359,0.579834,
-1.8158,0.624084,
-1.8219,0.668335,
-1.83105,0.653076,
-1.83411,0.608826,
-1.83868,0.595093,
-1.84326,0.621033,
-1.85394,0.666809,
-1.85852,0.654602,
-1.86462,0.619507,
-1.87225,0.593567,
-1.87836,0.622559,
-1.88293,0.669861,
-1.88904,0.653076,
-1.89362,0.617981,
-1.9043,0.593567,
-1.9104,0.622559,
-1.9165,0.665283,
-1.91956,0.654602,
-1.92413,0.621033,
-1.92719,0.595093,
-1.92871,0.621033,
-1.92871,0.660706,
-1.92719,0.654602,
-1.92413,0.617981,
-1.9165,0.566101,
-1.91193,0.622559,
-1.9043,0.666809,
-1.89972,0.654602,
-1.89819,0.619507,
-1.89056,0.593567,
-1.88599,0.622559,
-1.87988,0.665283,
-1.87836,0.657654,
-1.87378,0.619507,
-1.87225,0.587463,
-1.87073,0.619507,
-1.86615,0.654602,
-1.86462,0.653076,
-1.85394,0.622559,
-1.85852,0.587463,
-1.85394,0.619507,
-1.84937,0.666809,
-1.84631,0.654602,
-1.84631,0.617981,
-1.84631,0.590515,
-1.84479,0.619507,
-1.84326,0.669861,
-1.84326,0.65155,
-1.84631,0.616455,
-1.85089,0.588989,
-1.86005,0.619507,
-1.86462,0.662231,
-1.8692,0.65918,
-1.87836,0.617981,
-1.88904,0.592041,
-1.90125,0.62561,
-1.90735,0.650024,
-1.91803,0.653076,
-1.93024,0.605774,
-1.94397,0.588989,
-1.95313,0.616455,
-1.9577,0.672913,
-1.96686,0.650024,
-1.97754,0.616455,
-1.98364,0.604248,
-1.9989,0.617981,
-2.00958,0.668335,
-2.01874,0.653076,
-2.02789,0.616455,
-2.03552,0.584412,
-2.0462,0.619507,
-2.05536,0.669861,
-2.06451,0.656128,
-2.07214,0.617981,
-2.0813,0.587463,
-2.08893,0.611877,
-2.10419,0.65918,
-2.11334,0.65918,
-2.12402,0.616455,
-2.1347,0.584412,
-2.14691,0.611877,
-2.15759,0.666809,
-2.16827,0.657654,
-2.17743,0.617981,
-2.18811,0.582886,
-2.19727,0.613403,
-2.20337,0.665283,
-2.211,0.657654,
-2.21558,0.613403,
-2.22015,0.585938,
-2.22931,0.627136,
-2.23389,0.660706,
-2.23846,0.65918,
-2.24152,0.614929,
-2.25067,0.582886,
-2.25372,0.608826,
-2.26135,0.65918,
-2.25983,0.657654,
-2.25983,0.619507,
-2.2644,0.598145,
-2.27203,0.611877,
-2.27661,0.65918,
-2.28424,0.654602,
-2.28729,0.617981,
-2.2934,0.584412,
-2.29797,0.6073,
-2.30865,0.662231,
-2.31323,0.656128,
-2.32239,0.614929,
-2.33002,0.579834,
-2.3407,0.6073,
-2.34375,0.662231,
-2.35443,0.666809,
-2.36359,0.616455,
-2.36969,0.582886,
-2.38037,0.611877,
-2.39258,0.656128,
-2.40326,0.654602,
-2.41241,0.616455,
-2.4292,0.58136,
-2.43683,0.608826,
-2.44751,0.65918,
-2.45819,0.656128,
-2.46735,0.614929,
-2.48108,0.579834,
-2.48871,0.608826,
-2.49634,0.657654,
-2.50244,0.65918,
-2.50854,0.614929,
-2.5177,0.579834,
-2.52533,0.605774,
-2.53448,0.65918,
-2.54669,0.646973,
-2.55585,0.613403,
-2.56653,0.579834,
-2.57568,0.6073,
-2.58789,0.65918,
-2.59857,0.672913,
-2.6123,0.614929,
-2.62604,0.579834,
-2.63367,0.605774,
-2.64587,0.656128,
-2.66113,0.656128,
-2.67334,0.605774,
-2.68555,0.58136,
-2.70233,0.610352,
-2.71759,0.65918,
-2.73132,0.657654,
-2.74353,0.616455,
-2.75574,0.58136,
-2.76947,0.605774,
-2.78015,0.65918,
-2.78931,0.656128,
-2.80151,0.616455,
-2.80762,0.578308,
-2.82135,0.605774,
-2.82745,0.657654,
-2.83966,0.662231,
-2.85187,0.6073,
-2.8595,0.578308,
-2.86865,0.602722,
-2.87781,0.654602,
-2.88544,0.65918,
-2.89917,0.610352,
-2.90985,0.576782,
-2.91748,0.605774,
-2.93274,0.656128,
-2.94037,0.65918,
-2.9541,0.611877,
-2.96631,0.58136,
-2.97852,0.602722,
-2.98767,0.654602,
-3.00598,0.65918,
-3.01514,0.613403,
-3.02429,0.578308,
-3.03497,0.604248,
-3.04413,0.653076,
-3.05786,0.657654,
-3.07312,0.608826,
-3.0838,0.58136,
-3.09296,0.602722,
-3.10516,0.642395,
-3.10974,0.675964,
-3.12042,0.614929,
-3.12653,0.582886,
-3.13873,0.611877,
-3.14789,0.654602,
-3.15399,0.665283,
-3.15704,0.613403,
-3.1662,0.582886,
-3.17078,0.572205,
-3.18146,0.656128,
-3.18604,0.660706,
-3.19519,0.608826,
-3.20282,0.587463,
-3.20892,0.601196,
-3.21503,0.65155,
-3.22113,0.666809,
-3.23029,0.610352,
-3.23639,0.584412,
-3.24707,0.587463,
-3.25165,0.646973,
-3.25928,0.65918,
-3.2608,0.608826,
-3.26385,0.587463,
-3.26538,0.6073,
-3.26996,0.648499,
-3.26538,0.660706,
-3.26538,0.613403,
-3.25623,0.587463,
-3.25165,0.602722,
-3.23944,0.646973,
-3.22113,0.660706,
-3.20282,0.611877,
-3.18298,0.585938,
-3.15857,0.610352,
-3.13416,0.646973,
-3.10364,0.660706,
-3.07312,0.613403,
-3.03802,0.588989,
-3.0014,0.6073,
-2.96478,0.639343,
-2.91901,0.657654,
-2.87476,0.613403,
-2.83203,0.587463,
-2.7832,0.610352,
-2.73895,0.645447,
-2.69165,0.671387,
-2.63977,0.616455,
-2.59247,0.582886,
-2.54059,0.605774,
-2.49329,0.642395,
-2.44751,0.657654,
-2.40479,0.613403,
-2.36206,0.569153,
-2.32239,0.610352,
-2.27966,0.643921,
-2.24152,0.65155,
-2.211,0.604248,
-2.17743,0.58136,
-2.14233,0.614929,
-2.11182,0.624084,
-2.0813,0.662231,
-2.05994,0.610352,
-2.0401,0.588989,
-2.01416,0.608826,
-1.99127,0.643921,
-1.97144,0.657654,
-1.9516,0.611877,
-1.93634,0.604248,
-1.92108,0.610352,
-1.90887,0.643921,
-1.89514,0.660706,
-1.88141,0.619507,
-1.87225,0.592041,
-1.86157,0.6073,
-1.85242,0.642395,
-1.83868,0.657654,
-1.83258,0.602722,
-1.82953,0.593567,
-1.82037,0.608826,
-1.81122,0.640869,
-1.80359,0.656128,
-1.80054,0.608826,
-1.79596,0.610352,
-1.79443,0.605774,
-1.79291,0.695801,
-1.79291,0.637817,
-1.78986,0.614929,
-1.78986,0.598145,
-1.78986,0.621033,
-1.78375,0.640869,
-1.78375,0.657654,
-1.7868,0.621033,
-1.79138,0.598145,
-1.78528,0.614929,
-1.78375,0.637817,
-1.78375,0.656128,
-1.7807,0.616455,
-1.78375,0.598145,
-1.78528,0.614929,
-1.78375,0.622559,
-1.7807,0.660706,
-1.77917,0.621033,
-1.7807,0.595093,
-1.77612,0.614929,
-1.77612,0.637817,
-1.77917,0.654602,
-1.77612,0.613403,
-1.77765,0.601196,
-1.7746,0.619507,
-1.77307,0.63324,
-1.7746,0.65918,
-1.7746,0.621033,
-1.77155,0.593567,
-1.77307,0.613403,
-1.76544,0.640869,
-1.76544,0.653076,
-1.76544,0.616455,
-1.76697,0.59967,
-1.76544,0.6073,
-1.76392,0.637817,
-1.76392,0.654602,
-1.76392,0.608826,
-1.76239,0.567627,
-1.76392,0.616455,
-1.76239,0.634766,
-1.76086,0.656128,
-1.75781,0.627136,
-1.75171,0.604248,
-1.74866,0.610352,
-1.74713,0.639343,
-1.74713,0.656128,
-1.74561,0.62561,
-1.75018,0.602722,
-1.74866,0.619507,
-1.75171,0.640869,
-1.75476,0.653076,
-1.75781,0.624084,
-1.76239,0.605774,
-1.76392,0.617981,
-1.76697,0.639343,
-1.76849,0.654602,
-1.76697,0.624084,
-1.7746,0.601196,
-1.77765,0.616455,
-1.7807,0.637817,
-1.78528,0.653076,
-1.7807,0.621033,
-1.78528,0.601196,
-1.79138,0.62561,
-1.79596,0.639343,
-1.79749,0.653076,
-1.79901,0.624084,
-1.80359,0.608826,
-1.80817,0.617981,
-1.81122,0.639343,
-1.81885,0.665283,
-1.82953,0.62561,
-1.83258,0.59967,
-1.83563,0.622559,
-1.84479,0.63324,
-1.85089,0.654602,
-1.85242,0.624084,
-1.85547,0.601196,
-1.86157,0.619507,
-1.86615,0.642395,
-1.87073,0.656128,
-1.87531,0.622559,
-1.88446,0.604248,
-1.89056,0.616455,
-1.9043,0.639343,
-1.91345,0.653076,
-1.91956,0.631714,
-1.92719,0.604248,
-1.93787,0.614929,
-1.94702,0.634766,
-1.95313,0.653076,
-1.96228,0.631714,
-1.96838,0.6073,
-1.97296,0.617981,
-1.98059,0.640869,
-1.98212,0.653076,
-1.99127,0.63324,
-1.99738,0.602722,
-2.00195,0.613403,
-2.00653,0.639343,
-2.00806,0.654602,
-2.00806,0.63324,
-2.01263,0.6073,
-2.01874,0.614929,
-2.02484,0.637817,
-2.02637,0.654602,
-2.03094,0.636292,
-2.034,0.613403,
-2.03857,0.621033,
-2.04468,0.639343,
-2.04773,0.65918,
-2.05994,0.640869,
-2.06909,0.604248,
-2.07825,0.616455,
-2.0874,0.650024,
-2.09045,0.65918,
-2.10114,0.637817,
-2.11182,0.604248,
-2.11639,0.619507,
-2.12402,0.640869,
-2.1347,0.656128,
-2.14081,0.636292,
-2.14844,0.6073,
-2.15759,0.611877,
-2.17285,0.640869,
-2.18048,0.656128,
-2.18811,0.634766,
-2.20184,0.604248,
-2.211,0.614929,
-2.22168,0.642395,
-2.23083,0.656128,
-2.24152,0.637817,
-2.24762,0.601196,
-2.25983,0.614929,
-2.27509,0.640869,
-2.28729,0.653076,
-2.2934,0.640869,
-2.30713,0.59967,
-2.31476,0.616455,
-2.32086,0.639343,
-2.32697,0.656128,
-2.33307,0.639343,
-2.34222,0.602722,
-2.34528,0.6073,
-2.3468,0.640869,
-2.35138,0.653076,
-2.35443,0.640869,
-2.35901,0.636292,
-2.35748,0.642395,
-2.36359,0.634766,
-2.36359,0.656128,
-2.36511,0.636292,
-2.36816,0.608826,
-2.36969,0.616455,
-2.37579,0.643921,
-2.37885,0.640869,
-2.37885,0.648499,
-2.38647,0.605774,
-2.39258,0.616455,
-2.40021,0.640869,
-2.40936,0.65155,
-2.41852,0.645447,
-2.42767,0.601196,
-2.43835,0.610352,
-2.44904,0.637817,
-2.46124,0.653076,
-2.47955,0.642395,
-2.49939,0.6073,
-2.51923,0.608826,
-2.53906,0.639343,
-2.565,0.656128,
-2.58179,0.645447,
-2.60162,0.601196,
-2.62451,0.610352,
-2.6535,0.639343,
-2.67181,0.657654,
-2.69623,0.642395,
-2.72217,0.59967,
-2.74506,0.611877,
-2.77252,0.642395,
-2.79236,0.65918,
-2.8183,0.645447,
-2.84424,0.595093,
-2.87018,0.611877,
-2.89917,0.636292,
-2.92816,0.656128,
-2.96173,0.646973,
-2.9892,0.601196,
-3.01971,0.613403,
-3.04565,0.640869,
-3.06854,0.654602,
-3.0899,0.648499,
-3.11432,0.6073,
-3.14026,0.6073,
-3.1601,0.637817,
-3.18146,0.65155,
-3.20587,0.643921,
-3.22266,0.602722,
-3.24554,0.608826,
-3.25623,0.637817,
-3.26385,0.65155,
-3.27606,0.646973,
-3.27911,0.602722,
-3.28522,0.605774,
-3.28369,0.645447,
-3.27911,0.660706,
-3.27606,0.648499,
-3.26538,0.59967,
-3.2547,0.610352,
-3.24707,0.640869,
-3.23334,0.656128,
-3.22266,0.648499,
-3.2074,0.602722,
-3.19366,0.617981,
-3.17688,0.640869,
-3.15399,0.654602,
-3.13721,0.648499,
-3.11127,0.602722,
-3.08685,0.605774,
-3.05786,0.639343,
-3.03497,0.656128,
-3.00903,0.648499,
-2.98462,0.59967,
-2.95258,0.611877,
-2.92816,0.637817,
-2.90222,0.656128,
-2.87476,0.636292,
-2.84882,0.602722,
-2.82135,0.604248,
-2.79388,0.642395,
-2.76642,0.656128,
-2.74048,0.648499,
-2.70996,0.598145,
-2.68402,0.587463,
-2.65961,0.634766,
-2.63214,0.65155,
-2.60925,0.645447,
-2.58179,0.59967,
-2.5528,0.605774,
-2.5238,0.636292,
-2.49329,0.654602,
-2.45972,0.639343,
-2.43378,0.585938,
-2.40479,0.59967,
-2.37427,0.63324,
-2.34375,0.653076,
-2.31018,0.637817,
-2.28119,0.59967,
-2.24915,0.604248,
-2.21405,0.59967,
-2.1759,0.650024,
-2.14539,0.640869,
-2.10876,0.598145,
-2.07214,0.601196,
-2.03552,0.634766,
-1.99127,0.650024,
-1.9455,0.653076,
-1.89667,0.608826,
-1.85089,0.604248,
-1.79749,0.63324,
-1.74713,0.653076,
-1.69373,0.640869,
-1.63727,0.59967,
-1.57623,0.601196,
-1.5152,0.637817,
-1.45264,0.654602,
-1.39008,0.646973,
-1.32751,0.59967,
-1.26038,0.602722,
-1.19476,0.63324,
-1.1261,0.65155,
-1.06354,0.646973,
-0.999451,0.59967,
-0.93689,0.602722,
-0.872803,0.634766,
-0.813293,0.654602,
-0.752258,0.642395,
-0.697327,0.59967,
-0.648499,0.59967,
-0.605774,0.634766,
-0.564575,0.65155,
-0.527954,0.640869,
-0.50354,0.598145,
-0.4776,0.601196,
-0.457764,0.611877,
-0.444031,0.654602,
-0.430298,0.645447,
-0.422668,0.602722,
-0.418091,0.601196,
-0.418091,0.63324,
-0.42572,0.657654,
-0.430298,0.640869,
-0.444031,0.59967,
-0.462341,0.602722,
-0.489807,0.634766,
-0.514221,0.653076,
-0.544739,0.642395,
-0.578308,0.598145,
-0.614929,0.598145,
-0.657654,0.614929,
-0.697327,0.654602,
-0.744629,0.637817,
-0.790405,0.59967,
-0.843811,0.601196,
-0.892639,0.627136,
-0.944519,0.656128,
-1.00098,0.648499,
-1.05286,0.588989,
-1.10474,0.602722,
-1.16119,0.631714,
-1.21307,0.65918,
-1.26495,0.643921,
-1.31531,0.598145,
-1.36261,0.59967,
-1.41449,0.614929,
-1.46179,0.657654,
-1.51062,0.642395,
-1.5564,0.59967,
-1.59607,0.598145,
-1.64185,0.631714,
-1.68762,0.654602,
-1.7334,0.639343,
-1.77155,0.593567,
-1.81274,0.601196,
-1.85852,0.631714,
-1.89819,0.654602,
-1.93634,0.640869,
-1.97296,0.598145,
-2.00653,0.59967,
-2.03705,0.628662,
-2.06146,0.654602,
-2.0874,0.637817,
-2.11182,0.598145,
-2.12708,0.601196,
-2.14539,0.628662,
-2.15912,0.656128,
-2.16827,0.640869,
-2.17743,0.59967,
-2.18506,0.593567,
-2.18201,0.604248,
-2.18506,0.654602,
-2.17896,0.639343,
-2.17285,0.593567,
-2.1698,0.59967,
-2.15454,0.628662,
-2.13928,0.650024,
-2.12402,0.639343,
-2.10419,0.592041,
-2.08588,0.595093,
-2.05841,0.634766,
-2.03705,0.65155,
-2.00806,0.639343,
-1.98059,0.593567,
-1.9577,0.59967,
-1.93024,0.62561,
-1.9043,0.653076,
-1.87836,0.636292,
-1.85394,0.592041,
-1.82953,0.598145,
-1.80359,0.62561,
-1.78375,0.653076,
-1.76697,0.636292,
-1.74408,0.590515,
-1.72577,0.598145,
-1.71204,0.628662,
-1.69525,0.65155,
-1.67999,0.636292,
-1.65863,0.593567,
-1.64642,0.610352,
-1.63422,0.634766,
-1.62048,0.648499,
-1.60828,0.636292,
-1.59454,0.595093,
-1.58691,0.601196,
-1.57318,0.628662,
-1.56097,0.65155,
-1.54877,0.63324,
-1.53503,0.595093,
-1.5213,0.601196,
-1.50604,0.628662,
-1.49536,0.65155,
-1.48468,0.63324,
-1.47247,0.604248,
-1.46179,0.598145,
-1.45264,0.628662,
-1.43738,0.617981,
-1.42822,0.62561,
-1.42059,0.592041,
-1.40533,0.6073,
-1.39771,0.6073,
-1.3916,0.646973,
-1.37939,0.624084,
-1.37482,0.590515,
-1.36871,0.578308,
-1.36414,0.627136,
-1.35956,0.648499,
-1.35803,0.62561,
-1.36108,0.588989,
-1.36414,0.595093,
-1.37024,0.628662,
-1.37787,0.65155,
-1.3855,0.624084,
-1.39923,0.590515,
-1.41144,0.593567,
-1.4267,0.631714,
-1.44806,0.646973,
-1.46027,0.624084,
-1.47552,0.588989,
-1.49536,0.598145,
-1.5152,0.63324,
-1.53503,0.648499,
-1.55945,0.62561,
-1.58081,0.592041,
-1.6098,0.601196,
-1.63727,0.634766,
-1.66626,0.627136,
-1.69678,0.624084,
-1.72424,0.595093,
-1.75934,0.595093,
-1.78528,0.631714,
-1.81427,0.622559,
-1.84021,0.621033,
-1.86768,0.592041,
-1.88904,0.598145,
-1.91803,0.631714,
-1.94397,0.645447,
-1.96991,0.622559,
-1.99738,0.572205,
-2.02332,0.598145,
-2.04926,0.628662,
-2.07672,0.646973,
-2.10419,0.619507,
-2.13013,0.590515,
-2.14996,0.593567,
-2.17285,0.627136,
-2.19116,0.643921,
-2.211,0.617981,
-2.22778,0.587463,
-2.24457,0.593567,
-2.26135,0.628662,
-2.27814,0.648499,
-2.28882,0.614929,
-2.30255,0.582886,
-2.31781,0.595093,
-2.33307,0.631714,
-2.34528,0.650024,
-2.35291,0.616455,
-2.36511,0.582886,
-2.36969,0.593567,
-2.3819,0.631714,
-2.38495,0.65155,
-2.38953,0.614929,
-2.38953,0.584412,
-2.39258,0.593567,
-2.39105,0.631714,
-2.39258,0.648499,
-2.39105,0.617981,
-2.38953,0.585938,
-2.38953,0.595093,
-2.38495,0.628662,
-2.3819,0.631714,
-2.37732,0.616455,
-2.36816,0.590515,
-2.36206,0.59967,
-2.35748,0.616455,
-2.34833,0.639343,
-2.3407,0.616455,
-2.32849,0.553894,
-2.32391,0.595093,
-2.31781,0.636292,
-2.31018,0.65155,
-2.2995,0.613403,
-2.29645,0.592041,
-2.28882,0.595093,
-2.28729,0.643921,
-2.27814,0.65155,
-2.27966,0.616455,
-2.27814,0.588989,
-2.27509,0.59967,
-2.27203,0.636292,
-2.27203,0.650024,
-2.27356,0.605774,
-2.27661,0.563049,
-2.27509,0.59967,
-2.27966,0.631714,
-2.27509,0.639343,
-2.27966,0.608826,
-2.27814,0.579834,
-2.27966,0.593567,
-2.27661,0.631714,
-2.27661,0.646973,
-2.27661,0.605774,
-2.27661,0.585938,
-2.27661,0.602722,
-2.27966,0.627136,
-2.27966,0.648499,
-2.28424,0.593567,
-2.27966,0.58136,
-2.28119,0.592041,
-2.28424,0.63324,
-2.28119,0.654602,
-2.28577,0.605774,
-2.28882,0.579834,
-2.29492,0.595093,
-2.30255,0.657654,
-2.31171,0.650024,
-2.31476,0.614929,
-2.32544,0.582886,
-2.33459,0.590515,
-2.34833,0.634766,
-2.36053,0.640869,
-2.37732,0.605774,
-2.39105,0.584412,
-2.40631,0.590515,
-2.42462,0.631714,
-2.44293,0.654602,
-2.45972,0.608826,
-2.48108,0.588989,
-2.49786,0.58136,
-2.52075,0.634766,
-2.54822,0.65155,
-2.565,0.613403,
-2.59399,0.590515,
-2.62299,0.593567,
-2.65198,0.631714,
-2.67944,0.653076,
-2.71149,0.611877,
-2.73895,0.588989,
-2.771,0.598145,
-2.79846,0.634766,
-2.82135,0.650024,
-2.84882,0.614929,
-2.87476,0.585938,
-2.89917,0.595093,
-2.92358,0.628662,
-2.9541,0.668335,
-2.97699,0.616455,
-3.00293,0.58136,
-3.02734,0.601196,
-3.04718,0.63324,
-3.06702,0.653076,
-3.08228,0.617981,
-3.10211,0.576782,
-3.11737,0.595093,
-3.13416,0.628662,
-3.14484,0.653076,
-3.1601,0.616455,
-3.17383,0.575256,
-3.18298,0.604248,
-3.18604,0.637817,
-3.19214,0.654602,
-3.18604,0.608826,
-3.18451,0.538635,
-3.17688,0.588989,
-3.17078,0.65155,
-3.15704,0.654602,
-3.14331,0.624084,
-3.12347,0.57373,
-3.09906,0.592041,
-3.07312,0.634766,
-3.04413,0.634766,
-3.01819,0.62561,
-2.98004,0.579834,
-2.94342,0.593567,
-2.90527,0.631714,
-2.8595,0.657654,
-2.8183,0.62561,
-2.77557,0.595093,
-2.73132,0.578308,
-2.6886,0.617981,
-2.63977,0.65155,
-2.59247,0.627136,
-2.54822,0.579834,
-2.49939,0.601196,
-2.45056,0.631714,
-2.40326,0.653076,
-2.35443,0.627136,
-2.31018,0.582886,
-2.26135,0.593567,
-2.22321,0.628662,
-2.17896,0.653076,
-2.13928,0.622559,
-2.10419,0.582886,
-2.06757,0.592041,
-2.03552,0.63324,
-2.005,0.653076,
-1.97601,0.627136,
-1.95007,0.569153,
-1.92413,0.598145,
-1.89667,0.634766,
-1.87683,0.645447,
-1.8631,0.628662,
-1.84174,0.58136,
-1.82495,0.602722,
-1.80817,0.631714,
-1.79138,0.621033,
-1.7807,0.63324,
-1.76849,0.579834,
-1.75476,0.598145,
-1.75018,0.624084,
-1.74408,0.656128,
-1.7334,0.627136,
-1.73035,0.576782,
-1.72424,0.598145,
-1.72272,0.643921,
-1.72119,0.656128,
-1.71509,0.631714,
-1.71204,0.576782,
-1.71051,0.602722,
-1.70441,0.628662,
-1.70593,0.65918,
-1.70593,0.636292,
-1.70441,0.58136,
-1.70441,0.598145,
-1.70898,0.628662,
-1.70898,0.656128,
-1.71356,0.634766,
-1.71356,0.579834,
-1.71661,0.598145,
-1.71509,0.63324,
-1.71661,0.660706,
-1.72272,0.646973,
-1.71814,0.579834,
-1.72119,0.598145,
-1.72272,0.63324,
-1.71661,0.665283,
-1.71509,0.631714,
-1.71356,0.576782,
-1.71204,0.598145,
-1.70593,0.634766,
-1.6983,0.660706,
-1.69678,0.628662,
-1.6922,0.576782,
-1.6861,0.593567,
-1.67542,0.63324,
-1.67542,0.660706,
-1.66626,0.63324,
-1.65863,0.58136,
-1.64948,0.595093,
-1.64032,0.62561,
-1.63422,0.65918,
-1.62811,0.631714,
-1.62354,0.578308,
-1.61438,0.592041,
-1.60675,0.637817,
-1.60675,0.65918,
-1.5976,0.636292,
-1.59302,0.582886,
-1.58844,0.593567,
-1.58844,0.640869,
-1.57928,0.665283,
-1.57623,0.682068,
-1.57166,0.582886,
-1.57623,0.593567,
-1.57318,0.631714,
-1.57471,0.668335,
-1.57623,0.634766,
-1.57623,0.57373,
-1.58081,0.588989,
-1.58081,0.631714,
-1.58386,0.662231,
-1.58844,0.636292,
-1.58844,0.582886,
-1.59302,0.585938,
-1.5976,0.63324,
-1.6037,0.660706,
-1.60828,0.639343,
-1.61133,0.578308,
-1.62201,0.588989,
-1.62354,0.634766,
-1.62811,0.665283,
-1.63116,0.637817,
-1.63574,0.58136,
-1.63574,0.588989,
-1.64032,0.63324,
-1.64795,0.662231,
-1.64642,0.636292,
-1.64795,0.576782,
-1.65558,0.585938,
-1.65558,0.631714,
-1.65863,0.653076,
-1.66016,0.639343,
-1.66626,0.578308,
-1.67236,0.588989,
-1.67542,0.63324,
-1.67999,0.666809,
-1.68762,0.640869,
-1.68762,0.576782,
-1.6922,0.592041,
-1.69373,0.637817,
-1.69983,0.669861,
-1.70288,0.640869,
-1.70593,0.588989,
-1.71051,0.587463,
-1.71204,0.631714,
-1.71509,0.669861,
-1.71814,0.642395,
-1.72577,0.587463,
-1.72272,0.588989,
-1.72729,0.636292,
-1.72577,0.665283,
-1.72424,0.642395,
-1.73035,0.58136,
-1.73645,0.588989,
-1.73035,0.634766,
-1.73492,0.665283,
-1.73798,0.640869,
-1.74255,0.584412,
-1.74408,0.585938,
-1.74713,0.631714,
-1.75171,0.665283,
-1.74561,0.642395,
-1.75018,0.584412,
-1.75171,0.585938,
-1.76239,0.634766,
-1.75781,0.662231,
-1.75934,0.643921,
-1.76392,0.58136,
-1.76392,0.587463,
-1.77307,0.631714,
-1.7746,0.65918,
-1.78223,0.634766,
-1.79138,0.58136,
-1.79901,0.585938,
-1.80969,0.62561,
-1.81885,0.660706,
-1.82648,0.639343,
-1.83563,0.582886,
-1.84631,0.588989,
-1.85242,0.628662,
-1.86615,0.657654,
-1.87378,0.640869,
-1.88751,0.579834,
-1.89667,0.628662,
-1.90582,0.621033,
-1.91193,0.657654,
-1.92261,0.642395,
-1.92871,0.584412,
-1.93939,0.587463,
-1.95465,0.63324,
-1.97144,0.706482,
-1.98517,0.642395,
-1.9989,0.595093,
-2.01569,0.575256,
-2.02637,0.627136,
-2.04163,0.665283,
-2.05078,0.637817,
-2.06451,0.593567,
-2.0813,0.587463,
-2.09198,0.643921,
-2.10571,0.65918,
-2.12097,0.640869,
-2.1347,0.588989,
-2.14844,0.592041,
-2.16827,0.631714,
-2.18353,0.657654,
-2.19727,0.640869,
-2.211,0.587463,
-2.22778,0.58136,
-2.24457,0.631714,
-2.26135,0.645447,
-2.27966,0.640869,
-2.29797,0.587463,
-2.31018,0.58136,
-2.33154,0.595093,
-2.34985,0.656128,
-2.36359,0.642395,
-2.388,0.57373,
-2.40631,0.58136,
-2.42615,0.634766,
-2.44751,0.645447,
-2.46277,0.640869,
-2.47803,0.588989,
-2.49176,0.582886,
-2.50244,0.634766,
-2.5177,0.654602,
-2.52838,0.642395,
-2.53754,0.588989,
-2.5528,0.584412,
-2.5589,0.631714,
-2.57111,0.654602,
-2.58179,0.642395,
-2.58942,0.592041,
-2.59399,0.579834,
-2.59705,0.634766,
-2.59705,0.656128,
-2.60162,0.639343,
-2.6062,0.592041,
-2.60773,0.576782,
-2.61841,0.63324,
-2.61993,0.65155,
-2.62604,0.640869,
-2.63214,0.590515,
-2.6413,0.592041,
-2.64435,0.628662,
-2.65198,0.653076,
-2.65961,0.639343,
-2.66418,0.588989,
-2.66113,0.58136,
-2.66418,0.631714,
-2.66876,0.653076,
-2.67029,0.63324,
-2.67334,0.595093,
-2.66876,0.579834,
-2.67181,0.619507,
-2.67334,0.639343,
-2.66876,0.605774,
-2.67029,0.595093,
-2.67334,0.584412,
-2.67487,0.628662,
-2.67487,0.65155,
-2.67944,0.639343,
-2.68555,0.593567,
-2.69165,0.58136,
-2.6947,0.627136,
-2.69775,0.657654,
-2.70081,0.616455,
-2.71149,0.601196,
-2.71759,0.58136,
-2.72217,0.614929,
-2.72217,0.65155,
-2.72522,0.636292,
-2.72675,0.593567,
-2.72675,0.579834,
-2.72369,0.628662,
-2.71759,0.646973,
-2.70844,0.637817,
-2.70081,0.593567,
-2.68097,0.579834,
-2.66571,0.627136,
-2.64893,0.648499,
-2.62604,0.636292,
-2.6062,0.598145,
-2.57721,0.579834,
-2.54974,0.631714,
-2.5177,0.648499,
-2.48413,0.634766,
-2.44598,0.595093,
-2.40631,0.579834,
-2.36359,0.627136,
-2.32086,0.645447,
-2.28119,0.628662,
-2.23694,0.598145,
-2.19727,0.579834,
-2.14691,0.631714,
-2.10419,0.645447,
-2.05688,0.634766,
-2.00958,0.601196,
-1.96381,0.582886,
-1.92108,0.628662,
-1.87988,0.642395,
-1.84021,0.628662,
-1.80206,0.602722,
-1.76086,0.579834,
-1.72882,0.628662,
-1.69373,0.642395,
-1.65405,0.622559,
-1.62354,0.575256,
-1.59302,0.558472,
-1.56708,0.631714,
-1.53656,0.645447,
-1.51062,0.63324,
-1.48926,0.602722,
-1.46637,0.58136,
-1.44043,0.628662,
-1.42212,0.605774,
-1.40076,0.617981,
-1.38855,0.601196,
-1.37024,0.582886,
-1.35803,0.624084,
-1.3443,0.645447,
-1.32751,0.624084,
-1.31989,0.653076,
-1.30463,0.584412,
-1.29547,0.624084,
-1.28632,0.642395,
-1.27106,0.631714,
-1.26343,0.605774,
-1.25427,0.582886,
-1.24359,0.624084,
-1.23291,0.642395,
-1.23138,0.627136,
-1.22681,0.604248,
-1.22681,0.58136,
-1.22833,0.628662,
-1.22833,0.642395,
-1.22833,0.622559,
-1.22986,0.605774,
-1.23291,0.582886,
-1.23291,0.621033,
-1.24207,0.640869,
-1.24207,0.622559,
-1.23749,0.602722,
-1.24969,0.584412,
-1.25885,0.62561,
-1.25885,0.639343,
-1.26038,0.621033,
-1.26648,0.601196,
-1.26343,0.587463,
-1.26648,0.622559,
-1.27411,0.634766,
-1.27563,0.621033,
-1.28174,0.601196,
-1.27869,0.582886,
-1.28021,0.624084,
-1.27716,0.642395,
-1.27411,0.621033,
-1.27563,0.604248,
-1.26648,0.587463,
-1.26648,0.616455,
-1.25427,0.650024,
-1.25427,0.621033,
-1.24207,0.595093,
-1.23291,0.582886,
-1.22833,0.62561,
-1.21765,0.645447,
-1.2085,0.602722,
-1.19476,0.614929,
-1.18408,0.593567,
-1.17188,0.617981,
-1.16272,0.639343,
-1.15204,0.619507,
-1.13831,0.59967,
-1.1261,0.582886,
-1.12,0.631714,
-1.10779,0.640869,
-1.09558,0.619507,
-1.08948,0.598145,
-1.08185,0.582886,
-1.07727,0.613403,
-1.07422,0.640869,
-1.05896,0.616455,
-1.06201,0.576782,
-1.05133,0.559998,
-1.0498,0.611877,
-1.0498,0.636292,
-1.04675,0.627136,
-1.04675,0.598145,
-1.04828,0.592041,
-1.04828,0.616455,
-1.04828,0.63324,
-1.05438,0.616455,
-1.05438,0.601196,
-1.05438,0.58136,
-1.05743,0.613403,
-1.06049,0.637817,
-1.06201,0.627136,
-1.06201,0.598145,
-1.06049,0.575256,
-1.05743,0.613403,
-1.06201,0.640869,
-1.06354,0.624084,
-1.06506,0.59967,
-1.07117,0.585938,
-1.07727,0.610352,
-1.0788,0.637817,
-1.08185,0.622559,
-1.08185,0.59967,
-1.0849,0.582886,
-1.08795,0.608826,
-1.09406,0.636292,
-1.09711,0.621033,
-1.10321,0.59967,
-1.10779,0.58136,
-1.11237,0.608826,
-1.12457,0.634766,
-1.12762,0.624084,
-1.13983,0.614929,
-1.14594,0.582886,
-1.15051,0.602722,
-1.15204,0.636292,
-1.16272,0.62561,
-1.17188,0.604248,
-1.18103,0.576782,
-1.19324,0.598145,
-1.20239,0.634766,
-1.2085,0.627136,
-1.2207,0.602722,
-1.22833,0.584412,
-1.24054,0.605774,
-1.24359,0.634766,
-1.25122,0.628662,
-1.25427,0.601196,
-1.26648,0.58136,
-1.27411,0.604248,
-1.28021,0.634766,
-1.28784,0.631714,
-1.29089,0.602722,
-1.29852,0.585938,
-1.29852,0.622559,
-1.30615,0.691223,
-1.31378,0.619507,
-1.31836,0.59967,
-1.32446,0.584412,
-1.32599,0.601196,
-1.33362,0.640869,
-1.33514,0.604248,
-1.34583,0.602722,
-1.35498,0.58136,
-1.36108,0.605774,
-1.36566,0.637817,
-1.37177,0.63324,
-1.38092,0.592041,
-1.3916,0.58136,
-1.40076,0.602722,
-1.40533,0.640869,
-1.41602,0.636292,
-1.42059,0.602722,
-1.4328,0.584412,
-1.44196,0.614929,
-1.45416,0.642395,
-1.46332,0.63324,
-1.47095,0.602722,
-1.47552,0.585938,
-1.48621,0.604248,
-1.49078,0.640869,
-1.49689,0.627136,
-1.50299,0.601196,
-1.5152,0.601196,
-1.52435,0.608826,
-1.5274,0.628662,
-1.53503,0.602722,
-1.54419,0.604248,
-1.55029,0.585938,
-1.5564,0.59967,
-1.56097,0.628662,
-1.57013,0.63324,
-1.57471,0.602722,
-1.57776,0.587463,
-1.58386,0.604248,
-1.58691,0.637817,
-1.59302,0.637817,
-1.59912,0.605774,
-1.60522,0.585938,
-1.61285,0.604248,
-1.62048,0.646973,
-1.62659,0.634766,
-1.63727,0.602722,
-1.64642,0.587463,
-1.66016,0.602722,
-1.67084,0.640869,
-1.67999,0.628662,
-1.6861,0.602722,
-1.69678,0.59967,
-1.70898,0.6073,
-1.71661,0.639343,
-1.72729,0.636292,
-1.7334,0.610352,
-1.7395,0.587463,
-1.75171,0.601196,
-1.75781,0.643921,
-1.77002,0.640869,
-1.77765,0.604248,
-1.78986,0.587463,
-1.79749,0.593567,
-1.80969,0.646973,
-1.82037,0.63324,
-1.83258,0.604248,
-1.84021,0.592041,
-1.85089,0.601196,
-1.86005,0.642395,
-1.86615,0.642395,
-1.87225,0.604248,
-1.88141,0.590515,
-1.89514,0.59967,
-1.90582,0.640869,
-1.91803,0.636292,
-1.92871,0.608826,
-1.93634,0.590515,
-1.94702,0.602722,
-1.95007,0.646973,
-1.95923,0.642395,
-1.96228,0.608826,
-1.96533,0.585938,
-1.96533,0.602722,
-1.95618,0.643921,
-1.95007,0.640869,
-1.94397,0.602722,
-1.93634,0.631714,
-1.91803,0.563049,
-1.89819,0.637817,
-1.87378,0.640869,
-1.84937,0.608826,
-1.8219,0.592041,
-1.79443,0.605774,
-1.76239,0.640869,
-1.72577,0.645447,
-1.6922,0.578308,
-1.65253,0.595093,
-1.61285,0.59967,
-1.57013,0.645447,
-1.5274,0.645447,
-1.48315,0.587463,
-1.43585,0.593567,
-1.38702,0.602722,
-1.33514,0.648499,
-1.28479,0.648499,
-1.22986,0.613403,
-1.17798,0.590515,
-1.12,0.585938,
-1.06506,0.65918,
-1.01166,0.646973,
-0.965881,0.608826,
-0.915527,0.593567,
-0.871277,0.6073,
-0.828552,0.648499,
-0.785828,0.646973,
-0.744629,0.613403,
-0.712585,0.590515,
-0.679016,0.6073,
-0.646973,0.654602,
-0.622559,0.656128,
-0.593567,0.616455,
-0.570679,0.592041,
-0.546265,0.616455,
-0.531006,0.648499,
-0.512695,0.65155,
-0.498962,0.579834,
-0.485229,0.593567,
-0.471497,0.613403,
-0.45929,0.654602,
-0.445557,0.654602,
-0.434875,0.614929,
-0.422668,0.611877,
-0.410461,0.613403,
-0.401306,0.617981,
-0.395203,0.650024,
-0.387573,0.621033,
-0.384521,0.593567,
-0.382996,0.613403,
-0.38147,0.654602,
-0.38147,0.656128,
-0.376892,0.6073,
-0.379944,0.598145,
-0.38147,0.6073,
-0.382996,0.654602,
-0.389099,0.666809,
-0.398254,0.621033,
-0.408936,0.59967,
-0.416565,0.614929,
-0.419617,0.656128,
-0.427246,0.65918,
-0.428772,0.6073,
-0.439453,0.59967,
-0.442505,0.613403,
-0.444031,0.654602,
-0.450134,0.660706,
-0.448608,0.616455,
-0.453186,0.59967,
-0.456238,0.613403,
-0.450134,0.65155,
-0.454712,0.656128,
-0.457764,0.639343,
-0.456238,0.6073,
-0.456238,0.613403,
-0.454712,0.660706,
-0.453186,0.654602,
-0.448608,0.624084,
-0.440979,0.595093,
-0.436401,0.587463,
-0.431824,0.656128,
-0.424194,0.662231,
-0.424194,0.627136,
-0.415039,0.590515,
-0.40741,0.617981,
-0.393677,0.65918,
-0.387573,0.669861,
-0.38147,0.616455,
-0.370789,0.595093,
-0.364685,0.619507,
-0.35553,0.65918,
-0.346375,0.657654,
-0.334167,0.627136,
-0.328064,0.59967,
-0.320435,0.616455,
-0.312805,0.65918,
-0.305176,0.660706,
-0.302124,0.624084,
-0.297546,0.602722,
-0.291443,0.621033,
-0.289917,0.65918,
-0.285339,0.662231,
-0.282288,0.631714,
-0.280762,0.602722,
-0.27771,0.617981,
-0.280762,0.666809,
-0.27771,0.657654,
-0.279236,0.627136,
-0.280762,0.602722,
-0.283813,0.617981,
-0.286865,0.660706,
-0.288391,0.669861,
-0.288391,0.62561,
-0.291443,0.602722,
-0.294495,0.621033,
-0.297546,0.654602,
-0.300598,0.660706,
-0.305176,0.634766,
-0.308228,0.604248,
-0.320435,0.616455,
-0.323486,0.662231,
-0.323486,0.660706,
-0.32959,0.63324,
-0.334167,0.592041,
-0.340271,0.619507,
-0.350952,0.657654,
-0.360107,0.662231,
-0.372314,0.63324,
-0.382996,0.601196,
-0.395203,0.62561,
-0.410461,0.662231,
-0.424194,0.666809,
-0.440979,0.63324,
-0.456238,0.604248,
-0.471497,0.621033,
-0.485229,0.662231,
-0.498962,0.669861,
-0.512695,0.631714,
-0.531006,0.6073,
-0.541687,0.631714,
-0.559998,0.662231,
-0.576782,0.666809,
-0.590515,0.628662,
-0.605774,0.6073,
-0.624084,0.628662,
-0.637817,0.666809,
-0.65155,0.665283,
-0.666809,0.631714,
-0.679016,0.605774,
-0.694275,0.627136,
-0.708008,0.71106,
-0.720215,0.666809,
-0.732422,0.631714,
-0.747681,0.604248,
-0.761414,0.62561,
-0.775146,0.660706,
-0.784302,0.675964,
-0.788879,0.639343,
-0.801086,0.6073,
-0.810242,0.63324,
-0.817871,0.656128,
-0.831604,0.665283,
-0.837708,0.63324,
-0.852966,0.6073,
-0.869751,0.636292,
-0.88501,0.665283,
-0.898743,0.668335,
-0.914001,0.634766,
-0.930786,0.610352,
-0.944519,0.674438,
-0.959778,0.679016,
-0.970459,0.666809,
-0.984192,0.634766,
-0.993347,0.6073,
-1.01166,0.63324,
-1.02692,0.665283,
-1.04828,0.656128,
-1.06812,0.611877,
-1.08032,0.611877,
-1.09558,0.634766,
-1.11237,0.668335,
-1.1261,0.662231,
-1.14288,0.627136,
-1.15662,0.608826,
-1.17035,0.640869,
-1.18256,0.683594,
-1.19171,0.668335,
-1.2085,0.636292,
-1.21918,0.610352,
-1.23291,0.646973,
-1.24359,0.665283,
-1.25275,0.668335,
-1.26648,0.628662,
-1.27716,0.610352,
-1.28632,0.642395,
-1.29395,0.666809,
-1.31073,0.669861,
-1.31836,0.627136,
-1.33209,0.6073,
-1.34583,0.640869,
-1.36108,0.668335,
-1.37329,0.669861,
-1.39465,0.628662,
-1.41144,0.611877,
-1.42975,0.642395,
-1.44348,0.669861,
-1.46027,0.668335,
-1.47247,0.62561,
-1.48468,0.613403,
-1.50146,0.640869,
-1.51672,0.668335,
-1.5274,0.666809,
-1.54114,0.634766,
-1.55334,0.613403,
-1.56708,0.642395,
-1.57776,0.717163,
-1.59149,0.666809,
-1.60675,0.634766,
-1.62048,0.608826,
-1.63116,0.648499,
-1.64337,0.674438,
-1.65405,0.674438,
-1.66473,0.608826,
-1.67236,0.610352,
-1.69067,0.650024,
-1.69983,0.67749,
-1.70898,0.665283,
-1.71661,0.631714,
-1.73035,0.611877,
-1.74408,0.645447,
-1.75018,0.720215,
-1.76239,0.666809,
-1.76697,0.631714,
-1.7746,0.611877,
-1.78986,0.642395,
-1.79443,0.672913,
-1.80206,0.650024,
-1.80969,0.631714,
-1.81885,0.616455,
-1.83105,0.642395,
-1.84021,0.671387,
-1.84631,0.665283,
-1.86005,0.627136,
-1.86768,0.608826,
-1.88141,0.648499,
-1.88904,0.671387,
-1.89667,0.666809,
-1.90887,0.628662,
-1.9165,0.610352,
-1.92871,0.653076,
-1.93787,0.650024,
-1.94702,0.660706,
-1.9577,0.636292,
-1.96838,0.605774,
-1.98212,0.704956,
-1.98822,0.660706,
-1.9989,0.672913,
-2.00653,0.627136,
-2.01416,0.6073,
-2.01874,0.650024,
-2.02026,0.654602,
-2.01721,0.65918,
-2.01416,0.631714,
-2.00348,0.610352,
-1.98975,0.653076,
-1.97144,0.671387,
-1.94855,0.665283,
-1.92108,0.619507,
-1.89362,0.605774,
-1.85547,0.650024,
-1.8219,0.675964,
-1.78223,0.666809,
-1.74103,0.627136,
-1.69678,0.6073,
-1.6449,0.654602,
-1.59302,0.680542,
-1.53503,0.660706,
-1.48163,0.62561,
-1.42365,0.604248,
-1.36414,0.654602,
-1.30005,0.680542,
-1.24512,0.666809,
-1.18408,0.62561,
-1.12457,0.613403,
-1.06812,0.656128,
-1.00861,0.679016,
-0.946045,0.668335,
-0.892639,0.627136,
-0.842285,0.604248,
-0.784302,0.65155,
-0.735474,0.675964,
-0.694275,0.666809,
-0.648499,0.610352,
-0.611877,0.605774,
-0.57373,0.653076,
-0.537109,0.666809,
-0.500488,0.662231,
-0.465393,0.627136,
-0.434875,0.6073,
-0.404358,0.637817,
-0.376892,0.662231,
-0.349426,0.668335,
-0.331116,0.624084,
-0.305176,0.604248,
-0.286865,0.646973,
-0.271606,0.666809,
-0.25177,0.668335,
-0.239563,0.62561,
-0.227356,0.605774,
-0.219727,0.608826,
-0.212097,0.671387,
-0.205994,0.671387,
-0.204468,0.627136,
-0.19989,0.604248,
-0.190735,0.643921,
-0.184631,0.662231,
-0.180054,0.665283,
-0.167847,0.59967,
-0.169373,0.598145,
-0.170898,0.645447,
-0.169373,0.675964,
-0.175476,0.665283,
-0.180054,0.62561,
-0.180054,0.604248,
-0.186157,0.642395,
-0.190735,0.674438,
-0.196838,0.660706,
-0.201416,0.62561,
-0.204468,0.601196,
-0.210571,0.627136,
-0.212097,0.68512,
-0.219727,0.660706,
-0.22583,0.622559,
-0.233459,0.601196,
-0.238037,0.639343,
-0.242615,0.67749,
-0.247192,0.662231,
-0.253296,0.628662,
-0.256348,0.590515,
-0.262451,0.639343,
-0.267029,0.67749,
-0.271606,0.666809,
-0.271606,0.619507,
-0.270081,0.59967,
-0.268555,0.631714,
-0.265503,0.688171,
-0.263977,0.657654,
-0.263977,0.619507,
-0.262451,0.616455,
-0.256348,0.637817,
-0.254822,0.672913,
-0.253296,0.665283,
-0.247192,0.62561,
-0.245667,0.595093,
-0.247192,0.628662,
-0.239563,0.674438,
-0.234985,0.662231,
-0.234985,0.62561,
-0.234985,0.602722,
-0.233459,0.628662,
-0.230408,0.671387,
-0.227356,0.65918,
-0.219727,0.617981,
-0.216675,0.59967,
-0.213623,0.627136,
-0.210571,0.671387,
-0.209045,0.662231,
-0.204468,0.619507,
-0.202942,0.59967,
-0.210571,0.624084,
-0.215149,0.674438,
-0.218201,0.65918,
-0.221252,0.622559,
-0.222778,0.598145,
-0.234985,0.628662,
-0.239563,0.669861,
-0.247192,0.65918,
-0.253296,0.622559,
-0.262451,0.595093,
-0.273132,0.622559,
-0.282288,0.672913,
-0.292969,0.657654,
-0.30365,0.621033,
-0.314331,0.595093,
-0.323486,0.624084,
-0.331116,0.669861,
-0.337219,0.65918,
-0.341797,0.62561,
-0.349426,0.598145,
-0.358582,0.619507,
-0.361633,0.671387,
-0.37384,0.660706,
-0.386047,0.622559,
-0.398254,0.593567,
-0.408936,0.621033,
-0.421143,0.669861,
-0.436401,0.660706,
-0.448608,0.622559,
-0.457764,0.593567,
-0.476074,0.622559,
-0.489807,0.668335,
-0.50354,0.65918,
-0.518799,0.619507,
-0.527954,0.593567,
-0.544739,0.621033,
-0.559998,0.671387,
-0.570679,0.657654,
-0.585938,0.619507,
-0.602722,0.592041,
-0.614929,0.614929,
-0.627136,0.669861,
-0.637817,0.656128,
-0.653076,0.617981,
-0.669861,0.588989,
-0.683594,0.616455,
-0.698853,0.672913,
-0.709534,0.65918,
-0.718689,0.616455,
-0.737,0.592041,
-0.749207,0.627136,
-0.764465,0.666809,
-0.773621,0.636292,
-0.784302,0.621033,
-0.799561,0.584412,
-0.80719,0.616455,
-0.816345,0.660706,
-0.822449,0.662231,
-0.839233,0.616455,
-0.846863,0.584412,
-0.862122,0.616455,
-0.874329,0.672913,
-0.888062,0.665283,
-0.904846,0.621033,
-0.915527,0.587463,
-0.930786,0.614929,
-0.947571,0.665283,
-0.961304,0.653076,
-0.98114,0.621033,
-0.999451,0.585938,
-1.01624,0.617981,
-1.02997,0.666809,
-1.0498,0.656128,
-1.06812,0.631714,
-1.08185,0.590515,
-1.10474,0.614929,
-1.12152,0.665283,
-1.13831,0.65918,
-1.15509,0.616455,
-1.17493,0.582886,
-1.19019,0.595093,
-1.20697,0.660706,
-1.22375,0.65155,
-1.23596,0.619507,
-1.24969,0.582886,
-1.26038,0.608826,
-1.26953,0.660706,
-1.28632,0.662231,
-1.29547,0.611877,
-1.30463,0.584412,
-1.31683,0.613403,
-1.32751,0.665283,
-1.34277,0.665283,
-1.35193,0.617981,
-1.36261,0.584412,
-1.37787,0.6073,
-1.3855,0.660706,
-1.39465,0.665283,
-1.40381,0.616455,
-1.41602,0.584412,
-1.42517,0.611877,
-1.43433,0.665283,
-1.44196,0.657654,
-1.45416,0.617981,
-1.46637,0.582886,
-1.474,0.669861,
-1.48773,0.660706,
-1.49841,0.65918,
-1.50757,0.614929,
-1.5213,0.579834,
-1.53198,0.592041,
-1.54114,0.660706,
-1.55334,0.660706,
-1.56708,0.621033,
-1.57776,0.585938,
-1.58997,0.610352,
-1.60065,0.646973,
-1.61438,0.65155,
-1.62201,0.613403,
-1.62659,0.588989,
-1.63574,0.605774,
-1.64185,0.680542,
-1.65405,0.657654,
-1.66321,0.605774,
-1.67236,0.595093,
-1.68304,0.6073,
-1.69678,0.657654,
-1.70593,0.65918,
-1.71661,0.613403,
-1.72882,0.58136,
-1.74408,0.608826,
-1.75934,0.637817,
-1.76697,0.656128,
-1.7807,0.614929,
-1.79138,0.58136,
-1.80511,0.604248,
-1.81122,0.657654,
-1.82037,0.654602,
-1.83411,0.610352,
-1.84326,0.579834,
-1.85089,0.602722,
-1.86462,0.653076,
-1.87683,0.668335,
-1.89056,0.622559,
-1.90582,0.582886,
-1.91956,0.604248,
-1.93634,0.65155,
-1.94702,0.656128,
-1.96381,0.614929,
-1.97906,0.58136,
-1.98975,0.602722,
-2.00806,0.648499,
-2.01874,0.657654,
-2.03857,0.610352,
-2.04468,0.578308,
-2.06146,0.601196,
-2.07672,0.653076,
-2.08893,0.660706,
-2.09961,0.611877,
-2.11639,0.582886,
-2.13013,0.604248,
-2.14233,0.650024,
-2.15302,0.657654,
-2.16827,0.613403,
-2.18658,0.582886,
-2.19574,0.604248,
-2.20947,0.650024,
-2.22321,0.660706,
-2.23236,0.605774,
-2.24609,0.582886,
-2.25983,0.604248,
-2.27356,0.653076,
-2.28729,0.660706,
-2.30103,0.610352,
-2.31171,0.579834,
-2.32239,0.601196,
-2.32697,0.640869,
-2.32697,0.660706,
-2.32391,0.610352,
-2.31934,0.584412,
-2.31018,0.602722,
-2.29645,0.646973,
-2.27966,0.660706,
-2.25525,0.608826,
-2.23389,0.582886,
-2.20947,0.601196,
-2.17896,0.650024,
-2.14539,0.65918,
-2.10419,0.616455,
-2.06604,0.587463,
-2.02179,0.6073,
-1.97906,0.636292,
-1.93024,0.657654,
-1.88141,0.6073,
-1.828,0.584412,
-1.77612,0.601196,
-1.71356,0.646973,
-1.66016,0.665283,
-1.60217,0.605774,
-1.54266,0.584412,
-1.48468,0.604248,
-1.42822,0.650024,
-1.37482,0.665283,
-1.31683,0.614929,
-1.2619,0.584412,
-1.21307,0.6073,
-1.15814,0.645447,
-1.10474,0.662231,
-1.05591,0.592041,
-1.01318,0.585938,
-0.968933,0.6073,
-0.926208,0.650024,
-0.886536,0.65918,
-0.85144,0.616455,
-0.817871,0.567627,
-0.78125,0.584412,
-0.747681,0.628662,
-0.721741,0.660706,
-0.689697,0.616455,
-0.665283,0.590515,
-0.640869,0.613403,
-0.614929,0.643921,
-0.593567,0.660706,
-0.572205,0.6073,
-0.547791,0.576782,
-0.531006,0.613403,
-0.512695,0.6073,
-0.495911,0.656128,
-0.480652,0.613403,
-0.466919,0.592041,
-0.456238,0.6073,
-0.437927,0.639343,
-0.422668,0.657654,
-0.408936,0.611877,
-0.396729,0.590515,
-0.38147,0.613403,
-0.363159,0.616455,
-0.343323,0.682068,
-0.326538,0.613403,
-0.317383,0.59967,
-0.297546,0.610352,
-0.286865,0.634766,
-0.271606,0.665283,
-0.262451,0.584412,
-0.254822,0.593567,
-0.247192,0.595093,
-0.236511,0.640869,
-0.230408,0.656128,
-0.227356,0.610352,
-0.224304,0.584412,
-0.227356,0.605774,
-0.222778,0.645447,
-0.221252,0.653076,
-0.224304,0.605774,
-0.224304,0.588989,
-0.22583,0.608826,
-0.22583,0.63324,
-0.22583,0.654602,
-0.228882,0.610352,
-0.233459,0.593567,
-0.238037,0.608826,
-0.245667,0.634766,
-0.248718,0.65155,
-0.250244,0.593567,
-0.253296,0.590515,
-0.256348,0.608826,
-0.262451,0.636292,
-0.263977,0.65155,
-0.262451,0.608826,
-0.262451,0.590515,
-0.257874,0.610352,
-0.256348,0.628662,
-0.250244,0.656128,
-0.239563,0.613403,
-0.234985,0.590515,
-0.228882,0.610352,
-0.222778,0.65155,
-0.215149,0.650024,
-0.210571,0.610352,
-0.19989,0.584412,
-0.201416,0.608826,
-0.198364,0.63324,
-0.198364,0.648499,
-0.196838,0.610352,
-0.198364,0.59967,
-0.202942,0.6073,
-0.204468,0.640869,
-0.209045,0.654602,
-0.212097,0.614929,
-0.219727,0.592041,
-0.227356,0.608826,
-0.242615,0.63324,
-0.257874,0.648499,
-0.270081,0.624084,
-0.288391,0.588989,
-0.30365,0.608826,
-0.320435,0.619507,
-0.335693,0.627136,
-0.360107,0.613403,
-0.384521,0.595093,
-0.40741,0.619507,
-0.42572,0.628662,
-0.444031,0.646973,
-0.462341,0.616455,
-0.479126,0.590515,
-0.494385,0.610352,
-0.517273,0.631714,
-0.532532,0.648499,
-0.547791,0.614929,
-0.559998,0.590515,
-0.576782,0.6073,
-0.592041,0.628662,
-0.59967,0.648499,
-0.613403,0.614929,
-0.62561,0.590515,
-0.636292,0.604248,
-0.643921,0.628662,
-0.656128,0.643921,
-0.660706,0.611877,
-0.671387,0.585938,
-0.68512,0.611877,
-0.700378,0.639343,
-0.712585,0.646973,
-0.733948,0.619507,
-0.746155,0.598145,
-0.767517,0.610352,
-0.782776,0.63324,
-0.794983,0.648499,
-0.808716,0.624084,
-0.819397,0.601196,
-0.83313,0.614929,
-0.846863,0.634766,
-0.85907,0.648499,
-0.871277,0.621033,
-0.886536,0.59967,
-0.90332,0.617981,
-0.915527,0.631714,
-0.930786,0.650024,
-0.944519,0.622559,
-0.964355,0.598145,
-0.976563,0.611877,
-0.991821,0.63324,
-1.01013,0.650024,
-1.02081,0.619507,
-1.03912,0.561523,
-1.05591,0.595093,
-1.06964,0.637817,
-1.0849,0.645447,
-1.09863,0.63324,
-1.11237,0.592041,
-1.12457,0.6073,
-1.13373,0.668335,
-1.14594,0.650024,
-1.15967,0.628662,
-1.17035,0.593567,
-1.18408,0.611877,
-1.19781,0.639343,
-1.21307,0.654602,
-1.22833,0.62561,
-1.24054,0.593567,
-1.2558,0.611877,
-1.26953,0.628662,
-1.27869,0.646973,
-1.29242,0.627136,
-1.31378,0.598145,
-1.32904,0.610352,
-1.34735,0.631714,
-1.36261,0.648499,
-1.37939,0.628662,
-1.39923,0.604248,
-1.41602,0.6073,
-1.42822,0.636292,
-1.44043,0.65155,
-1.45874,0.62561,
-1.4679,0.595093,
-1.48621,0.6073,
-1.49994,0.640869,
-1.5152,0.646973,
-1.52588,0.624084,
-1.54114,0.578308,
-1.5564,0.604248,
-1.57623,0.631714,
-1.59302,0.645447,
-1.6098,0.624084,
-1.62811,0.592041,
-1.6449,0.608826,
-1.65863,0.631714,
-1.67542,0.645447,
-1.68762,0.636292,
-1.69983,0.592041,
-1.71204,0.6073,
-1.72729,0.628662,
-1.73798,0.645447,
-1.74408,0.63324,
-1.75171,0.590515,
-1.75629,0.605774,
-1.76392,0.631714,
-1.77155,0.650024,
-1.7807,0.628662,
-1.79291,0.593567,
-1.79901,0.6073,
-1.81274,0.642395,
-1.82037,0.648499,
-1.83258,0.634766,
-1.84021,0.598145,
-1.85394,0.610352,
-1.8631,0.63324,
-1.87378,0.65918,
-1.87988,0.643921,
-1.89667,0.59967,
-1.9043,0.6073,
-1.91345,0.646973,
-1.92261,0.650024,
-1.93481,0.640869,
-1.94244,0.601196,
-1.95618,0.608826,
-1.96838,0.639343,
-1.97296,0.656128,
-1.98212,0.639343,
-1.99738,0.582886,
-2.00653,0.608826,
-2.01874,0.636292,
-2.03094,0.650024,
-2.04468,0.634766,
-2.05688,0.59967,
-2.07214,0.604248,
-2.08282,0.63324,
-2.10114,0.660706,
-2.11487,0.634766,
-2.12708,0.595093,
-2.14081,0.610352,
-2.15302,0.634766,
-2.16064,0.645447,
-2.17133,0.634766,
-2.18048,0.592041,
-2.18811,0.602722,
-2.19727,0.63324,
-2.20184,0.642395,
-2.21252,0.636292,
-2.22473,0.585938,
-2.23389,0.604248,
-2.24304,0.613403,
-2.25525,0.642395,
-2.2583,0.63324,
-2.27356,0.585938,
-2.27814,0.59967,
-2.28729,0.628662,
-2.29492,0.640869,
-2.30255,0.63324,
-2.30865,0.590515,
-2.32086,0.601196,
-2.33612,0.62561,
-2.3468,0.639343,
-2.35901,0.636292,
-2.37122,0.584412,
-2.38342,0.598145,
-2.3941,0.628662,
-2.40631,0.640869,
-2.41852,0.631714,
-2.4292,0.584412,
-2.44293,0.601196,
-2.45209,0.628662,
-2.46124,0.640869,
-2.47192,0.639343,
-2.48566,0.584412,
-2.49176,0.59967,
-2.49939,0.62561,
-2.50244,0.639343,
-2.50702,0.640869,
-2.51312,0.590515,
-2.51312,0.592041,
-2.5116,0.62561,
-2.5116,0.642395,
-2.50244,0.62561,
-2.49786,0.582886,
-2.48413,0.595093,
-2.47345,0.62561,
-2.45361,0.639343,
-2.42615,0.628662,
-2.40631,0.585938,
-2.37885,0.592041,
-2.34375,0.622559,
-2.30255,0.639343,
-2.25983,0.631714,
-2.211,0.584412,
-2.1637,0.592041,
-2.11639,0.624084,
-2.05841,0.643921,
-2.00806,0.631714,
-1.94702,0.584412,
-1.89514,0.590515,
-1.83411,0.601196,
-1.77612,0.639343,
-1.72119,0.631714,
-1.66168,0.582886,
-1.60828,0.590515,
-1.55182,0.624084,
-1.49689,0.637817,
-1.4389,0.627136,
-1.3855,0.608826,
-1.33362,0.590515,
-1.28479,0.619507,
-1.24207,0.640869,
-1.20087,0.62561,
-1.15967,0.585938,
-1.12305,0.588989,
-1.08643,0.624084,
-1.05133,0.642395,
-1.01929,0.62561,
-0.994873,0.582886,
-0.971985,0.587463,
-0.949097,0.621033,
-0.924683,0.642395,
-0.906372,0.627136,
-0.891113,0.579834,
-0.872803,0.590515,
-0.85907,0.621033,
-0.843811,0.645447,
-0.831604,0.627136,
-0.827026,0.58136,
-0.816345,0.588989,
-0.804138,0.622559,
-0.794983,0.645447,
-0.787354,0.627136,
-0.782776,0.582886,
-0.776672,0.582886,
-0.775146,0.616455,
-0.770569,0.640869,
-0.769043,0.645447,
-0.767517,0.585938,
-0.767517,0.585938,
-0.764465,0.621033,
-0.767517,0.640869,
-0.770569,0.627136,
-0.770569,0.585938,
-0.778198,0.584412,
-0.779724,0.616455,
-0.782776,0.650024,
-0.787354,0.628662,
-0.796509,0.584412,
-0.801086,0.584412,
-0.808716,0.619507,
-0.814819,0.646973,
-0.820923,0.624084,
-0.823975,0.584412,
-0.834656,0.587463,
-0.842285,0.617981,
-0.848389,0.640869,
-0.85144,0.622559,
-0.857544,0.584412,
-0.85907,0.587463,
-0.862122,0.624084,
-0.866699,0.637817,
-0.871277,0.627136,
-0.878906,0.58136,
-0.881958,0.582886,
-0.881958,0.621033,
-0.888062,0.642395,
-0.892639,0.62561,
-0.901794,0.569153,
-0.904846,0.540161,
-0.898743,0.611877,
-0.900269,0.631714,
-0.900269,0.628662,
-0.895691,0.585938,
-0.891113,0.59967,
-0.889587,0.613403,
-0.883484,0.639343,
-0.874329,0.627136,
-0.868225,0.567627,
-0.865173,0.588989,
-0.862122,0.617981,
-0.85144,0.639343,
-0.848389,0.622559,
-0.843811,0.578308,
-0.843811,0.585938,
-0.83313,0.616455,
-0.830078,0.648499,
-0.830078,0.627136,
-0.822449,0.576782,
-0.817871,0.582886,
-0.816345,0.613403,
-0.811768,0.640869,
-0.810242,0.624084,
-0.810242,0.58136,
-0.814819,0.582886,
-0.811768,0.611877,
-0.813293,0.642395,
-0.816345,0.62561,
-0.820923,0.578308,
-0.830078,0.582886,
-0.836182,0.614929,
-0.845337,0.639343,
-0.852966,0.621033,
-0.865173,0.578308,
-0.875854,0.579834,
-0.883484,0.611877,
-0.889587,0.639343,
-0.892639,0.619507,
-0.906372,0.588989,
-0.918579,0.601196,
-0.924683,0.621033,
-0.933838,0.62561,
-0.944519,0.621033,
-0.947571,0.576782,
-0.9552,0.593567,
-0.965881,0.62561,
-0.975037,0.639343,
-0.982666,0.624084,
-0.994873,0.575256,
-1.01013,0.587463,
-1.01471,0.617981,
-1.02234,0.640869,
-1.04065,0.621033,
-1.05133,0.578308,
-1.05896,0.58136,
-1.06506,0.614929,
-1.07574,0.634766,
-1.0849,0.617981,
-1.09863,0.578308,
-1.11389,0.582886,
-1.13068,0.613403,
-1.14746,0.639343,
-1.16119,0.621033,
-1.18103,0.58136,
-1.19629,0.598145,
-1.21307,0.610352,
-1.22681,0.631714,
-1.23749,0.619507,
-1.25427,0.556946,
-1.26953,0.576782,
-1.28174,0.614929,
-1.29547,0.639343,
-1.31378,0.611877,
-1.33057,0.579834,
-1.34888,0.58136,
-1.36261,0.613403,
-1.37939,0.62561,
-1.38855,0.614929,
-1.39923,0.579834,
-1.41144,0.579834,
-1.4267,0.611877,
-1.43585,0.636292,
-1.44958,0.616455,
-1.46484,0.576782,
-1.47247,0.590515,
-1.48773,0.613403,
-1.50299,0.639343,
-1.51215,0.613403,
-1.52893,0.579834,
-1.54266,0.584412,
-1.5564,0.622559,
-1.56708,0.639343,
-1.57623,0.614929,
-1.59454,0.57373,
-1.60828,0.58136,
-1.61438,0.616455,
-1.62506,0.634766,
-1.63574,0.6073,
-1.64795,0.570679,
-1.65558,0.58136,
-1.67084,0.617981,
-1.67694,0.63324,
-1.68762,0.602722,
-1.69678,0.578308,
-1.70441,0.584412,
-1.71356,0.616455,
-1.71814,0.637817,
-1.72882,0.6073,
-1.74103,0.579834,
-1.74561,0.584412,
-1.75934,0.619507,
-1.77002,0.634766,
-1.77612,0.608826,
-1.78223,0.584412,
-1.79138,0.579834,
-1.80206,0.616455,
-1.80969,0.637817,
-1.82037,0.6073,
-1.83258,0.572205,
-1.84174,0.582886,
-1.85089,0.619507,
-1.86615,0.631714,
-1.87378,0.605774,
-1.88599,0.575256,
-1.89667,0.58136,
-1.90125,0.616455,
-1.9104,0.605774,
-1.92261,0.602722,
-1.93481,0.570679,
-1.94244,0.582886,
-1.95465,0.619507,
-1.96838,0.637817,
-1.97906,0.602722,
-1.98975,0.567627,
-2.005,0.575256,
-2.01874,0.616455,
-2.03552,0.637817,
-2.0462,0.6073,
-2.05231,0.572205,
-2.05994,0.582886,
-2.07367,0.616455,
-2.0813,0.639343,
-2.08893,0.602722,
-2.10571,0.570679,
-2.11487,0.582886,
-2.12402,0.616455,
-2.13318,0.637817,
-2.14691,0.604248,
-2.15302,0.575256,
-2.16064,0.582886,
-2.17285,0.617981,
-2.18353,0.637817,
-2.18964,0.602722,
-2.2049,0.576782,
-2.2171,0.58136,
-2.23236,0.617981,
-2.24609,0.636292,
-2.25677,0.611877,
-2.27051,0.57373,
-2.28577,0.587463,
-2.30255,0.617981,
-2.31628,0.627136,
-2.33002,0.601196,
-2.3468,0.575256,
-2.36053,0.582886,
-2.37579,0.614929,
-2.388,0.640869,
-2.39868,0.588989,
-2.41394,0.575256,
-2.42615,0.588989,
-2.43835,0.617981,
-2.44751,0.640869,
-2.46124,0.593567,
-2.47498,0.566101,
-2.48718,0.584412,
-2.50092,0.619507,
-2.51312,0.643921,
-2.52838,0.593567,
-2.53906,0.534058,
-2.54974,0.584412,
-2.56042,0.616455,
-2.57111,0.640869,
-2.58789,0.593567,
-2.59857,0.570679,
-2.60773,0.627136,
-2.62146,0.611877,
-2.62909,0.642395,
-2.63519,0.593567,
-2.64893,0.569153,
-2.64893,0.582886,
-2.6535,0.617981,
-2.65503,0.634766,
-2.65198,0.595093,
-2.64587,0.572205,
-2.63672,0.582886,
-2.62604,0.614929,
-2.60315,0.639343,
-2.57568,0.588989,
-2.54822,0.579834,
-2.51923,0.582886,
-2.4826,0.614929,
-2.44293,0.637817,
-2.39868,0.595093,
-2.35138,0.57373,
-2.31171,0.58136,
-2.26288,0.617981,
-2.21405,0.639343,
-2.16217,0.602722,
-2.11029,0.572205,
-2.05383,0.58136,
-1.9989,0.621033,
-1.93787,0.637817,
-1.87988,0.59967,
-1.8219,0.567627,
-1.76239,0.582886,
-1.70746,0.616455,
-1.64948,0.639343,
-1.59302,0.604248,
-1.53961,0.567627,
-1.48773,0.579834,
-1.4389,0.619507,
-1.38855,0.639343,
-1.33972,0.604248,
-1.29852,0.563049,
-1.25122,0.58136,
-1.21613,0.614929,
-1.1734,0.639343,
-1.13373,0.604248,
-1.09711,0.563049,
-1.06506,0.587463,
-1.03607,0.616455,
-1.00861,0.637817,
-0.978088,0.608826,
-0.956726,0.558472,
-0.935364,0.579834,
-0.912476,0.613403,
-0.895691,0.637817,
-0.874329,0.6073,
-0.857544,0.559998,
-0.843811,0.578308,
-0.831604,0.622559,
-0.820923,0.640869,
-0.810242,0.602722,
-0.802612,0.575256,
-0.796509,0.585938,
-0.793457,0.617981,
-0.785828,0.640869,
-0.778198,0.608826,
-0.773621,0.563049,
-0.775146,0.578308,
-0.775146,0.59967,
-0.773621,0.636292,
-0.775146,0.611877,
-0.779724,0.566101,
-0.78125,0.58136,
-0.78125,0.614929,
-0.787354,0.639343,
-0.788879,0.595093,
-0.796509,0.563049,
-0.798035,0.58136,
-0.802612,0.617981,
-0.804138,0.642395,
-0.814819,0.613403,
-0.827026,0.570679,
-0.834656,0.592041,
-0.846863,0.614929,
-0.856018,0.640869,
-0.868225,0.613403,
-0.874329,0.567627,
-0.886536,0.582886,
-0.889587,0.619507,
-0.892639,0.624084,
-0.901794,0.613403,
-0.909424,0.569153,
-0.91095,0.587463,
-0.912476,0.613403,
-0.907898,0.637817,
-0.91095,0.614929,
-0.904846,0.558472,
-0.90332,0.579834,
-0.901794,0.616455,
-0.901794,0.65155,
-0.892639,0.617981,
-0.886536,0.561523,
-0.883484,0.588989,
-0.878906,0.622559,
-0.872803,0.639343,
-0.871277,0.617981,
-0.871277,0.546265,
-0.868225,0.584412,
-0.863647,0.617981,
-0.862122,0.639343,
-0.863647,0.617981,
-0.857544,0.563049,
-0.865173,0.584412,
-0.865173,0.617981,
-0.868225,0.642395,
-0.866699,0.617981,
-0.871277,0.566101,
-0.874329,0.588989,
-0.881958,0.617981,
-0.88501,0.639343,
-0.888062,0.619507,
-0.892639,0.563049,
-0.901794,0.582886,
-0.91095,0.614929,
-0.914001,0.642395,
-0.923157,0.617981,
-0.93689,0.566101,
-0.947571,0.584412,
-0.958252,0.627136,
-0.970459,0.643921,
-0.982666,0.622559,
-0.994873,0.563049,
-1.00708,0.587463,
-1.01776,0.616455,
-1.02692,0.616455,
-1.04218,0.631714,
-1.05133,0.569153,
-1.06506,0.578308,
-1.08032,0.6073,
-1.09406,0.640869,
-1.10321,0.617981,
-1.11542,0.566101,
-1.12915,0.575256,
-1.13983,0.621033,
-1.15204,0.643921,
-1.16425,0.62561,
-1.17798,0.566101,
-1.18866,0.575256,
-1.20697,0.614929,
-1.21918,0.643921,
-1.23444,0.624084,
-1.24969,0.561523,
-1.26038,0.576782,
-1.27869,0.617981,
-1.28937,0.642395,
-1.29852,0.62561,
-1.31073,0.566101,
-1.32294,0.572205,
-1.33667,0.617981,
-1.34735,0.645447,
-1.36414,0.621033,
-1.37482,0.569153,
-1.39313,0.576782,
-1.40839,0.611877,
-1.42365,0.643921,
-1.43585,0.624084,
-1.45111,0.567627,
-1.46484,0.575256,
-1.4801,0.613403,
-1.48773,0.643921,
-1.49689,0.624084,
-1.51062,0.559998,
-1.52283,0.578308,
-1.54114,0.616455,
-1.55487,0.646973,
-1.57166,0.624084,
-1.58539,0.567627,
-1.60065,0.570679,
-1.61285,0.614929,
-1.62811,0.634766,
-1.64337,0.621033,
-1.6571,0.570679,
-1.66626,0.57373,
-1.67694,0.610352,
-1.6861,0.62561,
-1.70288,0.590515,
-1.71204,0.561523,
-1.72424,0.57373,
-1.73645,0.617981,
-1.74866,0.642395,
-1.75781,0.634766,
-1.77155,0.566101,
-1.78375,0.619507,
-1.79749,0.617981,
-1.80969,0.645447,
-1.82037,0.62561,
-1.83563,0.570679,
-1.85394,0.572205,
-1.86768,0.614929,
-1.88293,0.645447,
-1.89667,0.627136,
-1.9043,0.569153,
-1.91498,0.572205,
-1.92261,0.614929,
-1.93176,0.645447,
-1.94092,0.622559,
-1.94702,0.567627,
-1.9577,0.570679,
-1.96533,0.617981,
-1.97144,0.645447,
-1.97906,0.637817,
-1.98364,0.572205,
-1.98822,0.572205,
-1.9989,0.617981,
-2.00348,0.650024,
-2.01263,0.624084,
-2.02026,0.567627,
-2.03094,0.584412,
-2.03705,0.617981,
-2.0401,0.645447,
-2.05078,0.627136,
-2.05383,0.57373,
-2.06451,0.575256,
-2.06909,0.617981,
-2.07825,0.648499,
-2.0874,0.627136,
-2.09503,0.569153,
-2.10571,0.572205,
-2.11639,0.616455,
-2.1225,0.645447,
-2.13318,0.62561,
-2.14233,0.57373,
-2.14996,0.569153,
-2.15759,0.616455,
-2.17133,0.645447,
-2.1759,0.62561,
-2.18353,0.57373,
-2.19269,0.572205,
-2.2049,0.617981,
-2.211,0.640869,
-2.22321,0.634766,
-2.23236,0.57373,
-2.24609,0.567627,
-2.2583,0.619507,
-2.27051,0.65155,
-2.28424,0.62561,
-2.29797,0.576782,
-2.31171,0.569153,
-2.32239,0.617981,
-2.33459,0.645447,
-2.35291,0.619507,
-2.35901,0.58136,
-2.37732,0.567627,
-2.38647,0.616455,
-2.3941,0.640869,
-2.40021,0.627136,
-2.41089,0.579834,
-2.42004,0.567627,
-2.4292,0.616455,
-2.43835,0.643921,
-2.44598,0.627136,
-2.45819,0.576782,
-2.47192,0.567627,
-2.4826,0.614929,
-2.49176,0.640869,
-2.49634,0.62561,
-2.49939,0.592041,
-2.50397,0.569153,
-2.50397,0.614929,
-2.50702,0.640869,
-2.50244,0.62561,
-2.49939,0.578308,
-2.49176,0.57373,
-2.47498,0.614929,
-2.45819,0.640869,
-2.4353,0.627136,
-2.40936,0.578308,
-2.38037,0.569153,
-2.34985,0.616455,
-2.31323,0.631714,
-2.27051,0.62561,
-2.22778,0.578308,
-2.17896,0.566101,
-2.1286,0.617981,
-2.07977,0.665283,
-2.01874,0.62561,
-1.96228,0.576782,
-1.90125,0.559998,
-1.83868,0.616455,
-1.77307,0.637817,
-1.71051,0.624084,
-1.64642,0.578308,
-1.58386,0.566101,
-1.5213,0.613403,
-1.45416,0.636292,
-1.39008,0.624084,
-1.32446,0.578308,
-1.26343,0.567627,
-1.21002,0.614929,
-1.15356,0.634766,
-1.09558,0.624084,
-1.04675,0.58136,
-0.996399,0.569153,
-0.949097,0.611877,
-0.90332,0.636292,
-0.857544,0.621033,
-0.820923,0.578308,
-0.787354,0.572205,
-0.753784,0.616455,
-0.720215,0.63324,
-0.689697,0.619507,
-0.660706,0.58136,
-0.637817,0.572205,
-0.621033,0.613403,
-0.596619,0.636292,
-0.579834,0.617981,
-0.563049,0.585938,
-0.546265,0.570679,
-0.535583,0.614929,
-0.526428,0.63324,
-0.518799,0.616455,
-0.514221,0.587463,
-0.508118,0.567627,
-0.511169,0.614929,
-0.509644,0.63324,
-0.511169,0.619507,
-0.514221,0.584412,
-0.520325,0.567627,
-0.521851,0.614929,
-0.52948,0.627136,
-0.535583,0.617981,
-0.547791,0.587463,
-0.556946,0.566101,
-0.570679,0.6073,
-0.582886,0.627136,
-0.590515,0.614929,
-0.6073,0.587463,
-0.621033,0.567627,
-0.634766,0.616455,
-0.648499,0.627136,
-0.657654,0.613403,
-0.672913,0.590515,
-0.679016,0.57373,
-0.692749,0.610352,
-0.704956,0.631714,
-0.71106,0.617981,
-0.717163,0.590515,
-0.724792,0.567627,
-0.730896,0.613403,
-0.735474,0.62561,
-0.740051,0.611877,
-0.746155,0.588989,
-0.752258,0.572205,
-0.759888,0.610352,
-0.762939,0.628662,
-0.769043,0.613403,
-0.772095,0.588989,
-0.778198,0.57373,
-0.779724,0.610352,
-0.779724,0.631714,
-0.779724,0.608826,
-0.776672,0.587463,
-0.773621,0.576782,
-0.773621,0.608826,
-0.773621,0.624084,
-0.770569,0.610352,
-0.767517,0.585938,
-0.761414,0.57373,
-0.758362,0.616455,
-0.749207,0.624084,
-0.744629,0.621033,
-0.740051,0.611877,
-0.735474,0.598145,
-0.72937,0.59967,
-0.721741,0.62561,
-0.715637,0.608826,
-0.712585,0.587463,
-0.706482,0.570679,
-0.704956,0.6073,
-0.701904,0.611877,
-0.697327,0.578308,
-0.695801,0.58136,
-0.694275,0.572205,
-0.691223,0.604248,
-0.695801,0.622559,
-0.697327,0.6073,
-0.700378,0.588989,
-0.700378,0.576782,
-0.704956,0.602722,
-0.706482,0.622559,
-0.71106,0.610352,
-0.71106,0.587463,
-0.712585,0.575256,
-0.714111,0.602722,
-0.714111,0.624084,
-0.714111,0.613403,
-0.715637,0.588989,
-0.715637,0.575256,
-0.717163,0.604248,
-0.718689,0.621033,
-0.718689,0.608826,
-0.724792,0.584412,
-0.730896,0.576782,
-0.737,0.602722,
-0.738525,0.622559,
-0.740051,0.608826,
-0.743103,0.585938,
-0.746155,0.572205,
-0.753784,0.605774,
-0.759888,0.624084,
-0.764465,0.6073,
-0.772095,0.588989,
-0.782776,0.57373,
-0.793457,0.601196,
-0.801086,0.621033,
-0.814819,0.610352,
-0.820923,0.585938,
-0.830078,0.570679,
-0.843811,0.59967,
-0.848389,0.614929,
-0.863647,0.6073,
-0.87738,0.585938,
-0.892639,0.572205,
-0.91095,0.601196,
-0.921631,0.619507,
-0.930786,0.614929,
-0.944519,0.585938,
-0.952148,0.572205,
-0.967407,0.592041,
-0.98114,0.617981,
-0.993347,0.610352,
-1.00861,0.585938,
-1.02234,0.570679,
-1.03455,0.592041,
-1.04675,0.616455,
-1.06354,0.608826,
-1.07422,0.585938,
-1.08948,0.57373,
-1.10474,0.593567,
-1.12,0.621033,
-1.13068,0.608826,
-1.14594,0.582886,
-1.16272,0.57373,
-1.17798,0.561523,
-1.18866,0.616455,
-1.20544,0.610352,
-1.2207,0.585938,
-1.24054,0.570679,
-1.25732,0.593567,
-1.27716,0.666809,
-1.297,0.602722,
-1.31989,0.584412,
-1.3382,0.570679,
-1.35803,0.593567,
-1.38092,0.617981,
-1.39771,0.614929,
-1.41602,0.550842,
-1.43127,0.561523,
-1.44653,0.602722,
-1.46332,0.63324,
-1.4801,0.608826,
-1.49841,0.579834,
-1.51825,0.563049,
-1.53351,0.592041,
-1.55334,0.619507,
-1.57166,0.617981,
-1.58997,0.561523,
-1.60522,0.569153,
-1.62048,0.590515,
-1.63422,0.616455,
-1.64948,0.595093,
-1.66473,0.582886,
-1.68152,0.567627,
-1.69983,0.588989,
-1.71661,0.619507,
-1.73187,0.608826,
-1.74561,0.58136,
-1.76392,0.567627,
-1.77917,0.584412,
-1.79749,0.622559,
-1.81122,0.611877,
-1.828,0.582886,
-1.84021,0.567627,
-1.84937,0.58136,
-1.86615,0.619507,
-1.87683,0.614929,
-1.88904,0.592041,
-1.9043,0.559998,
-1.91956,0.588989,
-1.93634,0.622559,
-1.9516,0.610352,
-1.97144,0.579834,
-1.98517,0.572205,
-2.00043,0.57373,
-2.01416,0.619507,
-2.02484,0.617981,
-2.03552,0.584412,
-2.05078,0.572205,
-2.06909,0.585938,
-2.0813,0.614929,
-2.09351,0.611877,
-2.10571,0.572205,
-2.11639,0.566101,
-2.12708,0.579834,
-2.13623,0.616455,
-2.14386,0.613403,
-2.15302,0.579834,
-2.16064,0.567627,
-2.16522,0.58136,
-2.17285,0.613403,
-2.18201,0.616455,
-2.18811,0.578308,
-2.19574,0.570679,
-2.19879,0.584412,
-2.20337,0.619507,
-2.211,0.613403,
-2.22015,0.582886,
-2.22168,0.567627,
-2.22015,0.582886,
-2.21863,0.621033,
-2.22015,0.611877,
-2.2171,0.590515,
-2.20947,0.570679,
-2.19116,0.579834,
-2.17438,0.617981,
-2.15454,0.613403,
-2.1347,0.584412,
-2.10419,0.569153,
-2.07062,0.58136,
-2.034,0.617981,
-1.99127,0.614929,
-1.94244,0.584412,
-1.89362,0.570679,
-1.84021,0.579834,
-1.77917,0.619507,
-1.71661,0.616455,
-1.65558,0.578308,
-1.59302,0.572205,
-1.5274,0.58136,
-1.46027,0.616455,
-1.39618,0.614929,
-1.32904,0.579834,
-1.26038,0.569153,
-1.19476,0.579834,
-1.12762,0.617981,
-1.06354,0.613403,
-0.999451,0.582886,
-0.941467,0.572205,
-0.880432,0.579834,
-0.819397,0.619507,
-0.761414,0.614929,
-0.708008,0.579834,
-0.65155,0.570679,
-0.604248,0.576782,
-0.556946,0.621033,
-0.508118,0.616455,
-0.462341,0.590515,
-0.418091,0.563049,
-0.376892,0.58136,
-0.3479,0.621033,
-0.312805,0.616455,
-0.282288,0.58136,
-0.250244,0.563049,
-0.227356,0.576782,
-0.201416,0.621033,
-0.178528,0.616455,
-0.160217,0.576782,
-0.140381,0.561523,
-0.128174,0.578308,
-0.117493,0.621033,
-0.105286,0.614929,
-0.0976563,0.584412,
-0.088501,0.570679,
-0.0793457,0.576782,
-0.0793457,0.621033,
-0.0747681,0.610352,
-0.0671387,0.58136,
-0.0671387,0.561523,
-0.062561,0.579834,
-0.0610352,0.619507,
-0.0610352,0.617981,
-0.0595093,0.579834,
-0.0595093,0.567627,
-0.0656128,0.58136,
-0.062561,0.619507,
-0.0686646,0.617981,
-0.0686646,0.617981,
-0.0640869,0.579834,
-0.0762939,0.575256,
-0.0793457,0.617981,
-0.0808716,0.616455,
-0.0900269,0.58136,
-0.0930786,0.561523,
-0.0976563,0.585938,
-0.105286,0.616455,
-0.112915,0.614929,
-0.119019,0.585938,
-0.126648,0.549316,
-0.1297,0.584412,
-0.135803,0.619507,
-0.146484,0.639343,
-0.158691,0.587463,
-0.169373,0.561523,
-0.180054,0.58136,
-0.189209,0.621033,
-0.196838,0.621033,
-0.212097,0.58136,
-0.219727,0.563049,
-0.22583,0.576782,
-0.230408,0.617981,
-0.239563,0.621033,
-0.247192,0.582886,
-0.256348,0.561523,
-0.260925,0.575256,
-0.267029,0.621033,
-0.270081,0.616455,
-0.280762,0.584412,
-0.282288,0.552368,
-0.282288,0.576782,
-0.283813,0.622559,
-0.283813,0.619507,
-0.279236,0.587463,
-0.279236,0.559998,
-0.270081,0.58136,
-0.263977,0.621033,
-0.263977,0.616455,
-0.263977,0.592041,
-0.256348,0.567627,
-0.259399,0.62561,
-0.262451,0.617981,
-0.260925,0.622559,
-0.263977,0.593567,
-0.268555,0.569153,
-0.271606,0.576782,
-0.280762,0.617981,
-0.283813,0.622559,
-0.283813,0.55542,
-0.292969,0.561523,
-0.289917,0.590515,
-0.294495,0.619507,
-0.299072,0.622559,
-0.302124,0.585938,
-0.306702,0.559998,
-0.308228,0.579834,
-0.320435,0.617981,
-0.323486,0.624084,
-0.32959,0.585938,
-0.334167,0.559998,
-0.346375,0.58136,
-0.360107,0.619507,
-0.369263,0.622559,
-0.38147,0.590515,
-0.389099,0.563049,
-0.402832,0.576782,
-0.415039,0.617981,
-0.424194,0.624084,
-0.439453,0.587463,
-0.453186,0.567627,
-0.463867,0.556946,
-0.473022,0.590515,
-0.489807,0.622559,
-0.497437,0.585938,
-0.509644,0.558472,
-0.524902,0.58136,
-0.538635,0.622559,
-0.553894,0.622559,
-0.569153,0.590515,
-0.587463,0.561523,
-0.602722,0.579834,
-0.616455,0.619507,
-0.636292,0.622559,
-0.656128,0.587463,
-0.671387,0.556946,
-0.689697,0.58136,
-0.708008,0.617981,
-0.721741,0.619507,
