0.637817,1.08032,
0.634766,1.01166,
0.63324,1.01624,
0.631714,1.06506,
0.630188,1.10474,
0.630188,1.08185,
0.634766,1.01624,
0.637817,1.01929,
0.637817,1.06049,
0.642395,1.09711,
0.648499,1.08185,
0.657654,1.01471,
0.662231,1.01929,
0.662231,1.07117,
0.671387,1.10474,
0.671387,1.0788,
0.672913,1.02539,
0.675964,1.01624,
0.679016,1.07269,
0.679016,1.10626,
0.680542,1.0788,
0.675964,1.01471,
0.671387,1.01471,
0.665283,1.06354,
0.65918,1.08337,
0.650024,1.0788,
0.636292,1.01318,
0.628662,1.02081,
0.613403,1.06049,
0.601196,1.10626,
0.587463,1.08337,
0.572205,1.01776,
0.559998,1.01624,
0.544739,1.06506,
0.52948,1.10626,
0.508118,1.0849,
0.492859,1.01929,
0.466919,1.01318,
0.450134,1.06812,
0.424194,1.10321,
0.402832,1.08337,
0.379944,1.01624,
0.354004,1.01776,
0.32959,1.07117,
0.305176,1.10168,
0.280762,1.08032,
0.256348,1.01624,
0.230408,1.01929,
0.202942,1.07117,
0.180054,1.10168,
0.151062,1.0849,
0.12207,1.01624,
0.0961304,1.01776,
0.0610352,1.06354,
0.0305176,1.10168,
0.00152588,1.08185,
-0.0259399,1.01318,
-0.0534058,1.01471,
-0.0823975,1.06812,
-0.111389,1.10016,
-0.141907,1.0849,
-0.17395,1.01624,
-0.202942,1.01929,
-0.236511,1.06506,
-0.273132,1.08643,
-0.306702,1.09863,
-0.337219,1.01471,
-0.372314,1.02081,
-0.39978,1.06812,
-0.431824,1.11084,
-0.463867,1.07269,
-0.491333,0.987244,
-0.523376,1.00861,
-0.546265,1.06812,
-0.570679,1.10321,
-0.59967,1.08185,
-0.630188,1.01013,
-0.657654,1.02539,
-0.683594,1.10168,
-0.715637,1.10474,
-0.743103,1.08185,
-0.773621,1.01929,
-0.799561,1.01929,
-0.823975,1.06506,
-0.85144,1.10779,
-0.872803,1.07422,
-0.900269,1.02081,
-0.930786,1.01776,
-0.9552,1.06354,
-0.984192,1.10626,
-1.01166,1.08795,
-1.0376,1.01929,
-1.06506,1.02081,
-1.08643,1.06812,
-1.11237,1.10321,
-1.13831,1.0849,
-1.15967,1.02386,
-1.18408,1.01776,
-1.20697,1.07574,
-1.22986,1.10626,
-1.25427,1.0849,
-1.27869,1.02692,
-1.30157,1.00098,
-1.32446,1.07117,
-1.34583,1.10321,
-1.36566,1.08185,
-1.38855,1.02386,
-1.40839,1.01929,
-1.43127,1.06812,
-1.45569,1.10626,
-1.47247,1.04523,
-1.49231,1.01929,
-1.5152,1.01624,
-1.53961,1.06506,
-1.55945,1.11084,
-1.57776,1.08032,
-1.59912,1.02234,
-1.61438,1.01929,
-1.63727,1.07117,
-1.6571,1.10474,
-1.67847,1.08643,
-1.6983,1.01776,
-1.71051,1.02081,
-1.72882,1.06964,
-1.75476,1.11084,
-1.77307,1.0849,
-1.79138,1.01929,
-1.80969,1.01776,
-1.83105,1.07117,
-1.85242,1.11389,
-1.86768,1.08795,
-1.88751,1.01929,
-1.90887,1.01471,
-1.93176,1.06812,
-1.9516,1.10474,
-1.97296,1.08643,
-1.99738,1.01929,
-2.02637,1.01776,
-2.04926,1.06964,
-2.07367,1.10626,
-2.09961,1.08643,
-2.12097,1.01929,
-2.14691,1.02997,
-2.17285,1.06812,
-2.19574,1.10779,
-2.21863,1.08337,
-2.23999,1.01929,
-2.26135,1.01624,
-2.28119,1.06812,
-2.29797,1.10474,
-2.31323,1.08643,
-2.31934,1.01776,
-2.32239,1.02081,
-2.31628,1.06506,
-2.30103,1.10016,
-2.28577,1.06354,
-2.2583,1.01929,
-2.22321,1.01929,
-2.17896,1.06812,
-2.1225,1.10321,
-2.05994,1.0849,
-1.98975,1.02081,
-1.90125,1.01929,
-1.81122,1.0788,
-1.71051,1.10474,
-1.60522,1.0849,
-1.49078,1.02234,
-1.37329,1.01624,
-1.24969,1.07117,
-1.12457,1.11237,
-0.991821,1.09711,
-0.857544,1.01776,
-0.724792,1.01624,
-0.585938,1.06354,
-0.445557,1.10321,
-0.308228,1.08643,
-0.175476,0.993347,
-0.0442505,1.02081,
0.0839233,1.06812,
0.210571,1.10474,
0.334167,1.0849,
0.450134,1.01776,
0.561523,1.01776,
0.668335,1.04218,
0.773621,1.11542,
0.868225,1.0849,
0.9552,1.02234,
1.03912,1.01471,
1.11847,1.06506,
1.18866,1.10016,
1.25427,1.08643,
1.31378,1.01929,
1.36566,1.01776,
1.40686,1.06506,
1.45264,1.10168,
1.48315,1.08185,
1.51367,1.02234,
1.53961,1.01929,
1.5564,1.06049,
1.57471,1.10168,
1.58539,1.08795,
1.59912,1.02234,
1.60065,1.02081,
1.59912,1.05438,
1.59302,1.10474,
1.58691,1.08643,
1.57471,1.01929,
1.5564,1.01929,
1.53503,1.06659,
1.51672,1.10321,
1.49231,1.08948,
1.46484,1.02081,
1.43738,1.01624,
1.40686,1.06506,
1.37329,1.11542,
1.34277,1.08185,
1.30463,1.02234,
1.26801,1.01624,
1.22986,1.06506,
1.19171,1.10626,
1.15967,1.08643,
1.12305,1.01929,
1.09253,1.01624,
1.06201,1.06812,
1.03455,1.10321,
1.01013,1.08643,
0.982666,1.01929,
0.96283,1.02386,
0.946045,1.06659,
0.924683,1.10321,
0.907898,1.08643,
0.894165,1.02539,
0.878906,1.01776,
0.862122,1.06354,
0.848389,1.10168,
0.839233,1.08643,
0.830078,1.02081,
0.816345,1.01624,
0.804138,1.07422,
0.798035,1.11084,
0.794983,1.0849,
0.791931,1.02997,
0.787354,1.01776,
0.787354,1.06049,
0.798035,1.09863,
0.798035,1.06049,
0.802612,1.02081,
0.80719,1.01776,
0.813293,1.06049,
0.816345,1.10016,
0.8255,1.08795,
0.836182,1.02386,
0.839233,1.01624,
0.842285,1.04218,
0.845337,1.09863,
0.848389,1.08337,
0.845337,1.02386,
0.845337,1.02539,
0.843811,1.06354,
0.842285,1.09711,
0.845337,1.08337,
0.836182,1.02386,
0.830078,1.01471,
0.819397,1.06506,
0.808716,1.10168,
0.796509,1.08948,
0.785828,1.02539,
0.775146,1.01318,
0.759888,1.05743,
0.738525,1.09863,
0.720215,1.08185,
0.700378,1.02539,
0.674438,1.01471,
0.656128,1.06964,
0.631714,1.08795,
0.6073,1.0849,
0.587463,1.02539,
0.563049,1.01471,
0.538635,1.06354,
0.515747,1.10016,
0.488281,1.08337,
0.45929,1.02997,
0.43335,1.01471,
0.401306,1.05896,
0.370789,1.09711,
0.344849,1.0849,
0.314331,1.02539,
0.280762,1.01318,
0.25177,1.06506,
0.218201,1.09863,
0.189209,1.08337,
0.158691,1.02997,
0.120544,1.01318,
0.0839233,1.06506,
0.0488281,1.09711,
0.0183105,1.06659,
-0.0152588,1.03149,
-0.0488281,1.01624,
-0.0839233,1.06506,
-0.117493,1.09863,
-0.14801,1.0788,
-0.18158,1.02692,
-0.212097,1.01471,
-0.248718,1.06049,
-0.279236,1.09253,
-0.311279,1.08032,
-0.343323,1.02234,
-0.376892,1.01471,
-0.410461,1.06506,
-0.439453,1.09711,
-0.474548,1.08337,
-0.505066,1.02692,
-0.531006,1.01471,
-0.563049,1.06506,
-0.590515,1.09406,
-0.616455,1.08185,
-0.643921,1.02539,
-0.672913,1.01471,
-0.697327,1.05591,
-0.726318,1.06049,
-0.752258,1.0849,
-0.779724,1.02234,
-0.804138,1.01318,
-0.830078,1.06812,
-0.852966,1.09253,
-0.875854,1.08032,
-0.897217,1.08643,
-0.921631,1.02081,
-0.944519,1.05743,
-0.970459,1.08948,
-0.994873,1.06812,
-1.02386,1.03149,
-1.0498,1.01471,
-1.07727,1.05591,
-1.10168,1.09711,
-1.12457,1.08337,
-1.14746,1.02692,
-1.17493,1.01318,
-1.19934,1.05286,
-1.22375,1.091,
-1.24969,1.08337,
-1.26801,1.02692,
-1.29395,1.01166,
-1.31989,1.06506,
-1.3382,1.10321,
-1.35956,1.08185,
-1.38245,1.02692,
-1.40076,1.01013,
-1.42517,1.05743,
-1.44653,1.08948,
-1.46637,1.0788,
-1.49231,1.02539,
-1.51672,1.01471,
-1.53198,1.05591,
-1.55487,1.08948,
-1.57318,1.08032,
-1.5976,1.02386,
-1.61896,1.00708,
-1.63574,1.05896,
-1.6571,1.091,
-1.67999,1.07727,
-1.70288,1.02692,
-1.71814,1.01318,
-1.75018,1.05743,
-1.77307,1.091,
-1.79901,1.08032,
-1.8219,1.03149,
-1.84479,1.01318,
-1.86615,1.06049,
-1.88599,1.09406,
-1.90887,1.07727,
-1.93329,1.03302,
-1.9577,1.01929,
-1.98059,1.05743,
-2.00653,1.091,
-2.02789,1.07727,
-2.05841,1.03149,
-2.08282,1.01166,
-2.10571,1.05896,
-2.12708,1.08948,
-2.14691,1.08032,
-2.16064,1.03302,
-2.17438,1.01166,
-2.18201,1.05743,
-2.18811,1.09253,
-2.18353,1.07574,
-2.1759,1.02539,
-2.16217,1.01166,
-2.13776,1.05896,
-2.10571,1.08948,
-2.06757,1.08337,
-2.02026,1.02997,
-1.96381,1.01166,
-1.89819,1.06354,
-1.8219,1.09253,
-1.74561,1.08185,
-1.65558,1.02386,
-1.5625,1.00708,
-1.45721,1.06049,
-1.35345,1.091,
-1.24054,1.07269,
-1.12457,1.01776,
-1.00098,0.975037,
-0.87738,1.05591,
-0.749207,1.091,
-0.622559,1.06049,
-0.491333,1.02386,
-0.366211,1.01166,
-0.234985,1.05591,
-0.111389,1.08795,
0.00915527,1.07269,
0.126648,1.02234,
0.244141,1.01166,
0.358582,1.06964,
0.466919,1.08795,
0.567627,1.07727,
0.668335,1.02692,
0.762939,1.01013,
0.849915,1.05286,
0.932312,1.08643,
1.00555,1.07727,
1.08032,1.02539,
1.14136,1.01166,
1.20087,1.04828,
1.25427,1.08795,
1.30157,1.0788,
1.34125,1.02692,
1.37329,1.00861,
1.40228,1.05743,
1.42975,1.09406,
1.45416,1.08337,
1.46484,1.01013,
1.47247,1.02539,
1.47858,1.06049,
1.47858,1.08795,
1.47095,1.07727,
1.46179,1.03302,
1.44501,1.01013,
1.42822,1.05743,
1.40686,1.08337,
1.3855,1.0849,
1.35651,1.03149,
1.32294,1.01318,
1.29089,1.05591,
1.2558,1.08948,
1.21613,1.07422,
1.17798,1.02386,
1.13983,1.01166,
1.10016,1.06049,
1.06659,1.08795,
1.02692,1.0788,
0.987244,1.02997,
0.949097,1.00861,
0.904846,1.05591,
0.868225,1.0849,
0.83313,1.07574,
0.794983,1.02997,
0.761414,1.01013,
0.730896,1.05896,
0.701904,1.08795,
0.674438,1.07117,
0.648499,1.02997,
0.631714,1.01318,
0.613403,1.05743,
0.598145,1.0849,
0.585938,1.07727,
0.569153,1.02539,
0.55542,1.01471,
0.546265,1.07574,
0.535583,1.07574,
0.534058,1.07727,
0.527954,1.02997,
0.521851,1.05438,
0.521851,1.04828,
0.520325,1.09253,
0.521851,1.05743,
0.526428,1.03302,
0.527954,1.01013,
0.538635,1.04218,
0.541687,1.0849,
0.553894,1.07574,
0.556946,1.02539,
0.564575,1.01013,
0.569153,1.05591,
0.57373,1.08795,
0.575256,1.08185,
0.575256,1.03149,
0.57373,1.01318,
0.575256,1.05896,
0.57373,1.08185,
0.570679,1.07422,
0.566101,1.03149,
0.55542,1.01013,
0.550842,1.05438,
0.538635,1.08185,
0.532532,1.07574,
0.520325,1.02997,
0.505066,1.01013,
0.494385,1.05286,
0.476074,1.08337,
0.460815,1.07574,
0.447083,1.02997,
0.427246,1.00861,
0.408936,1.05591,
0.393677,1.08795,
0.369263,1.05133,
0.3479,1.02692,
0.326538,1.02234,
0.30365,1.06354,
0.27771,1.07117,
0.248718,1.07574,
0.22583,1.02692,
0.195313,1.00708,
0.166321,1.05286,
0.135803,1.09253,
0.114441,1.06812,
0.0839233,1.02539,
0.0564575,1.01318,
0.0213623,1.05438,
-0.00915527,1.08185,
-0.0442505,1.07269,
-0.0717163,1.02539,
-0.105286,1.00861,
-0.137329,1.05286,
-0.175476,1.08185,
-0.205994,1.07117,
-0.244141,1.02539,
-0.282288,1.01013,
-0.308228,1.05286,
-0.343323,1.08185,
-0.375366,1.06812,
-0.410461,1.02539,
-0.442505,1.01166,
-0.476074,1.05438,
-0.506592,1.0788,
-0.538635,1.06964,
-0.567627,1.02692,
-0.604248,1.00861,
-0.637817,1.05438,
-0.666809,1.0788,
-0.694275,1.06812,
-0.726318,1.02692,
-0.75531,1.01013,
-0.790405,1.05286,
-0.827026,1.08032,
-0.857544,1.07117,
-0.891113,1.02539,
-0.924683,1.00708,
-0.9552,1.05286,
-0.98877,1.08032,
-1.01776,1.07117,
-1.0498,1.04218,
-1.08032,1.00861,
-1.11084,1.05591,
-1.13983,1.08032,
-1.16577,1.07117,
-1.19171,1.02997,
-1.22528,1.01624,
-1.2558,1.04675,
-1.28021,1.09711,
-1.30463,1.06659,
-1.33057,1.02234,
-1.35651,1.01013,
-1.38855,1.04675,
-1.41144,1.0788,
-1.43127,1.08032,
-1.45264,1.01166,
-1.47247,0.971985,
-1.49231,1.04523,
-1.51672,1.0788,
-1.53503,1.06812,
-1.5564,1.02386,
-1.57623,1.01624,
-1.59607,1.05133,
-1.61438,1.0788,
-1.63727,1.07117,
-1.66168,1.02386,
-1.68304,0.993347,
-1.70746,1.0498,
-1.73035,1.0788,
-1.75018,1.06659,
-1.7746,1.02539,
-1.79901,1.00861,
-1.82037,1.04828,
-1.84631,1.07574,
-1.86768,1.07269,
-1.88751,1.02386,
-1.9165,1.00708,
-1.94244,1.04828,
-1.96686,1.08032,
-1.99585,1.06049,
-2.01721,1.02386,
-2.04315,1.00708,
-2.06909,1.04675,
-2.09198,1.0788,
-2.11029,1.06049,
-2.13623,1.03149,
-2.16064,1.00861,
-2.18201,1.06049,
-2.2049,1.07422,
-2.22931,1.06964,
-2.25067,1.02997,
-2.27356,1.00708,
-2.29645,1.04065,
-2.31781,1.07727,
-2.34222,1.05591,
-2.36359,1.02997,
-2.388,1.00555,
-2.41547,1.04828,
-2.43378,1.07727,
-2.45819,1.06506,
-2.47803,1.02386,
-2.49634,1.00861,
-2.52075,1.04828,
-2.53754,1.07727,
-2.54974,1.06354,
-2.56042,1.02692,
-2.57263,1.00861,
-2.57721,1.0498,
-2.57416,1.07574,
-2.56042,1.05896,
-2.53906,1.02997,
-2.51312,0.98877,
-2.47955,1.04675,
-2.43073,1.07727,
-2.37732,1.06049,
-2.31476,1.02692,
-2.24609,1.00861,
-2.16827,1.0498,
-2.07977,1.07269,
-1.97906,1.06049,
-1.87531,1.03455,
-1.76086,0.98877,
-1.63879,1.04828,
-1.51215,1.07269,
-1.38397,1.06354,
-1.25275,1.0376,
-1.11694,1.01166,
-0.979614,1.04523,
-0.842285,1.07574,
-0.698853,1.06812,
-0.563049,1.02997,
-0.42572,1.00555,
-0.289917,1.04523,
-0.157166,1.07422,
-0.0289917,1.06354,
0.0961304,1.00708,
0.212097,1.01013,
0.325012,1.0437,
0.434875,1.07574,
0.535583,1.06354,
0.628662,1.02692,
0.717163,1.00708,
0.798035,1.04675,
0.87738,1.07727,
0.946045,1.05286,
1.00861,1.00403,
1.06659,0.976563,
1.11694,1.04065,
1.16272,1.07269,
1.2085,1.05896,
1.23596,1.02081,
1.27258,1.00708,
1.29395,1.0437,
1.31378,1.07422,
1.33057,1.0437,
1.3382,1.03149,
1.3443,1.00708,
1.35193,1.04218,
1.34888,1.07117,
1.34583,1.05896,
1.33514,1.02997,
1.32599,1.00708,
1.30463,1.04065,
1.28784,1.07422,
1.2619,1.05896,
1.23444,1.02539,
1.20697,1.00403,
1.1734,1.04065,
1.13678,1.06964,
1.10168,1.05896,
1.05896,1.02692,
1.02234,1.00708,
0.984192,1.0437,
0.946045,1.07117,
0.909424,1.05896,
0.872803,1.02539,
0.83313,1.00555,
0.801086,1.04523,
0.769043,1.06964,
0.737,1.05896,
0.708008,1.02539,
0.67749,1.00403,
0.656128,1.0437,
0.628662,1.07117,
0.6073,1.05896,
0.585938,1.02692,
0.572205,1.00555,
0.559998,1.05591,
0.544739,1.07574,
0.534058,1.05438,
0.527954,1.03149,
0.520325,1.00708,
0.515747,1.0437,
0.511169,1.07727,
0.505066,1.06049,
0.500488,1.02997,
0.500488,1.00555,
0.500488,1.04218,
0.500488,1.07422,
0.500488,1.05743,
0.500488,1.03302,
0.502014,0.997925,
0.505066,1.04523,
0.509644,1.06964,
0.517273,1.05896,
0.515747,1.0437,
0.518799,1.00555,
0.520325,1.04523,
0.520325,1.07422,
0.518799,1.05286,
0.517273,1.02539,
0.515747,1.00403,
0.509644,1.05591,
0.502014,1.06964,
0.492859,1.05743,
0.488281,1.02539,
0.474548,1.01318,
0.463867,1.03455,
0.45166,1.09253,
0.437927,1.0498,
0.422668,1.03149,
0.402832,1.01013,
0.389099,1.04218,
0.37384,1.07117,
0.354004,1.04675,
0.331116,1.02997,
0.309753,1.00555,
0.283813,1.04065,
0.257874,1.05286,
0.227356,1.05286,
0.196838,1.02997,
0.163269,1.01013,
0.131226,1.03607,
0.0961304,1.06964,
0.0640869,1.05286,
0.0320435,1.03302,
-0.00762939,1.00403,
-0.0442505,1.03912,
-0.0808716,1.07117,
-0.114441,1.05438,
-0.151062,1.03149,
-0.190735,1.00098,
-0.227356,1.0376,
-0.262451,1.07727,
-0.296021,1.05286,
-0.328064,1.02386,
-0.363159,1.01166,
-0.396729,1.04523,
-0.430298,1.06812,
-0.463867,1.0498,
-0.497437,1.03149,
-0.532532,0.993347,
-0.569153,1.04065,
-0.604248,1.07117,
-0.636292,1.05743,
-0.668335,1.01929,
-0.700378,1.00403,
-0.735474,1.03607,
-0.769043,1.07117,
-0.805664,1.05286,
-0.834656,1.01471,
-0.869751,1.01166,
-0.90332,1.03607,
-0.933838,1.06506,
-0.961304,1.05438,
-0.990295,1.02692,
-1.02234,1.01166,
-1.05133,1.02081,
-1.07727,1.07117,
-1.10779,1.05133,
-1.13678,1.02692,
-1.17188,1.00861,
-1.20087,1.04065,
-1.22986,1.06506,
-1.25885,1.05133,
-1.28937,1.03149,
-1.32141,1.01471,
-1.3504,1.03912,
-1.37787,1.06964,
-1.40533,1.05286,
-1.4328,1.02997,
-1.46027,1.01471,
-1.48773,1.04218,
-1.51672,1.07574,
-1.54419,1.05438,
-1.57166,1.03149,
-1.60065,1.01318,
-1.62659,1.03302,
-1.65253,1.07574,
-1.67389,1.05591,
-1.70593,0.991821,
-1.72577,0.999451,
-1.75171,1.04218,
-1.77765,1.06354,
-1.80359,1.05591,
-1.828,1.0376,
-1.85242,1.01166,
-1.87683,1.04218,
-1.89972,1.07117,
-1.91956,1.05591,
-1.94397,1.02692,
-1.96991,1.01624,
-1.9928,1.0437,
-2.01874,1.07269,
-2.04163,1.05438,
-2.06604,1.02692,
-2.08435,1.00708,
-2.11334,1.0376,
-2.1347,1.07574,
-2.16064,1.05286,
-2.18506,1.02386,
-2.21252,1.00708,
-2.23236,1.0376,
-2.25677,1.06659,
-2.27356,1.04828,
-2.29645,1.02997,
-2.32391,1.00708,
-2.34833,1.03912,
-2.37579,1.06506,
-2.39716,1.0498,
-2.42004,1.03455,
-2.44751,1.00403,
-2.47192,1.03912,
-2.49481,1.06659,
-2.51465,1.04828,
-2.53601,1.02539,
-2.56042,1.00861,
-2.58331,1.03912,
-2.60773,1.06506,
-2.63519,1.0498,
-2.66266,1.02539,
-2.6886,1.00555,
-2.70996,1.03607,
-2.73438,1.06659,
-2.75421,1.0498,
-2.78015,1.02539,
-2.80457,1.00861,
-2.82593,1.03455,
-2.84729,1.06506,
-2.8717,1.03455,
-2.89459,1.02997,
-2.91748,1.00708,
-2.94189,1.03302,
-2.96783,1.06659,
-2.9892,1.04828,
-3.01514,1.04065,
-3.0426,0.991821,
-3.06549,1.0437,
-3.0838,1.06659,
-3.10974,1.05133,
-3.1311,1.02692,
-3.15552,1.00098,
-3.17841,1.08795,
-3.19977,1.0849,
-3.21503,1.0498,
-3.23639,1.02692,
-3.25928,1.00708,
-3.28522,1.0376,
-3.31116,1.06812,
-3.33252,1.0437,
-3.36151,1.02539,
-3.38593,0.98114,
-3.41187,1.05286,
-3.43475,1.06812,
-3.45917,1.05438,
-3.48969,1.01471,
-3.508,1.01013,
-3.53088,1.0376,
-3.55682,1.06812,
-3.58276,1.05133,
-3.60413,1.02997,
-3.62549,1.0025,
-3.65143,1.03607,
-3.67432,1.07574,
-3.69568,1.02997,
-3.72009,1.02692,
-3.73383,1.00861,
-3.75061,1.0376,
-3.75519,1.06506,
-3.75671,1.04828,
-3.74908,1.02234,
-3.73993,1.00708,
-3.7262,1.0376,
-3.69415,1.06506,
-3.65448,1.04828,
-3.60565,1.02081,
-3.54919,1.00708,
-3.47595,1.03455,
-3.3905,1.06812,
-3.29895,1.04828,
-3.19672,1.02234,
-3.08685,1.00708,
-2.97089,1.01471,
-2.84882,1.06964,
-2.71759,1.05133,
-2.58026,1.03302,
-2.43225,1.00403,
-2.28119,1.03149,
-2.1347,1.09253,
-1.97449,1.06354,
-1.81427,1.03149,
-1.6571,1.00403,
-1.49841,1.03455,
-1.3382,1.06812,
-1.18713,1.05133,
-1.03607,1.02539,
-0.88501,1.01013,
-0.738525,1.04065,
-0.596619,1.06812,
-0.45929,1.05133,
-0.328064,1.02539,
-0.201416,1.00861,
-0.0823975,1.03607,
0.0305176,1.06964,
0.138855,1.0498,
0.231934,1.02692,
0.328064,1.01318,
0.410461,1.03607,
0.488281,1.06964,
0.556946,1.05286,
0.619507,1.02386,
0.672913,1.00861,
0.724792,1.04828,
0.764465,1.06659,
0.804138,1.05591,
0.836182,1.02997,
0.860596,1.00708,
0.881958,1.03607,
0.897217,1.0788,
0.909424,1.05438,
0.915527,1.02692,
0.917053,1.00708,
0.918579,1.03607,
0.915527,1.06659,
0.90332,1.05286,
0.895691,1.02692,
0.87738,1.01166,
0.854492,1.03912,
0.834656,1.06354,
0.808716,1.05438,
0.779724,1.02997,
0.743103,1.01013,
0.71106,1.04065,
0.680542,1.06049,
0.645447,1.01929,
0.608826,1.02539,
0.576782,1.00861,
0.541687,1.0376,
0.508118,1.06964,
0.474548,1.03455,
0.439453,1.0376,
0.40741,1.00861,
0.38147,0.999451,
0.350952,1.06506,
0.32196,1.05133,
0.289917,1.03302,
0.267029,1.01013,
0.247192,1.03607,
0.228882,1.06506,
0.210571,1.10779,
0.196838,1.03302,
0.186157,1.00861,
0.17395,1.03149,
0.161743,1.06354,
0.154114,1.0498,
0.141907,1.02539,
0.135803,1.01013,
0.126648,1.08643,
0.120544,1.07422,
0.115967,1.05438,
0.111389,1.03149,
0.109863,1.00708,
0.109863,1.03607,
0.112915,1.06812,
0.112915,1.0849,
0.114441,1.0376,
0.114441,1.01013,
0.119019,1.04523,
0.120544,1.06506,
0.125122,1.05591,
0.128174,1.03302,
0.132751,1.00708,
0.140381,1.01929,
0.144958,1.03149,
0.14801,1.05743,
0.149536,1.03455,
0.146484,1.01318,
0.151062,1.03912,
0.14801,1.06812,
0.146484,1.05133,
0.138855,1.0376,
0.131226,1.01471,
0.125122,1.0376,
0.114441,1.07269,
0.100708,1.06659,
0.088501,1.0376,
0.0671387,1.01776,
0.0488281,1.02234,
0.0350952,1.07269,
0.0152588,1.06812,
-0.00610352,1.04218,
-0.0259399,1.01471,
-0.0473022,1.04218,
-0.0686646,1.07269,
-0.0915527,1.06354,
-0.117493,1.04065,
-0.141907,1.01776,
-0.167847,1.04065,
-0.196838,1.06964,
-0.222778,1.06506,
-0.25177,1.0376,
-0.283813,1.01929,
-0.315857,1.03912,
-0.341797,1.06964,
-0.375366,1.06049,
-0.410461,1.03607,
-0.437927,1.01471,
-0.471497,1.03912,
-0.506592,1.07422,
-0.544739,1.06049,
-0.578308,1.0376,
-0.616455,1.01776,
-0.653076,1.0376,
-0.691223,1.06506,
-0.727844,1.05896,
-0.759888,1.04218,
-0.799561,1.00708,
-0.83313,1.05438,
-0.869751,1.07422,
-0.904846,1.06964,
-0.938416,1.01318,
-0.976563,1.01013,
-1.01318,1.03607,
-1.04675,1.06659,
-1.08337,1.06354,
-1.11542,1.03149,
-1.14746,1.04523,
-1.18866,1.02997,
-1.21765,1.06964,
-1.25122,1.06354,
-1.28632,1.0376,
-1.32141,1.01471,
-1.35345,1.03455,
-1.38702,1.06812,
-1.42822,1.06354,
-1.45874,1.00555,
-1.49994,1.01471,
-1.5274,1.03455,
-1.56097,1.06964,
-1.59454,1.06354,
-1.62354,1.03455,
-1.65253,1.03149,
-1.67694,1.0376,
-1.70593,1.06812,
-1.7334,1.06049,
-1.76086,1.0376,
-1.78986,1.01013,
-1.81732,1.0376,
-1.84479,1.07117,
-1.87225,1.07727,
-1.89667,1.00861,
-1.92719,1.01318,
-1.95313,1.04065,
-1.97754,1.07269,
-2.00348,1.06354,
-2.03094,1.0376,
-2.05536,1.03607,
-2.0813,1.07422,
-2.10724,1.07727,
-2.1347,1.06506,
-2.16064,1.04065,
-2.18048,1.01624,
-2.20947,1.04523,
-2.23389,1.05743,
-2.25983,1.06964,
-2.28424,1.0376,
-2.30255,1.02081,
-2.32544,1.0437,
-2.34375,1.06964,
-2.36359,1.06964,
-2.388,1.03455,
-2.41241,1.02997,
-2.43225,1.03607,
-2.45514,1.07422,
-2.4826,1.06659,
-2.50549,1.0376,
-2.52991,1.01624,
-2.55585,1.01013,
-2.58026,1.07727,
-2.6001,1.06964,
-2.62146,1.0376,
-2.64587,1.01624,
-2.67029,1.03607,
-2.69623,1.07117,
-2.72369,1.0437,
-2.74353,1.03607,
-2.771,1.01776,
-2.79541,1.03607,
-2.8183,1.07117,
-2.83813,1.06506,
-2.8595,1.0376,
-2.87781,1.01318,
-2.9007,1.04675,
-2.92053,1.07574,
-2.94189,1.06049,
-2.96631,1.0376,
-2.9892,1.01776,
-3.01056,1.03912,
-3.03497,1.07269,
-3.05481,1.06964,
-3.07922,1.03149,
-3.10364,1.01166,
-3.1189,1.04065,
-3.14178,1.07117,
-3.16162,1.06812,
-3.18909,1.0376,
-3.20892,1.01624,
-3.23334,1.04065,
-3.25165,1.07574,
-3.27148,1.07117,
-3.29132,1.0437,
-3.31421,1.01776,
-3.33252,1.0376,
-3.35541,1.07422,
-3.3783,1.06964,
-3.39203,1.03912,
-3.41797,1.01624,
-3.44238,1.04218,
-3.46375,1.07727,
-3.48663,1.07117,
-3.50952,1.03302,
-3.53088,1.01929,
-3.55225,1.0376,
-3.57208,1.08032,
-3.59497,1.07117,
-3.61176,1.04218,
-3.6377,1.01929,
-3.66211,1.03607,
-3.68347,1.0788,
-3.70483,1.07269,
-3.72772,1.03912,
-3.75366,1.01929,
-3.77655,1.03912,
-3.80096,1.07422,
-3.82843,1.07269,
-3.85437,1.04218,
-3.88794,1.01776,
-3.91541,1.04523,
-3.94287,1.07574,
-3.97034,1.07269,
-3.9978,1.04065,
-4.02374,1.01776,
-4.03748,1.03455,
-4.0451,1.07422,
-4.04663,1.07727,
-4.04053,1.04065,
-4.02069,1.01776,
-3.99628,1.04065,
-3.95966,1.07574,
-3.91235,1.07117,
-3.8559,1.05133,
-3.78876,1.01929,
-3.71704,1.0376,
-3.63159,1.07269,
-3.53546,1.07422,
-3.44086,1.04065,
-3.32489,1.01776,
-3.21503,1.03912,
-3.09143,1.07727,
-2.96326,1.07422,
-2.83356,1.03912,
-2.70081,1.01929,
-2.56653,1.04065,
-2.42767,1.07574,
-2.28729,1.07269,
-2.14233,1.03912,
-2.00348,1.01776,
-1.86157,1.03607,
-1.71814,1.07727,
-1.58386,1.07269,
-1.44806,1.0437,
-1.31836,1.01776,
-1.19171,1.03912,
-1.06964,1.0788,
-0.947571,1.07422,
-0.836182,1.04523,
-0.733948,1.02081,
-0.631714,1.03607,
-0.534058,1.08185,
-0.45166,1.0788,
-0.367737,1.02997,
-0.294495,1.02386,
-0.228882,1.0437,
-0.166321,1.07422,
-0.115967,1.06964,
-0.0595093,1.04065,
-0.0106812,1.02081,
0.0289917,1.0376,
0.0656128,1.11084,
0.0991821,1.07269,
0.125122,1.03149,
0.143433,1.02539,
0.157166,1.03607,
0.167847,1.07727,
0.172424,1.08185,
0.17395,1.04065,
0.164795,1.01929,
0.152588,1.0376,
0.138855,1.07727,
0.119019,1.07422,
0.0961304,1.04065,
0.0762939,1.01929,
0.0534058,1.03607,
0.0274658,1.08337,
0.00305176,1.05591,
-0.0274658,1.04218,
-0.0579834,1.02386,
-0.0915527,1.03607,
-0.128174,1.07727,
-0.163269,1.07574,
-0.196838,1.04218,
-0.227356,1.02539,
-0.265503,1.04065,
-0.294495,1.08032,
-0.326538,1.07727,
-0.361633,1.04675,
-0.389099,1.02081,
-0.419617,1.0376,
-0.442505,1.08032,
-0.466919,1.0437,
-0.489807,1.04218,
-0.508118,1.02081,
-0.527954,1.04065,
-0.541687,1.08185,
-0.561523,1.07727,
-0.57373,1.04218,
-0.585938,1.02081,
-0.596619,1.0437,
-0.602722,1.07574,
-0.611877,1.07574,
-0.616455,1.04218,
-0.622559,1.02386,
-0.624084,1.03912,
-0.624084,1.0788,
-0.622559,1.07727,
-0.627136,1.0437,
-0.62561,1.02234,
-0.624084,1.04065,
-0.621033,1.0788,
-0.610352,1.07574,
-0.6073,1.0437,
-0.605774,1.02234,
-0.601196,1.04065,
-0.595093,1.07574,
-0.596619,1.07574,
-0.602722,1.04065,
-0.59967,1.01929,
-0.596619,1.0376,
-0.59967,1.0788,
-0.59967,1.07727,
-0.601196,1.04065,
-0.605774,1.02081,
-0.610352,1.03149,
-0.611877,1.08032,
-0.622559,1.07269,
-0.631714,1.04218,
-0.636292,1.02234,
-0.642395,1.03607,
-0.65918,1.07574,
-0.668335,1.07422,
-0.686646,1.04218,
-0.700378,1.02081,
-0.715637,1.03607,
-0.732422,1.08032,
-0.746155,1.06812,
-0.764465,1.04523,
-0.782776,1.01776,
-0.801086,1.0376,
-0.820923,1.06506,
-0.840759,1.07574,
-0.866699,1.03607,
-0.895691,1.01929,
-0.918579,1.03302,
-0.947571,1.06506,
-0.975037,1.07422,
-1.00555,1.0437,
-1.03455,1.02081,
-1.06812,1.03149,
-1.09863,1.0788,
-1.13373,1.04523,
-1.17035,1.04523,
-1.20087,1.02081,
-1.24054,1.0437,
-1.27411,1.0788,
-1.31073,1.07422,
-1.34277,1.04065,
-1.37939,1.02234,
-1.41449,1.0376,
-1.44806,1.08032,
-1.48621,1.06964,
-1.5213,1.04065,
-1.5564,1.02234,
-1.59149,1.03149,
-1.62659,1.07269,
-1.66168,1.07269,
-1.69678,1.03912,
-1.7334,1.02081,
-1.77002,1.03149,
-1.80206,1.0788,
-1.83411,1.07574,
-1.87378,1.04065,
-1.90277,1.01929,
-1.93481,1.03912,
-1.96686,1.07574,
-1.9989,1.06812,
-2.03247,1.08337,
-2.05994,1.02081,
-2.09656,1.0376,
-2.1286,1.08032,
-2.16064,1.07117,
-2.19116,1.04065,
-2.22321,1.01776,
-2.25983,1.03607,
-2.2934,1.0788,
-2.32391,1.07117,
-2.35748,1.0376,
-2.38953,1.01776,
-2.41852,1.03149,
-2.44751,1.07269,
-2.47345,1.0788,
-2.50092,1.03607,
-2.52838,1.01318,
-2.55737,1.03302,
-2.58179,1.07422,
-2.60773,1.07422,
-2.63062,1.03912,
-2.6535,1.01929,
-2.68097,1.03607,
-2.70691,1.0788,
-2.72827,1.06964,
-2.74963,1.03912,
-2.77405,1.00555,
-2.79694,1.02234,
-2.81677,1.07422,
-2.83813,1.1261,
-2.85187,1.0376,
-2.87323,1.01624,
-2.89154,1.02997,
-2.90222,1.0788,
-2.91901,1.07117,
-2.94037,1.0437,
-2.96478,1.01013,
-2.97852,1.02692,
-3.0014,1.07422,
-3.01361,1.06812,
-3.03497,1.0376,
-3.05328,1.01929,
-3.07007,1.02997,
-3.0899,1.07574,
-3.11127,1.07269,
-3.13263,1.03607,
-3.15704,1.01776,
-3.17688,1.03149,
-3.20282,1.07269,
-3.22266,1.06964,
-3.24402,1.03607,
-3.26843,1.01471,
-3.28674,1.00555,
-3.30658,1.0788,
-3.32489,1.07269,
-3.34625,1.0376,
-3.36456,1.02386,
-3.3905,1.03149,
-3.41034,1.0788,
-3.4256,1.06812,
-3.45154,1.03302,
-3.47748,1.01166,
-3.49579,1.02692,
-3.51715,1.08643,
-3.54004,1.06964,
-3.56445,1.0376,
-3.58887,1.01929,
-3.6087,1.02234,
-3.63159,1.1261,
-3.65295,1.06964,
-3.67584,1.03607,
-3.70331,1.01624,
-3.72467,1.03149,
-3.74908,1.07269,
-3.77045,1.06964,
-3.79333,1.05896,
-3.8208,0.985718,
-3.84521,1.03455,
-3.86963,1.07727,
-3.89557,1.07574,
-3.91388,1.03912,
-3.92914,1.02692,
-3.93677,1.03455,
-3.94287,1.05133,
-3.94135,1.07727,
-3.93524,1.0376,
-3.91693,1.02234,
-3.88947,1.03607,
-3.85284,1.0788,
-3.80554,1.07574,
-3.74908,1.04065,
-3.68195,1.01929,
-3.6087,1.03455,
-3.5202,1.08032,
-3.42712,1.07422,
-3.32642,1.03607,
-3.21808,1.01929,
-3.10364,1.04218,
-2.97699,1.08032,
-2.84729,1.07574,
-2.70691,1.04218,
-2.56653,1.02539,
-2.4231,1.03607,
-2.27356,1.06506,
-2.11945,1.07422,
-1.96686,1.03912,
-1.81732,1.01776,
-1.66168,1.03455,
-1.50909,1.07422,
-1.36261,1.07727,
-1.2146,1.03607,
-1.06812,1.01776,
-0.927734,1.02997,
-0.790405,1.07422,
-0.65918,1.07117,
-0.535583,1.0437,
-0.418091,1.01471,
-0.305176,1.02692,
-0.198364,1.07727,
-0.100708,1.07117,
-0.0106812,1.03455,
0.0717163,1.01318,
0.146484,1.02386,
0.213623,1.07422,
0.270081,1.07117,
0.325012,1.03455,
0.372314,1.01624,
0.415039,1.02234,
0.453186,1.07422,
0.488281,1.06964,
0.512695,1.03302,
0.535583,1.01471,
0.55542,1.02692,
0.570679,1.07422,
0.578308,1.06812,
0.584412,1.03607,
0.587463,1.01166,
0.579834,1.02539,
0.57373,1.07422,
0.564575,1.06812,
0.553894,1.03607,
0.537109,1.01166,
0.518799,1.02081,
0.498962,1.07269,
0.476074,1.06659,
0.447083,1.03607,
0.416565,1.01166,
0.382996,1.02081,
0.350952,1.07422,
0.311279,1.07117,
0.271606,1.02234,
0.236511,1.01318,
0.198364,1.02386,
0.158691,1.08032,
0.123596,1.07269,
0.088501,1.04828,
0.0534058,1.00861,
0.0198364,1.02386,
-0.00762939,1.07574,
-0.0335693,1.06964,
-0.062561,1.0376,
-0.0854492,1.01013,
-0.111389,1.00708,
-0.132751,1.07574,
-0.149536,1.06812,
-0.164795,1.03607,
-0.186157,1.0025,
-0.193787,1.02081,
-0.209045,1.07269,
-0.218201,1.06659,
-0.224304,1.02997,
-0.228882,1.00861,
-0.231934,1.01929,
-0.230408,1.07269,
-0.231934,1.07117,
-0.230408,1.02997,
-0.230408,1.00708,
-0.227356,1.02386,
-0.221252,1.07117,
-0.219727,1.05286,
-0.213623,1.03302,
-0.205994,1.00708,
-0.19989,1.02081,
-0.193787,1.07117,
-0.190735,1.06812,
-0.184631,1.03149,
-0.186157,1.00861,
-0.180054,1.02081,
-0.18158,1.07117,
-0.18158,1.06964,
-0.18158,1.02997,
-0.18158,1.00861,
-0.183105,1.02081,
-0.189209,1.07117,
-0.190735,1.06659,
-0.196838,1.03302,
-0.204468,1.00403,
-0.218201,1.00403,
-0.230408,1.07117,
-0.242615,1.06354,
-0.254822,1.04065,
-0.270081,1.00708,
-0.286865,1.01929,
-0.305176,1.12457,
-0.325012,1.07727,
-0.3479,1.03302,
-0.364685,1.00861,
-0.392151,1.02234,
-0.415039,1.07117,
-0.439453,1.06354,
-0.463867,1.03455,
-0.492859,1.00861,
-0.518799,0.987244,
-0.544739,1.06964,
-0.575256,1.07422,
-0.608826,1.04675,
-0.640869,1.01166,
-0.671387,1.02692,
-0.70343,1.06964,
-0.730896,1.08032,
-0.767517,1.03149,
-0.801086,1.00708,
-0.836182,1.00861,
-0.863647,1.07727,
-0.891113,1.07422,
-0.927734,1.03607,
-0.965881,1.00708,
-1.00403,1.02234,
-1.0437,1.06812,
-1.0788,1.05438,
-1.12,1.03455,
-1.15509,1.00555,
-1.19019,1.02081,
-1.22681,1.06659,
-1.25885,1.06659,
-1.29242,1.03455,
-1.32599,1.00403,
-1.35498,1.02234,
-1.38855,1.07117,
-1.42212,1.06964,
-1.45111,1.03149,
-1.48315,1.00555,
-1.51672,1.03302,
-1.54572,1.06659,
-1.57318,1.06964,
-1.60065,1.03302,
-1.63116,1.01013,
-1.66016,1.02234,
-1.68762,1.05591,
-1.71204,1.06964,
-1.7395,1.03455,
-1.76544,1.00403,
-1.79138,1.01929,
-1.81427,1.06659,
-1.84021,1.06812,
-1.86615,1.03607,
-1.88904,1.0025,
-1.9165,1.01929,
-1.94092,1.06659,
-1.96686,1.06812,
-1.99585,1.04675,
-2.02026,0.999451,
-2.0462,1.02539,
-2.06909,1.06659,
-2.08893,1.06812,
-2.11792,1.02386,
-2.14386,1.00403,
-2.17133,1.01929,
-2.19574,1.0498,
-2.21863,1.06049,
-2.24304,1.04065,
-2.27051,1.01013,
-2.29034,1.02234,
-2.31323,1.05743,
-2.33307,1.06659,
-2.36053,1.03149,
-2.3819,1.0025,
-2.40173,1.02234,
-2.42157,1.06812,
-2.44751,1.06506,
-2.46582,1.03302,
-2.48871,0.997925,
-2.5116,1.02539,
-2.52991,1.06506,
-2.55127,1.06812,
-2.56653,1.03455,
-2.59399,0.999451,
-2.60925,1.02539,
-2.62756,1.06506,
-2.64587,1.06049,
-2.66418,1.02081,
-2.68707,1.00098,
-2.70233,1.02081,
-2.72369,1.08032,
-2.74811,1.07574,
-2.76947,1.03455,
-2.78931,1.00555,
-2.81372,1.02692,
-2.83508,1.06506,
-2.85187,1.06354,
-2.87628,1.02997,
-2.89764,1.00708,
-2.91901,1.03149,
-2.94189,1.06964,
-2.96631,1.07117,
-2.98462,1.02692,
-3.00751,1.0025,
-3.02734,0.999451,
-3.05023,1.06659,
-3.07617,1.05286,
-3.09753,1.03149,
-3.12042,0.991821,
-3.14484,1.01929,
-3.17383,1.06659,
-3.19519,1.06049,
-3.21655,1.02997,
-3.24249,1.00098,
-3.26385,1.01929,
-3.29132,1.10931,
-3.31726,1.06354,
-3.34473,1.0376,
-3.36456,1.00098,
-3.39203,1.01624,
-3.41644,1.06354,
-3.44543,1.05591,
-3.46985,1.02692,
-3.49426,0.999451,
-3.5141,1.02539,
-3.54004,1.06506,
-3.56293,1.05743,
-3.59344,1.02386,
-3.61481,0.999451,
-3.63922,1.01624,
-3.66516,1.06354,
-3.68347,1.06659,
-3.70331,1.02997,
-3.72314,0.996399,
-3.73993,1.01929,
-3.75671,1.06049,
-3.76434,1.12,
-3.76282,1.02997,
-3.75366,0.997925,
-3.73688,1.01929,
-3.70789,1.06812,
-3.67279,1.06354,
-3.62396,1.03607,
-3.56903,0.987244,
-3.50342,1.01624,
-3.43018,1.06354,
-3.34473,1.06049,
-3.24554,1.03149,
-3.13721,0.996399,
-3.01971,1.01471,
-2.89764,1.06049,
-2.76794,1.06659,
-2.62756,1.02234,
-2.48413,0.996399,
-2.33154,1.01624,
-2.17896,1.06049,
-2.02026,1.06049,
-1.86615,1.02386,
-1.70441,0.991821,
-1.54266,0.997925,
-1.37939,1.06354,
-1.21765,1.06659,
-1.05591,1.02692,
-0.90332,0.999451,
-0.747681,1.01624,
-0.604248,1.06049,
-0.463867,1.06964,
-0.32196,1.03149,
-0.186157,0.999451,
-0.0595093,1.01929,
0.0595093,1.05438,
0.17395,1.06354,
0.27771,1.03455,
0.375366,0.987244,
0.463867,1.01929,
0.547791,1.06049,
0.627136,1.06506,
0.694275,1.03302,
0.761414,0.999451,
0.816345,1.01776,
0.869751,1.05286,
0.912476,1.06964,
0.949097,1.03302,
0.979614,0.997925,
1.00403,1.01776,
1.02692,1.06506,
1.04065,1.06812,
1.05133,1.02997,
1.06049,0.999451,
1.05743,1.01929,
1.05896,1.06506,
1.05743,1.07117,
1.0437,1.03149,
1.03149,0.996399,
1.01471,1.01776,
0.993347,1.05896,
0.973511,1.06354,
0.946045,1.03455,
0.914001,0.991821,
0.88501,1.01929,
0.85144,1.06506,
0.822449,1.06659,
0.785828,1.03302,
0.752258,0.996399,
0.715637,1.01624,
0.683594,1.06049,
0.650024,1.06964,
0.616455,1.06049,
0.585938,0.996399,
0.547791,1.01929,
0.518799,1.06964,
0.491333,1.07422,
0.463867,1.0376,
0.431824,0.993347,
0.40741,1.07269,
0.384521,1.06354,
0.366211,1.06812,
0.346375,1.02539,
0.32959,0.996399,
0.317383,1.01013,
0.305176,1.06506,
0.294495,1.06049,
0.288391,1.01013,
0.285339,1.0025,
0.279236,1.01624,
0.276184,1.06049,
0.270081,1.06812,
0.268555,1.02692,
0.263977,1.01013,
0.267029,1.01471,
0.267029,1.07727,
0.267029,1.06354,
0.271606,1.0376,
0.283813,1.00403,
0.294495,1.01471,
0.299072,1.05133,
0.315857,1.06506,
0.325012,1.03455,
0.32959,0.991821,
0.341797,1.01624,
0.3479,1.06354,
0.360107,1.06506,
0.366211,1.03149,
0.369263,0.996399,
0.372314,1.01776,
0.38147,1.06659,
0.379944,1.06506,
0.37384,1.03455,
0.37384,0.996399,
0.367737,1.01471,
0.361633,1.06659,
0.354004,1.06812,
0.341797,1.02692,
0.332642,1.00098,
0.317383,0.991821,
0.305176,1.06506,
0.291443,1.06659,
0.268555,1.02997,
0.241089,0.993347,
0.216675,1.00861,
0.192261,1.06506,
0.169373,1.06506,
0.144958,1.03149,
0.112915,0.991821,
0.088501,1.01776,
0.0579834,1.06659,
0.0244141,1.05743,
-0.00915527,1.02692,
-0.0411987,0.996399,
-0.0762939,1.01776,
-0.108337,1.06659,
-0.14801,1.06812,
-0.18158,1.03607,
-0.218201,0.98114,
-0.253296,1.0025,
-0.288391,1.06659,
-0.326538,1.06506,
-0.363159,1.03149,
-0.401306,0.996399,
-0.437927,1.01776,
-0.479126,1.06506,
-0.517273,1.06812,
-0.556946,1.03607,
-0.592041,0.997925,
-0.630188,1.01318,
-0.668335,1.06354,
-0.706482,1.04675,
-0.743103,1.03302,
-0.779724,0.990295,
-0.819397,1.02081,
-0.85144,1.06812,
-0.888062,1.07422,
-0.923157,1.03455,
-0.959778,0.996399,
-0.991821,1.01166,
-1.02386,1.06354,
-1.05286,1.06659,
-1.08643,1.03149,
-1.12,0.996399,
-1.15356,1.00403,
-1.18866,1.06506,
-1.22375,1.06354,
-1.2558,1.03302,
-1.28632,0.996399,
-1.31836,1.01624,
-1.34735,1.06354,
-1.38397,1.06354,
-1.41296,1.02692,
-1.43738,0.996399,
-1.46942,1.01776,
-1.50146,1.06049,
-1.5274,1.06659,
-1.5564,1.02692,
-1.57928,0.991821,
-1.6037,1.03149,
-1.62659,1.05896,
-1.65253,1.06354,
-1.67999,1.02692,
-1.70441,0.996399,
-1.73187,1.01318,
-1.75629,1.06354,
-1.77765,1.06964,
-1.80206,1.02692,
-1.8219,0.993347,
-1.85242,1.01776,
-1.87683,1.03302,
-1.9043,1.06049,
-1.92871,1.02539,
-1.95465,0.997925,
-1.97754,1.01929,
-2.00195,1.06354,
-2.02332,1.06659,
-2.04315,1.02692,
-2.07062,0.993347,
-2.09198,1.01929,
-2.11792,1.06354,
-2.13928,1.06659,
-2.15912,1.02997,
-2.18506,0.993347,
-2.20795,1.01929,
-2.23389,1.06354,
-2.25677,1.06354,
-2.28424,1.02539,
-2.30255,0.997925,
-2.33002,1.02081,
-2.34985,1.06049,
-2.38037,1.06506,
-2.40173,1.02997,
-2.42462,1.00098,
-2.45514,1.01776,
-2.48108,1.06506,
-2.50549,1.06354,
-2.52991,1.03149,
-2.55432,0.993347,
-2.58026,1.01776,
-2.60773,1.06354,
-2.62756,1.06659,
-2.65503,1.02386,
-2.67944,0.999451,
-2.70386,1.02081,
-2.73285,1.06354,
-2.76031,1.05743,
-2.78625,1.02692,
-2.80762,0.993347,
-2.83813,1.02997,
-2.86102,1.07117,
-2.88239,1.06049,
-2.9068,1.02997,
-2.93579,0.996399,
-2.96631,1.02081,
-2.99377,1.06812,
-3.02277,1.05591,
-3.04718,1.03607,
-3.07617,0.999451,
-3.09906,1.02234,
-3.12042,1.06659,
-3.14636,1.05896,
-3.16925,1.02539,
-3.18909,0.996399,
-3.21503,1.03149,
-3.23486,1.06049,
-3.2547,1.06659,
-3.27911,1.02692,
-3.29895,0.997925,
-3.31879,1.01776,
-3.3432,1.06506,
-3.36304,1.06659,
-3.3844,1.01624,
-3.41187,0.996399,
-3.43323,1.01929,
-3.45306,1.06506,
-3.47137,1.06506,
-3.48816,1.02539,
-3.49884,1.00098,
-3.49884,1.02386,
-3.49274,1.06354,
-3.48206,1.06659,
-3.46222,1.02539,
-3.4317,0.997925,
-3.39813,1.02386,
-3.34778,1.06049,
-3.28979,1.06659,
-3.22113,1.02539,
-3.15094,0.993347,
-3.05939,1.02081,
-2.96478,1.06049,
-2.86713,1.06354,
-2.75421,1.02692,
-2.63367,0.991821,
-2.50702,1.02234,
-2.37579,1.06049,
-2.23846,1.06049,
-2.09351,1.02692,
-1.9516,1.01929,
-1.80359,1.02386,
-1.65405,1.06049,
-1.50299,1.06049,
-1.3504,1.03302,
-1.19629,0.997925,
-1.05438,1.02386,
-0.912476,1.06049,
-0.770569,1.06964,
-0.63324,1.02997,
-0.505066,0.999451,
-0.37384,1.02234,
-0.256348,1.0498,
-0.137329,1.06812,
-0.0259399,1.02997,
0.0762939,0.996399,
0.175476,1.01776,
0.268555,1.05743,
0.35553,1.06506,
0.431824,1.02386,
0.500488,0.999451,
0.564575,1.02234,
0.614929,1.06506,
0.665283,1.06659,
0.706482,1.02386,
0.744629,0.997925,
0.773621,1.02539,
0.799561,1.06354,
0.820923,1.06354,
0.839233,1.02692,
0.848389,0.999451,
0.854492,1.02081,
0.857544,1.06354,
0.852966,1.06812,
0.840759,1.02539,
0.834656,0.996399,
0.816345,1.02234,
0.798035,1.05896,
0.773621,1.06049,
0.746155,1.02539,
0.718689,0.991821,
0.68512,1.00555,
0.654602,1.03455,
0.624084,1.06506,
0.584412,1.02386,
0.546265,0.996399,
0.508118,1.02386,
0.463867,1.06964,
0.427246,1.06659,
0.386047,1.01929,
0.344849,0.996399,
0.305176,1.02386,
0.263977,1.05896,
0.227356,1.06964,
0.186157,1.03607,
0.152588,0.999451,
0.119019,1.02386,
0.088501,1.06964,
0.0610352,1.06812,
0.0396729,1.01776,
0.0183105,0.98877,
0,1.02234,
-0.0213623,1.06354,
-0.0320435,1.06659,
-0.050354,1.02234,
-0.0640869,0.997925,
-0.0747681,1.02081,
-0.0839233,1.06506,
-0.0900269,1.06659,
-0.0946045,1.02386,
-0.100708,0.997925,
-0.102234,1.02692,
-0.106812,1.06506,
-0.102234,1.06812,
-0.100708,1.02234,
-0.102234,0.996399,
-0.0991821,1.02386,
-0.0961304,1.05896,
-0.0961304,1.05896,
-0.0946045,1.02081,
-0.0946045,0.996399,
-0.0946045,1.02692,
-0.0900269,1.06354,
-0.0915527,1.06049,
-0.088501,1.02081,
-0.0915527,1.00403,
-0.0930786,1.02386,
-0.0946045,1.06354,
-0.0976563,1.06354,
-0.0976563,1.02386,
-0.105286,0.991821,
-0.111389,1.02692,
-0.119019,1.0498,
-0.126648,1.06659,
-0.137329,1.01776,
-0.149536,0.991821,
-0.157166,1.02539,
-0.169373,1.05591,
-0.184631,1.06964,
-0.202942,1.01013,
-0.222778,0.999451,
-0.244141,1.03302,
-0.262451,1.06354,
-0.288391,1.06659,
-0.314331,1.01929,
-0.335693,1.00403,
-0.358582,1.02997,
-0.386047,1.05896,
-0.410461,1.06354,
-0.440979,1.02386,
-0.471497,0.991821,
-0.50354,1.01471,
-0.538635,1.06049,
-0.570679,1.06659,
-0.604248,1.02081,
-0.637817,0.991821,
-0.668335,1.02692,
-0.708008,1.06049,
-0.737,1.06354,
-0.772095,1.02234,
-0.811768,0.996399,
-0.845337,1.01318,
-0.878906,1.05896,
-0.914001,1.06812,
-0.947571,1.02539,
-0.985718,0.997925,
-1.02386,1.04523,
-1.05591,1.05591,
-1.09406,1.06049,
-1.1322,1.03912,
-1.16425,0.990295,
-1.20239,1.02997,
-1.24359,1.06049,
-1.27411,1.0437,
-1.31378,1.01929,
-1.34583,0.993347,
-1.3855,1.01624,
-1.42059,1.05591,
-1.45264,1.06506,
-1.48926,1.01929,
-1.52588,0.993347,
-1.55945,1.03455,
-1.59149,1.05896,
-1.62201,1.06049,
-1.6571,1.01776,
-1.6861,0.993347,
-1.72272,1.03607,
-1.75171,1.05438,
-1.78223,1.05896,
-1.81274,1.02234,
-1.84479,0.993347,
-1.87836,1.02692,
-1.90277,1.06049,
-1.93024,1.06354,
-1.95465,1.01776,
-1.98212,0.991821,
-2.00958,1.02692,
-2.03094,1.07269,
-2.05383,1.11084,
-2.0752,1.01624,
-2.10266,0.990295,
-2.12708,1.03455,
-2.14996,1.0788,
-2.17743,1.05896,
-2.19879,1.01776,
-2.22168,0.996399,
-2.24457,1.03607,
-2.26288,1.06354,
-2.28729,1.05133,
-2.31171,1.01166,
-2.33307,0.991821,
-2.36511,1.02386,
-2.38647,1.06354,
-2.40631,1.05743,
-2.43073,1.01929,
-2.45209,0.979614,
-2.4704,1.02539,
-2.49023,1.06354,
-2.5116,1.05896,
-2.53448,1.01776,
-2.55737,1.0376,
-2.57568,1.02997,
-2.59705,1.06354,
-2.61993,1.06049,
-2.63977,1.01929,
-2.66266,0.98877,
-2.68402,1.03149,
-2.70081,1.06354,
-2.72369,1.05896,
-2.74506,1.02386,
-2.76947,0.990295,
-2.79236,1.02539,
-2.81219,1.06506,
-2.83508,1.06049,
-2.8595,1.01929,
-2.88239,0.991821,
-2.90527,1.03455,
-2.92053,1.06659,
-2.94647,1.06049,
-2.97394,1.01929,
-2.99683,0.98877,
-3.02277,1.02539,
-3.04413,1.06659,
-3.06854,1.05896,
-3.0899,1.00403,
-3.11737,0.990295,
-3.14026,1.02692,
-3.16162,1.06659,
-3.18604,1.06049,
-3.2074,1.01929,
-3.22876,0.990295,
-3.24707,1.03149,
-3.26538,1.06812,
-3.27606,1.06049,
-3.28827,1.02081,
-3.29742,0.999451,
-3.29895,1.02692,
-3.29132,1.06659,
-3.27606,1.05743,
-3.25623,1.01929,
-3.23486,0.990295,
-3.19366,1.02386,
-3.14636,1.05438,
-3.0899,1.02539,
-3.02277,1.01013,
-2.94952,1.0025,
-2.86102,1.03302,
-2.76489,1.06506,
-2.66113,1.06354,
-2.55127,1.00555,
-2.43225,0.990295,
-2.30865,1.02539,
-2.17743,1.0437,
-2.04163,1.07117,
-1.90125,1.01624,
-1.75781,0.987244,
-1.6098,1.03149,
-1.46637,1.07422,
-1.31836,1.05896,
-1.17035,0.993347,
-1.02539,0.98877,
-0.886536,1.02692,
-0.749207,1.06354,
-0.616455,1.06354,
-0.480652,1.01929,
-0.357056,0.98877,
-0.239563,1.02539,
-0.12207,1.06354,
-0.00762939,1.06659,
0.100708,1.01624,
0.19989,0.987244,
0.289917,1.02539,
0.37384,1.06049,
0.453186,1.06049,
0.523376,1.01471,
0.585938,0.990295,
0.636292,1.02386,
0.679016,1.06049,
0.718689,1.05133,
0.752258,1.01318,
0.785828,0.990295,
0.805664,1.02081,
0.830078,1.06049,
0.840759,1.05896,
0.849915,1.01776,
0.85144,0.987244,
0.857544,1.02692,
0.856018,1.05896,
0.848389,1.06354,
0.834656,1.01624,
0.822449,0.98877,
0.798035,1.02234,
0.772095,1.05591,
0.746155,1.06354,
0.717163,1.01624,
0.680542,0.987244,
0.645447,1.02081,
0.6073,1.05591,
0.563049,1.05896,
0.520325,1.01624,
0.469971,0.987244,
0.42572,1.03149,
0.378418,1.06049,
0.332642,1.04675,
0.288391,1.01929,
0.238037,1.00098,
0.195313,1.03302,
0.149536,1.05591,
0.109863,1.05896,
0.0671387,1.01624,
0.0259399,0.985718,
-0.012207,1.03149,
-0.0427246,1.04828,
-0.0762939,1.06354,
-0.100708,1.01166,
-0.128174,0.98877,
-0.149536,1.02539,
-0.169373,1.05438,
-0.186157,1.05438,
-0.209045,1.01624,
-0.219727,0.985718,
-0.231934,1.03149,
-0.244141,1.05591,
-0.253296,1.05896,
-0.259399,1.02539,
-0.267029,0.985718,
-0.273132,1.02692,
-0.274658,1.05591,
-0.270081,1.05591,
-0.274658,1.01624,
-0.27771,0.968933,
-0.274658,1.02997,
-0.270081,1.06049,
-0.267029,1.05438,
-0.267029,1.01624,
-0.265503,0.982666,
-0.260925,1.03149,
-0.259399,1.05438,
-0.259399,1.05591,
-0.262451,1.01471,
-0.263977,0.987244,
-0.260925,1.03912,
-0.260925,1.05438,
-0.267029,1.05591,
-0.268555,1.02997,
-0.273132,0.984192,
-0.283813,1.02081,
-0.289917,1.05438,
-0.297546,1.05591,
-0.306702,1.01471,
-0.32196,0.985718,
-0.337219,1.03607,
-0.354004,1.05743,
-0.366211,1.05591,
-0.389099,1.01624,
-0.411987,0.982666,
-0.434875,1.03455,
-0.45929,1.05743,
-0.480652,1.05743,
-0.505066,0.997925,
-0.534058,0.990295,
-0.564575,1.0437,
-0.593567,1.05896,
-0.624084,1.05591,
-0.656128,1.00861,
-0.686646,0.987244,
-0.718689,1.05438,
-0.749207,1.05743,
-0.782776,1.05591,
-0.816345,1.01624,
-0.849915,0.98877,
-0.886536,1.03607,
-0.917053,1.05438,
-0.953674,1.05133,
-0.990295,1.01776,
-1.03302,0.987244,
-1.06812,1.03302,
-1.10626,1.05743,
-1.14288,1.05438,
-1.18103,1.01624,
-1.21918,0.987244,
-1.2619,1.03455,
-1.29547,1.06506,
-1.33667,1.05591,
-1.37024,1.01471,
-1.41602,0.949097,
-1.45569,1.03302,
-1.49536,1.05896,
-1.53351,1.05743,
-1.57166,1.01624,
-1.61743,0.982666,
-1.65558,1.0376,
-1.69525,1.05896,
-1.73492,1.06506,
-1.77002,1.01318,
-1.80817,1.00708,
-1.83716,1.03455,
-1.87531,1.06964,
-1.90735,1.05286,
-1.94397,1.01013,
-1.97906,0.98877,
-2.01263,1.02692,
-2.0462,1.06659,
-2.08282,1.05438,
-2.11487,1.01624,
-2.14996,0.984192,
-2.18201,1.03455,
-2.21405,1.05896,
-2.23999,1.05743,
-2.26746,1.01318,
-2.29492,0.979614,
-2.32697,1.03302,
-2.36053,1.05896,
-2.388,1.05591,
-2.41699,1.01471,
-2.44293,0.982666,
-2.47345,1.03607,
-2.50092,1.05743,
-2.53296,1.05591,
-2.55585,1.01318,
-2.58789,0.982666,
-2.6123,1.02997,
-2.63977,1.06354,
-2.66113,1.05743,
-2.68555,1.01013,
-2.70691,0.98114,
-2.7298,1.04065,
-2.74658,1.06506,
-2.76794,1.06049,
-2.79083,1.01471,
-2.81219,0.98114,
-2.83356,1.02386,
-2.85797,1.05896,
-2.87628,1.06659,
-2.89612,1.00861,
-2.91901,0.979614,
-2.93884,1.02692,
-2.95563,1.05743,
-2.97394,1.05743,
-2.99377,1.01318,
-3.01666,0.98114,
-3.03497,1.02997,
-3.05481,1.05438,
-3.07617,1.05743,
-3.09906,1.01318,
-3.12042,0.982666,
-3.14789,1.02997,
-3.16772,1.05438,
-3.18756,1.05591,
-3.20587,1.01318,
-3.22876,0.978088,
-3.2486,1.03302,
-3.26538,1.05743,
-3.28369,1.05743,
-3.30811,1.01471,
-3.32489,0.98114,
-3.34778,1.02539,
-3.37372,1.05438,
-3.39661,1.05591,
-3.41949,1.01318,
-3.44696,0.98114,
-3.47443,1.02234,
-3.49884,1.05743,
-3.52325,1.05591,
-3.54919,1.02234,
-3.57361,0.978088,
-3.59802,1.02997,
-3.61938,1.05133,
-3.64075,1.05896,
-3.66211,1.01166,
-3.68958,0.982666,
-3.71246,1.02692,
-3.72925,1.05438,
-3.75366,1.05743,
-3.77655,1.01166,
-3.79639,0.979614,
-3.81927,1.02386,
-3.83911,1.05438,
-3.85895,1.05438,
-3.87573,1.01166,
-3.88336,0.984192,
-3.88336,1.02234,
-3.87573,1.05133,
-3.86353,1.05591,
-3.83759,1.01166,
-3.80554,0.984192,
-3.76587,1.02234,
-3.70941,1.0498,
-3.64685,1.05743,
-3.57208,1.01013,
-3.49274,0.98114,
-3.39813,1.02539,
-3.29895,1.04828,
-3.18756,1.05438,
-3.06854,1.00708,
-2.94037,0.979614,
-2.80762,1.01929,
-2.66418,1.00403,
-2.5177,1.0437,
-2.36816,1.01318,
-2.211,0.970459,
-2.05383,1.02234,
-1.89514,1.05286,
-1.7334,1.04675,
-1.57013,1.05133,
-1.41144,0.976563,
-1.25427,1.02234,
-1.09863,1.05286,
-0.949097,1.05133,
-0.802612,1.00708,
-0.663757,0.991821,
-0.527954,1.02081,
-0.398254,1.03912,
-0.271606,1.05591,
-0.154114,1.01013,
-0.0396729,0.979614,
0.0610352,1.01929,
0.157166,1.0498,
0.248718,1.05438,
0.328064,1.01471,
0.402832,0.982666,
0.469971,1.02234,
0.531006,1.0498,
0.592041,1.05286,
0.646973,1.01318,
0.68512,0.978088,
0.727844,1.02234,
0.761414,1.0498,
0.791931,1.05133,
0.813293,1.01166,
0.831604,0.976563,
0.842285,1.02539,
0.852966,1.05133,
0.857544,1.05286,
0.862122,1.01013,
0.854492,0.98114,
0.848389,1.01776,
0.836182,1.05286,
0.822449,1.05438,
0.808716,1.01318,
0.782776,0.979614,
0.759888,1.01929,
0.733948,1.05591,
0.70343,1.05438,
0.668335,1.01318,
0.636292,0.976563,
0.602722,1.01776,
0.564575,1.05133,
0.526428,1.05438,
0.491333,1.01471,
0.45166,0.98114,
0.410461,1.00708,
0.369263,1.05133,
0.334167,1.05286,
0.296021,1.01013,
0.254822,0.979614,
0.224304,1.01624,
0.192261,1.06049,
0.164795,1.05438,
0.132751,1.01471,
0.111389,0.975037,
0.088501,1.01929,
0.0656128,1.05896,
0.0411987,1.05286,
0.0244141,1.00861,
0.012207,0.98114,
0.00152588,1.02234,
-0.00762939,1.05438,
-0.0167847,1.04675,
-0.0274658,0.997925,
-0.0320435,0.976563,
-0.038147,1.01776,
-0.0366211,1.05743,
-0.038147,1.05896,
-0.0366211,1.01013,
-0.0305176,0.978088,
-0.0259399,1.01624,
-0.0213623,1.05591,
-0.0167847,1.0376,
-0.0152588,1.01166,
-0.012207,0.976563,
-0.0106812,1.01929,
-0.00610352,1.06354,
-0.00457764,1.05133,
-0.00305176,1.01471,
0.00152588,0.970459,
0.00457764,1.01929,
0.00610352,1.06049,
0.00915527,1.0498,
0.00610352,1.00708,
0.00152588,0.976563,
-0.00305176,1.01166,
-0.00610352,1.05133,
-0.00915527,1.03302,
-0.0183105,0.987244,
-0.0289917,0.975037,
-0.0396729,1.01471,
-0.0457764,1.06354,
-0.0595093,1.05133,
-0.0747681,1.01166,
-0.0915527,0.987244,
-0.109863,1.04523,
-0.128174,1.05133,
-0.151062,1.05133,
-0.170898,1.00861,
-0.19989,0.979614,
-0.222778,1.01166,
-0.253296,1.06354,
-0.283813,1.03302,
-0.312805,1.01166,
-0.3479,0.979614,
-0.382996,1.00555,
-0.410461,1.06354,
-0.448608,1.05133,
-0.483704,1.01471,
-0.526428,0.975037,
-0.561523,1.01166,
-0.602722,1.05896,
-0.646973,1.0498,
-0.689697,1.01013,
-0.730896,0.978088,
-0.772095,1.00861,
-0.811768,1.07117,
-0.852966,1.0498,
-0.897217,1.01318,
-0.935364,0.978088,
-0.976563,1.00861,
-1.01471,1.05743,
-1.05743,1.05286,
-1.09863,1.00861,
-1.14136,0.976563,
-1.17645,1.00708,
-1.2146,1.05743,
-1.24969,1.05286,
-1.28479,1.00861,
-1.32294,0.982666,
-1.35498,1.00708,
-1.38702,1.0437,
-1.42365,1.0498,
-1.46027,1.01318,
-1.49231,0.979614,
-1.53046,1.00555,
-1.56708,1.05591,
-1.60522,1.05133,
-1.63727,1.01471,
-1.66931,0.98114,
-1.70135,1.00708,
-1.73035,1.05438,
-1.76392,1.04828,
-1.79443,1.00708,
-1.82953,0.978088,
-1.86005,1.00861,
-1.88599,1.05438,
-1.91345,1.05133,
-1.94244,1.00403,
-1.97144,0.98114,
-2.00195,1.00708,
-2.02789,1.05896,
-2.05841,1.06354,
-2.08588,1.00861,
-2.11029,0.973511,
-2.14081,1.00708,
-2.1637,1.05286,
-2.18658,1.0437,
-2.21252,0.958252,
-2.23694,0.970459,
-2.25525,1.01166,
-2.28424,1.0498,
-2.30713,1.04675,
-2.33154,1.01166,
-2.35596,0.993347,
-2.37885,0.999451,
-2.40479,1.05438,
-2.43378,1.04828,
-2.46277,0.999451,
-2.48871,0.976563,
-2.50854,1.00403,
-2.53906,1.05286,
-2.56653,1.07727,
-2.58789,1.01776,
-2.6123,0.971985,
-2.63824,1.0025,
-2.66266,1.05591,
-2.69012,1.04828,
-2.71149,1.00555,
-2.742,0.978088,
-2.76947,1.00098,
-2.79541,1.05438,
-2.82288,1.04523,
-2.84882,1.01013,
-2.87933,0.976563,
-2.90833,1.00098,
-2.94037,1.05438,
-2.96631,1.04675,
-2.99072,1.00403,
-3.01971,0.975037,
-3.05023,0.997925,
-3.07617,1.05438,
-3.10822,1.0498,
-3.14178,1.00861,
-3.17078,0.978088,
-3.19977,0.999451,
-3.22876,1.05286,
-3.2608,1.04828,
-3.28827,1.00708,
-3.32031,0.976563,
-3.35236,0.999451,
-3.3783,1.05133,
-3.40881,1.04675,
-3.42865,1.01166,
-3.45764,0.976563,
-3.48816,1.00098,
-3.51563,1.05438,
-3.53851,1.0498,
-3.57056,1.00555,
-3.59802,0.978088,
-3.62854,0.997925,
-3.65601,1.05133,
-3.68652,1.0498,
-3.71552,0.984192,
-3.74298,0.973511,
-3.77197,1.00098,
-3.79944,1.0498,
-3.8269,1.04828,
-3.85437,1.00708,
-3.88184,0.975037,
-3.91083,1.0025,
-3.93524,1.0498,
-3.95966,1.05438,
-3.98407,1.00555,
-4.01306,0.976563,
-4.04053,0.999451,
-4.06952,1.05438,
-4.09393,1.04828,
-4.11682,1.02081,
-4.13666,0.975037,
-4.14581,0.999451,
-4.15344,1.0437,
-4.15344,1.04828,
-4.14886,1.00861,
-4.13361,0.978088,
-4.11224,0.999451,
-4.07562,1.05133,
-4.0329,1.04675,
-3.97644,1.00555,
-3.91388,0.975037,
-3.83606,0.996399,
-3.74908,1.05286,
-3.65143,1.0498,
-3.54462,1.00861,
-3.4317,0.976563,
-3.30963,0.997925,
-3.17383,1.05286,
-3.03497,1.0437,
-2.88696,1.00555,
-2.73743,0.975037,
-2.58331,0.991821,
-2.42157,1.04675,
-2.25372,1.05591,
-2.09045,1.00555,
-1.92871,0.975037,
-1.77002,0.997925,
-1.6098,1.0498,
-1.45111,1.04523,
-1.297,1.0376,
-1.14441,0.971985,
-0.990295,0.997925,
-0.848389,1.04523,
-0.712585,1.05286,
-0.585938,1.00861,
-0.45929,0.971985,
-0.338745,0.999451,
-0.230408,1.06049,
-0.125122,1.0498,
-0.0320435,1.00861,
0.050354,0.973511,
0.128174,0.999451,
0.202942,1.03912,
0.270081,1.04828,
0.326538,0.996399,
0.378418,0.970459,
0.424194,0.996399,
0.462341,1.05133,
0.497437,1.04675,
0.523376,1.01013,
0.544739,0.971985,
0.558472,0.993347,
0.575256,1.0498,
0.576782,1.0498,
0.587463,1.00555,
0.585938,0.975037,
0.578308,1.00098,
0.566101,1.01624,
0.547791,1.01166,
0.526428,1.01166,
0.505066,0.979614,
0.4776,0.991821,
0.45166,1.05591,
0.418091,1.04523,
0.386047,1.00555,
0.349426,0.950623,
0.312805,0.993347,
0.270081,1.0498,
0.236511,1.04828,
0.193787,1.00708,
0.154114,0.973511,
0.109863,0.996399,
0.0656128,1.04675,
0.0289917,1.04828,
-0.0152588,1.00098,
-0.050354,0.975037,
-0.088501,0.996399,
-0.126648,1.05133,
-0.158691,1.04675,
-0.192261,0.993347,
-0.218201,0.975037,
-0.247192,0.996399,
-0.271606,1.0498,
-0.297546,1.04675,
-0.32196,1.00708,
-0.337219,0.976563,
-0.357056,0.991821,
-0.376892,1.0498,
-0.387573,1.0498,
-0.404358,1.00555,
-0.411987,0.970459,
-0.422668,0.996399,
-0.431824,1.0498,
-0.434875,1.04675,
-0.442505,1.00555,
-0.445557,0.970459,
-0.450134,0.997925,
-0.445557,1.04675,
-0.445557,1.0498,
-0.444031,1.00861,
-0.437927,0.9552,
-0.43335,0.990295,
-0.42572,1.04675,
-0.418091,1.04523,
-0.410461,0.997925,
-0.40741,0.970459,
-0.404358,0.990295,
-0.402832,1.03607,
-0.393677,1.06506,
-0.396729,1.05743,
-0.402832,0.968933,
-0.408936,0.993347,
-0.411987,1.05133,
-0.416565,1.03912,
-0.42572,1.00403,
-0.440979,0.999451,
-0.45166,0.991821,
-0.465393,1.04675,
-0.4776,1.04675,
-0.492859,1.00098,
-0.506592,0.968933,
-0.526428,0.991821,
-0.543213,1.04828,
-0.563049,1.0376,
-0.582886,1.00403,
-0.6073,0.975037,
-0.628662,0.993347,
-0.650024,1.04675,
-0.682068,1.04675,
-0.712585,1.0025,
-0.744629,0.971985,
-0.78125,0.991821,
-0.811768,1.04675,
-0.849915,1.04675,
-0.88501,1.0025,
-0.918579,0.970459,
-0.952148,1.01013,
-0.984192,1.05133,
-1.01929,1.04828,
-1.05591,1.00708,
-1.091,0.968933,
-1.12305,0.990295,
-1.16119,1.04675,
-1.19019,1.06506,
-1.22986,1.0025,
-1.26801,0.970459,
-1.30463,0.997925,
-1.3382,1.05133,
-1.37329,1.0437,
-1.40686,1.00098,
-1.44043,0.970459,
-1.4801,0.993347,
-1.5152,1.0498,
-1.55487,1.04828,
-1.58997,1.00098,
-1.62964,0.965881,
-1.66626,0.990295,
-1.70288,1.03302,
-1.74255,1.04828,
-1.78223,1.00555,
-1.8219,0.971985,
-1.8631,0.991821,
-1.90277,1.04218,
-1.93939,1.05133,
-1.98517,1.01166,
-2.02484,0.970459,
-2.06604,0.993347,
-2.11182,1.04523,
-2.15302,1.04523,
-2.19879,1.00555,
-2.24304,0.968933,
-2.28119,0.991821,
-2.32239,1.04675,
-2.36816,1.04828,
-2.41089,1.00403,
-2.44904,0.965881,
-2.49481,0.987244,
-2.53906,1.0498,
-2.58026,1.05438,
-2.62299,1.00555,
-2.66418,0.970459,
-2.70538,0.98877,
-2.74658,1.05133,
-2.78168,1.04065,
-2.82593,1.01013,
-2.86713,0.968933,
-2.90375,0.990295,
-2.94037,1.04828,
-2.97852,1.0498,
-3.01361,1.00555,
-3.05328,0.965881,
-3.09296,0.984192,
-3.13416,1.05591,
-3.17383,1.04828,
-3.21198,1.00708,
-3.2486,0.970459,
-3.28674,0.98877,
-3.32336,1.05438,
-3.35388,1.04523,
-3.38898,1.00403,
-3.4256,0.965881,
-3.45764,0.991821,
-3.48816,1.04523,
-3.5202,1.04828,
-3.55377,1.00555,
-3.58887,0.965881,
-3.61481,0.985718,
-3.64227,1.04523,
-3.66974,1.0498,
-3.69568,1.00861,
-3.72162,0.964355,
-3.74298,0.991821,
-3.76892,1.04523,
-3.79028,1.0437,
-3.81012,1.0025,
-3.83606,0.964355,
-3.8559,0.987244,
-3.87573,1.04523,
-3.89862,1.04523,
-3.91388,1.0025,
-3.93372,0.967407,
-3.9505,0.985718,
-3.97339,1.04675,
-3.9856,1.05286,
-4.00543,1.0025,
-4.02985,1.01318,
-4.04968,0.991821,
-4.07104,1.0437,
-4.09241,1.0437,
-4.11072,1.00708,
-4.13513,0.964355,
-4.15649,0.98877,
-4.1748,1.0437,
-4.19312,1.0437,
-4.21753,0.968933,
-4.23889,0.970459,
-4.26025,0.990295,
-4.28009,1.04218,
-4.29688,1.04675,
-4.31824,1.00708,
-4.33655,0.967407,
-4.35333,0.984192,
-4.37012,1.04218,
-4.37927,1.04523,
-4.38843,1.0025,
-4.39301,0.958252,
-4.39606,0.984192,
-4.39453,1.04065,
-4.38385,1.05133,
-4.36401,1.00098,
-4.34265,0.965881,
-4.30756,0.98877,
-4.26025,1.04218,
-4.19769,1.05286,
-4.13055,1.00555,
-4.05273,0.965881,
-3.96271,0.984192,
-3.86505,1.04065,
-3.75671,1.04675,
-3.63922,1.00403,
-3.51105,0.961304,
-3.37677,0.965881,
-3.23792,1.03455,
-3.08685,1.04828,
-2.93274,1.00403,
-2.78015,0.964355,
-2.62299,0.975037,
-2.45819,1.03149,
-2.2934,1.04523,
-2.12402,1.00555,
-1.95923,0.965881,
-1.79443,0.985718,
-1.63269,1.0437,
-1.474,1.04523,
-1.31836,1.00098,
-1.17035,0.964355,
-1.02539,0.98877,
-0.891113,1.04065,
-0.761414,1.04675,
-0.637817,1.0025,
-0.523376,0.964355,
-0.415039,0.984192,
-0.320435,1.04065,
-0.228882,1.04675,
-0.14801,1.0025,
-0.0717163,0.956726,
-0.00610352,0.984192,
0.0549316,1.03912,
0.111389,1.04065,
0.157166,1.00098,
0.195313,0.965881,
0.228882,0.982666,
0.253296,1.04065,
0.27771,1.04218,
0.291443,1.0025,
0.306702,0.965881,
0.312805,0.987244,
0.312805,1.03912,
0.309753,1.0437,
0.30365,0.999451,
0.291443,0.968933,
0.27771,0.982666,
0.256348,1.03607,
0.234985,1.04523,
0.198364,1.00098,
0.166321,0.967407,
0.1297,0.982666,
0.088501,1.03149,
0.0442505,1.00708,
0.00457764,1.00098,
-0.0427246,0.967407,
-0.0900269,0.98114,
-0.140381,1.0376,
-0.186157,1.0498,
-0.236511,1.00098,
-0.285339,0.927734,
-0.331116,0.987244,
-0.375366,1.03912,
-0.419617,1.04828,
-0.45929,1.00098,
-0.492859,0.961304,
-0.527954,0.985718,
-0.558472,1.0376,
-0.585938,1.04523,
-0.614929,0.999451,
-0.636292,0.970459,
-0.660706,0.984192,
-0.680542,1.0437,
-0.697327,1.0437,
-0.712585,1.0025,
-0.726318,0.961304,
-0.738525,0.982666,
-0.746155,1.03455,
-0.752258,1.0437,
-0.753784,1.0025,
-0.75531,0.965881,
-0.75531,0.985718,
-0.750732,1.03455,
-0.749207,1.04523,
-0.746155,0.997925,
-0.741577,0.950623,
-0.733948,0.982666,
-0.721741,1.03455,
-0.715637,1.04523,
-0.704956,1.00403,
-0.700378,0.965881,
-0.691223,0.985718,
-0.680542,1.00861,
-0.671387,1.02386,
-0.65918,1.00098,
-0.648499,0.961304,
-0.642395,0.98877,
-0.639343,1.03302,
-0.631714,1.0437,
-0.631714,1.01013,
-0.634766,1.00098,
-0.634766,0.982666,
-0.637817,1.03302,
-0.643921,1.03912,
-0.650024,0.993347,
-0.663757,0.967407,
-0.675964,0.979614,
-0.686646,1.02997,
-0.701904,1.04218,
-0.712585,1.00098,
-0.72937,0.967407,
-0.744629,0.984192,
-0.764465,1.03912,
-0.785828,1.04523,
-0.804138,0.996399,
-0.830078,0.965881,
-0.852966,0.997925,
-0.875854,1.03302,
-0.901794,1.0437,
-0.921631,0.999451,
-0.946045,0.964355,
-0.978088,0.985718,
-1.00403,1.02692,
-1.03302,1.0376,
-1.05896,0.991821,
-1.091,0.965881,
-1.12152,0.982666,
-1.15814,1.03149,
-1.18408,1.04675,
-1.21765,0.996399,
-1.25427,0.964355,
-1.29089,0.996399,
-1.32294,1.03149,
-1.35803,1.04218,
-1.39008,0.996399,
-1.4267,0.961304,
-1.46332,0.98114,
-1.49536,1.02997,
-1.53046,1.0437,
-1.56555,0.996399,
-1.60522,0.965881,
-1.6449,0.98114,
-1.68304,1.02997,
-1.71814,1.04065,
-1.76086,0.997925,
-1.80206,0.968933,
-1.83868,0.982666,
-1.87531,1.02997,
-1.9165,1.04828,
-1.9577,0.997925,
-1.99585,0.964355,
-2.03247,0.982666,
-2.07062,1.02386,
-2.10724,1.04675,
-2.14539,0.98877,
-2.18201,0.968933,
-2.22015,0.997925,
-2.2522,1.02081,
-2.28882,1.10168,
-2.32239,0.987244,
-2.35901,0.970459,
-2.3941,0.984192,
-2.42767,1.03149,
-2.46277,1.0437,
-2.49329,1.00403,
-2.52686,0.964355,
-2.55432,0.982666,
-2.58636,1.01776,
-2.61688,1.04523,
-2.64893,0.999451,
-2.67181,0.965881,
-2.70538,0.984192,
-2.72827,1.02997,
-2.75879,1.0437,
-2.78625,1.00098,
-2.81219,0.958252,
-2.83966,0.982666,
-2.8656,1.03455,
-2.88696,1.0437,
-2.91138,0.999451,
-2.93732,0.950623,
-2.96173,0.982666,
-2.98309,1.02539,
-3.00751,1.04218,
-3.02887,0.999451,
-3.05786,0.967407,
-3.08075,0.984192,
-3.10669,1.02692,
-3.13263,1.04065,
-3.15094,0.993347,
-3.17688,0.961304,
-3.20282,0.982666,
-3.22723,1.02692,
-3.25012,1.05133,
-3.27454,1.00098,
-3.29895,0.967407,
-3.32031,0.984192,
-3.3432,1.02234,
-3.36456,1.04523,
-3.38745,0.979614,
-3.41187,0.965881,
-3.43628,0.98114,
-3.45612,1.03149,
-3.479,1.0437,
-3.50037,0.999451,
-3.53088,0.968933,
-3.55377,0.982666,
-3.58276,1.02539,
-3.60413,1.04523,
-3.62854,0.999451,
-3.65295,0.964355,
-3.68042,0.979614,
-3.6972,1.02539,
-3.72314,1.04523,
-3.75061,0.997925,
-3.77197,0.967407,
-3.80096,0.984192,
-3.8269,1.02692,
-3.84674,1.0437,
-3.8681,1.00098,
-3.89099,0.967407,
-3.91388,0.982666,
-3.94135,1.02234,
-3.96729,1.04218,
-3.99323,0.999451,
-4.01917,0.964355,
-4.0451,0.985718,
-4.06952,1.02692,
-4.09851,1.04218,
-4.11987,0.996399,
-4.14581,0.950623,
-4.17023,0.979614,
-4.19617,1.02539,
-4.216,1.0437,
-4.23584,0.997925,
-4.24805,0.964355,
-4.26178,0.985718,
-4.26636,1.01166,
-4.26178,1.03607,
-4.24805,1.05133,
-4.22363,0.965881,
-4.19617,0.984192,
-4.15649,1.02997,
-4.10004,1.03912,
-4.0329,1.0025,
-3.9566,0.968933,
-3.86658,0.982666,
-3.77197,1.02692,
-3.66516,1.04218,
-3.54614,0.997925,
-3.41949,0.967407,
-3.28827,0.984192,
-3.14941,1.02081,
-2.99683,1.04065,
-2.84729,0.987244,
-2.68555,0.967407,
-2.52533,0.982666,
-2.35901,1.01929,
-2.18811,1.0437,
-2.02026,0.999451,
-1.85089,0.967407,
-1.68304,0.982666,
-1.51825,1.02539,
-1.35498,1.04218,
-1.19934,1.00098,
-1.0437,0.967407,
-0.900269,0.987244,
-0.759888,1.02386,
-0.621033,1.0437,
-0.491333,0.997925,
-0.369263,0.965881,
-0.253296,0.982666,
-0.143433,1.02081,
-0.0442505,1.04065,
0.0473022,0.997925,
0.126648,0.965881,
0.196838,0.979614,
0.268555,1.00708,
0.331116,1.04218,
0.382996,1.00098,
0.43335,0.965881,
0.474548,0.982666,
0.512695,1.03302,
0.540161,1.03912,
0.566101,1.05133,
0.578308,0.959778,
0.595093,0.98877,
0.601196,1.01471,
0.601196,1.04218,
0.604248,0.996399,
0.596619,0.961304,
0.587463,0.982666,
0.570679,1.08032,
0.550842,1.03149,
0.523376,0.990295,
0.502014,0.970459,
0.476074,0.987244,
0.447083,1.02081,
0.413513,1.04065,
0.378418,0.996399,
0.344849,0.968933,
0.302124,0.985718,
0.262451,1.01776,
0.221252,1.04065,
0.177002,0.997925,
0.132751,0.967407,
0.0915527,0.985718,
0.050354,1.02386,
0.00915527,1.03302,
-0.0335693,0.971985,
-0.0732422,0.926208,
-0.106812,0.982666,
-0.140381,1.01318,
-0.170898,1.0498,
-0.19989,1.00708,
-0.227356,0.970459,
-0.253296,0.949097,
-0.280762,1.02234,
-0.302124,1.0437,
-0.326538,0.98114,
-0.341797,0.971985,
-0.360107,0.990295,
-0.376892,1.02386,
-0.387573,1.04218,
-0.398254,1.0376,
-0.411987,0.965881,
-0.419617,0.996399,
-0.427246,1.02081,
-0.427246,1.04218,
-0.428772,0.996399,
-0.431824,0.967407,
-0.430298,0.98114,
-0.42572,1.02081,
-0.424194,1.04065,
-0.419617,0.996399,
-0.415039,0.964355,
-0.410461,0.984192,
-0.410461,1.02081,
-0.404358,1.0376,
-0.39978,0.991821,
-0.396729,0.967407,
-0.396729,0.984192,
-0.396729,1.02081,
-0.398254,1.03607,
-0.398254,0.999451,
-0.404358,0.965881,
-0.410461,0.982666,
-0.416565,1.02081,
-0.42572,1.04065,
-0.434875,0.999451,
-0.442505,0.971985,
-0.454712,0.985718,
-0.468445,1.01624,
-0.485229,1.0376,
-0.502014,0.98877,
-0.524902,0.968933,
-0.543213,0.982666,
-0.564575,1.02081,
-0.585938,1.03912,
-0.608826,0.999451,
-0.63324,0.973511,
-0.660706,0.985718,
-0.686646,1.02081,
-0.714111,1.0376,
-0.744629,0.997925,
-0.772095,0.973511,
-0.804138,0.98114,
-0.836182,1.01776,
-0.866699,1.03912,
-0.898743,0.997925,
-0.933838,0.970459,
-0.968933,0.982666,
-1.00555,1.01929,
-1.04065,1.0376,
-1.08032,0.997925,
-1.11847,0.970459,
-1.15509,0.985718,
-1.19781,1.01776,
-1.22986,1.0376,
-1.26801,1.00098,
-1.30463,0.970459,
-1.34277,0.987244,
-1.37787,1.02081,
-1.41907,1.03912,
-1.45874,0.993347,
-1.49689,0.973511,
-1.53351,0.984192,
-1.5686,1.01929,
-1.60675,1.0376,
-1.64337,0.999451,
-1.67999,0.971985,
-1.71661,0.985718,
-1.75934,1.01929,
-1.80206,1.02692,
-1.84021,1.00098,
-1.88293,0.971985,
-1.92719,0.985718,
-1.96686,1.01929,
-2.00653,1.03912,
-2.0462,0.990295,
-2.08435,0.970459,
-2.12097,0.98877,
-2.15454,1.01624,
-2.19116,1.0376,
-2.22626,1.00708,
-2.25525,0.967407,
-2.28729,0.979614,
-2.31476,1.06659,
-2.34375,1.04218,
-2.37122,1.00098,
-2.39868,0.970459,
-2.42767,0.991821,
-2.45819,1.01624,
-2.4826,1.04065,
-2.51312,1.00098,
-2.54059,0.9552,
-2.57111,0.961304,
-2.6001,1.01166,
-2.63062,1.03455,
-2.66266,1.00098,
-2.6886,0.970459,
-2.71912,0.98877,
-2.74506,1.01318,
-2.77252,1.04065,
-2.79846,1.00098,
-2.82898,0.967407,
-2.85187,0.982666,
-2.87628,1.01471,
-2.9068,1.03607,
-2.92969,1.0025,
-2.9541,0.970459,
-2.98157,0.98877,
-3.00903,1.01471,
-3.03497,1.03455,
-3.05939,0.997925,
-3.08228,0.971985,
-3.10974,0.98877,
-3.12805,1.01624,
-3.15399,1.03607,
-3.17535,0.997925,
-3.20282,0.971985,
-3.22418,0.985718,
-3.25165,1.01471,
-3.27301,1.0376,
-3.29895,0.999451,
-3.32336,0.968933,
-3.34625,0.984192,
-3.36609,1.02081,
-3.39203,1.04523,
-3.41492,1.01013,
-3.43475,0.975037,
-3.45764,0.98877,
-3.48053,1.01471,
-3.50342,1.03607,
-3.53088,1.00555,
-3.55682,0.9552,
-3.58582,0.98877,
-3.60718,1.01624,
-3.63159,1.03455,
-3.65601,1.00403,
-3.68195,0.971985,
-3.70483,0.987244,
-3.7323,1.01318,
-3.75519,1.03607,
-3.78723,1.00098,
-3.8147,0.971985,
-3.83759,0.985718,
-3.86353,1.01013,
-3.89252,1.03302,
-3.91693,1.00555,
-3.94592,0.971985,
-3.97644,0.990295,
-4.00238,1.01471,
-4.02985,1.03455,
-4.05579,0.991821,
-4.07867,0.970459,
-4.10614,0.985718,
-4.13055,1.01013,
-4.15649,1.03912,
-4.18396,0.997925,
-4.2099,0.971985,
-4.23431,0.973511,
-4.25568,1.01929,
-4.28162,1.03607,
-4.3045,1.00403,
-4.32129,0.971985,
-4.34265,0.991821,
-4.35181,1.01624,
-4.36096,1.03455,
-4.36249,1.00098,
-4.35944,0.973511,
-4.3457,0.990295,
-4.32281,1.01471,
-4.29077,1.03302,
-4.24347,1.00098,
-4.18549,0.971985,
-4.11987,0.984192,
-4.04358,1.01318,
-3.9566,1.03912,
-3.84827,1.00861,
-3.73993,0.968933,
-3.62549,0.98877,
-3.49731,1.01624,
-3.36456,1.03149,
-3.22723,1.00708,
-3.08075,0.967407,
-2.92511,0.98877,
-2.76642,1.01166,
-2.6062,1.03912,
-2.44751,1.0025,
-2.27814,0.978088,
-2.11029,0.985718,
-1.94397,1.01471,
-1.77765,1.0376,
-1.61285,1.00403,
-1.45264,0.971985,
-1.29547,0.990295,
-1.14136,1.02234,
-0.990295,1.03607,
-0.849915,0.999451,
-0.718689,0.975037,
-0.593567,0.987244,
-0.474548,1.01471,
-0.364685,1.03455,
-0.256348,1.00555,
-0.163269,0.973511,
-0.0686646,0.98114,
0.00915527,1.01929,
0.0839233,1.03607,
0.152588,0.964355,
0.212097,0.971985,
0.263977,0.996399,
0.309753,1.00708,
0.35553,1.03302,
0.386047,1.00861,
0.413513,0.961304,
0.430298,1.0498,
0.447083,1.01166,
0.456238,1.03455,
0.460815,0.997925,
0.456238,0.975037,
0.450134,0.98114,
0.439453,1.01471,
0.430298,1.02692,
0.415039,1.00098,
0.390625,0.975037,
0.367737,0.987244,
0.341797,1.01471,
0.315857,1.03607,
0.282288,1.00403,
0.253296,0.973511,
0.215149,0.98877,
0.18158,1.01318,
0.140381,1.03149,
0.105286,1.00403,
0.062561,0.970459,
0.0244141,0.987244,
-0.0152588,0.996399,
-0.0564575,1.03455,
-0.0961304,1.00708,
-0.134277,0.976563,
-0.17395,0.98877,
-0.210571,1.01166,
-0.245667,1.03149,
-0.279236,1.0025,
-0.308228,0.976563,
-0.340271,0.98877,
-0.367737,1.01471,
-0.393677,1.03455,
-0.415039,1.00555,
-0.43335,0.973511,
-0.456238,0.987244,
-0.473022,1.00861,
-0.489807,1.02997,
-0.508118,1.00555,
-0.523376,0.975037,
-0.535583,0.98877,
-0.547791,1.00708,
-0.563049,1.03302,
-0.570679,1.00403,
-0.578308,0.975037,
-0.590515,0.98877,
-0.598145,1.01166,
-0.601196,1.02997,
-0.604248,1.0025,
-0.6073,0.973511,
-0.6073,0.98877,
-0.6073,1.01013,
-0.608826,1.02997,
-0.611877,1.00555,
-0.613403,0.971985,
-0.621033,0.990295,
-0.624084,1.01318,
-0.624084,1.03149,
-0.630188,1.00708,
-0.636292,0.975037,
-0.645447,0.985718,
-0.656128,1.01318,
-0.671387,1.02539,
-0.683594,1.0025,
-0.700378,0.970459,
-0.718689,0.985718,
-0.740051,1.01166,
-0.758362,1.03149,
-0.776672,1.00555,
-0.802612,0.971985,
-0.827026,0.985718,
-0.85144,1.01166,
-0.872803,1.02692,
-0.901794,1.00708,
-0.927734,0.973511,
-0.956726,0.987244,
-0.985718,1.01013,
-1.01624,1.02997,
-1.05133,1.00403,
-1.08337,0.968933,
-1.11237,0.984192,
-1.14441,1.01166,
-1.17798,1.02692,
-1.21155,1.00403,
-1.24664,0.971985,
-1.28632,0.996399,
-1.31989,1.01013,
-1.35803,1.03455,
-1.39465,1.00555,
-1.4389,0.970459,
-1.474,0.990295,
-1.51062,1.01166,
-1.55029,1.03607,
-1.58386,1.00403,
-1.61743,0.975037,
-1.65405,0.987244,
-1.69373,1.00861,
-1.72882,1.03302,
-1.76697,1.00403,
-1.80359,0.970459,
-1.84479,0.98877,
-1.88446,1.01166,
-1.92108,1.02997,
-1.95923,1.00098,
-1.9989,0.971985,
-2.034,0.98877,
-2.07062,1.01013,
-2.10266,1.02997,
-2.13776,1.00555,
-2.1698,0.973511,
-2.20184,0.98877,
-2.23236,1.00861,
-2.26593,1.02997,
-2.29492,1.0025,
-2.32544,0.973511,
-2.35596,0.985718,
-2.38342,1.01013,
-2.41241,1.02081,
-2.43988,0.991821,
-2.46582,0.970459,
-2.49786,0.997925,
-2.52075,1.01471,
-2.54669,1.03149,
-2.56805,1.04523,
-2.59705,0.971985,
-2.62146,0.990295,
-2.64893,1.01166,
-2.67487,1.01776,
-2.69775,1.01166,
-2.72827,0.976563,
-2.76031,0.985718,
-2.78778,1.01166,
-2.81677,1.03302,
-2.84424,1.0025,
-2.87018,0.973511,
-2.89917,0.98877,
-2.92664,1.01013,
-2.95258,1.03149,
-2.98157,1.00708,
-3.00446,0.968933,
-3.0304,0.987244,
-3.05634,1.01013,
-3.08075,1.02386,
-3.10822,1.00555,
-3.13416,0.975037,
-3.15857,0.984192,
-3.17993,1.00098,
-3.20892,1.04218,
-3.22876,1.00861,
-3.25317,0.971985,
-3.28217,0.985718,
-3.29742,1.00861,
-3.32031,1.02997,
-3.34473,1.01013,
-3.36761,0.987244,
-3.38898,0.987244,
-3.41034,1.01013,
-3.43475,1.02539,
-3.45306,1.00403,
-3.47595,0.970459,
-3.49426,0.985718,
-3.51868,1.00861,
-3.53851,1.02539,
-3.5614,1.00861,
-3.58429,0.973511,
-3.6026,0.984192,
-3.62701,1.01166,
-3.6499,1.02234,
-3.67279,1.0025,
-3.69873,0.973511,
-3.72314,0.987244,
-3.74146,1.01166,
-3.76434,1.03149,
-3.78876,1.00403,
-3.80859,0.975037,
-3.83453,0.991821,
-3.85895,1.00098,
-3.88336,1.02386,
-3.90625,1.00555,
-3.93372,0.976563,
-3.95813,0.987244,
-3.98407,1.01013,
-4.01154,1.02692,
-4.039,1.01318,
-4.06647,0.971985,
-4.09546,0.987244,
-4.12445,1.01013,
-4.14581,1.02997,
-4.17023,1.00861,
-4.19769,0.973511,
-4.22363,0.984192,
-4.25262,1.01013,
-4.27551,1.03149,
-4.29535,1.00555,
-4.31213,0.973511,
-4.31671,0.98877,
-4.31976,1.01013,
-4.31366,1.02997,
-4.29535,1.00403,
-4.26788,0.971985,
-4.23431,0.990295,
-4.19617,1.01013,
-4.14276,1.02539,
-4.08173,1.00708,
-4.00848,0.973511,
-3.92761,0.985718,
-3.83759,1.01318,
-3.73688,1.02692,
-3.63464,1.01624,
-3.52478,0.975037,
-3.41339,0.990295,
-3.29132,1.00708,
-3.16925,1.03149,
-3.03955,1.00708,
-2.90833,0.975037,
-2.77405,1.00098,
-2.6413,1.00708,
-2.50702,1.02692,
-2.37732,1.00708,
-2.24457,0.973511,
-2.11639,0.987244,
-1.98822,1.00861,
-1.86462,1.02997,
-1.74713,1.00708,
-1.63116,0.973511,
-1.52283,0.987244,
-1.41907,1.00555,
-1.32141,1.02539,
-1.22375,1.00861,
-1.14441,0.971985,
-1.05896,0.982666,
-0.984192,1.00861,
-0.914001,1.02997,
-0.85144,1.00708,
-0.793457,0.968933,
-0.744629,0.987244,
-0.701904,1.00861,
-0.665283,1.02539,
-0.63324,1.00708,
-0.610352,0.975037,
-0.593567,0.984192,
-0.579834,1.01166,
-0.575256,1.03149,
-0.578308,1.00555,
-0.579834,0.973511,
-0.592041,0.982666,
-0.601196,1.00861,
-0.614929,1.02386,
-0.637817,1.00708,
-0.657654,0.973511,
-0.683594,1.00098,
-0.714111,1.00861,
-0.749207,1.02692,
-0.788879,1.00555,
-0.830078,0.976563,
-0.872803,0.991821,
-0.918579,1.00098,
-0.961304,1.08643,
-1.01013,1.00403,
-1.05743,0.976563,
-1.10321,0.979614,
-1.14594,1.01166,
-1.19324,1.03149,
-1.23596,1.00555,
-1.27716,0.984192,
-1.32141,0.952148,
-1.36261,1.00708,
-1.40686,1.02234,
-1.44348,1.00861,
-1.48315,0.979614,
-1.51978,0.985718,
-1.55334,1.01166,
-1.58691,1.02539,
-1.61438,1.01013,
-1.64337,0.976563,
-1.66779,0.982666,
-1.6922,1.00708,
-1.70746,1.02997,
-1.72424,1.00861,
-1.73492,0.982666,
-1.74561,0.985718,
-1.75018,1.01013,
-1.75629,1.03149,
-1.76239,1.01166,
-1.76239,0.982666,
-1.76544,0.971985,
-1.76849,1.01166,
-1.77002,1.03455,
-1.76697,1.01013,
-1.76544,0.976563,
-1.76086,0.987244,
-1.75934,1.01166,
-1.75171,1.01776,
-1.75018,1.01013,
-1.74408,0.975037,
-1.73798,0.985718,
-1.73645,1.00861,
-1.72882,1.02997,
-1.72577,1.01013,
-1.72577,0.976563,
-1.72424,0.985718,
-1.72424,1.00861,
-1.72882,1.02692,
-1.73187,1.00861,
-1.73798,0.975037,
-1.74561,0.982666,
-1.75018,1.01013,
-1.75629,1.02997,
-1.76086,1.01318,
-1.77612,0.973511,
-1.78986,0.985718,
-1.80054,1.01471,
-1.81732,1.02997,
-1.84021,1.0025,
-1.85547,0.973511,
-1.87988,0.984192,
-1.90277,1.01013,
-1.92261,1.06964,
-1.94855,1.01013,
-1.97296,0.984192,
-2.00195,0.978088,
-2.02484,1.01166,
-2.04926,1.04065,
-2.0752,1.01471,
-2.10571,0.979614,
-2.13318,0.991821,
-2.16064,1.01471,
-2.18964,1.03455,
-2.21863,1.00708,
-2.24915,0.978088,
-2.27356,0.982666,
-2.30255,1.01624,
-2.33307,1.03912,
-2.35901,1.01471,
-2.39258,0.979614,
-2.42462,0.987244,
-2.45514,1.01318,
-2.48718,1.0376,
-2.52075,1.01166,
-2.54974,0.978088,
-2.58636,0.973511,
-2.62299,1.01471,
-2.65198,1.03607,
-2.6886,1.01318,
-2.72675,0.978088,
-2.76184,0.991821,
-2.79846,1.01624,
-2.83051,1.03455,
-2.86713,1.01776,
-2.90527,0.987244,
-2.93579,0.98114,
-2.96783,1.01776,
-2.99835,1.03149,
-3.02887,1.01318,
-3.06702,0.973511,
-3.10211,0.968933,
-3.13568,1.01166,
-3.1662,1.03149,
-3.19214,1.01318,
-3.22418,0.976563,
-3.24707,0.984192,
-3.27606,0.996399,
-3.30505,1.02692,
-3.32642,1.01318,
-3.35388,0.975037,
-3.3783,0.98877,
-3.40881,1.01776,
-3.43323,1.03607,
-3.46069,1.01318,
-3.48663,0.979614,
-3.5141,0.984192,
-3.54004,1.01013,
-3.56598,1.03149,
-3.58887,1.00708,
-3.61176,0.973511,
-3.63617,0.985718,
-3.66211,1.01166,
-3.68347,1.03455,
-3.70483,1.01471,
-3.7262,0.973511,
-3.75519,0.984192,
-3.77808,1.01318,
-3.80249,1.03149,
-3.82233,1.01624,
-3.84369,0.979614,
-3.87115,0.98114,
-3.89099,1.01318,
-3.91388,0.999451,
-3.93982,1.00708,
-3.96118,0.98114,
-3.98407,0.987244,
-4.00696,1.00861,
-4.02985,1.04523,
-4.04968,1.01318,
-4.07257,1.0376,
-4.09546,0.973511,
-4.11224,1.01166,
-4.13208,1.04675,
-4.15497,1.02386,
-4.17938,0.959778,
-4.19769,0.987244,
-4.21448,1.01776,
-4.23431,1.0437,
-4.2511,1.01318,
-4.27094,0.973511,
-4.28467,0.991821,
-4.29993,1.01624,
-4.31061,1.0376,
-4.31366,1.01776,
-4.31213,0.971985,
-4.30603,0.984192,
-4.2923,0.991821,
-4.27094,1.03455,
-4.23889,1.01624,
-4.19769,0.975037,
-4.14734,0.987244,
-4.09393,1.01471,
-4.02832,0.999451,
-3.9566,1.01929,
-3.87115,0.978088,
-3.78723,0.987244,
-3.68958,1.01624,
-3.58276,1.0437,
-3.47137,1.02539,
-3.35388,0.944519,
-3.23486,0.98877,
-3.10974,1.01624,
-2.98462,1.03302,
-2.85645,1.02234,
-2.72522,0.985718,
-2.6001,0.98877,
-2.47192,1.01624,
-2.34528,1.0376,
-2.22168,1.01624,
-2.10266,0.98114,
-1.97754,0.991821,
-1.86615,1.01624,
-1.75476,1.03912,
-1.65253,1.02692,
-1.55334,0.982666,
-1.45874,0.979614,
-1.36871,1.01929,
-1.28479,1.04828,
-1.2085,1.02234,
-1.12915,0.979614,
-1.05896,0.991821,
-0.994873,1.02386,
-0.938416,1.02386,
-0.88501,1.02081,
-0.840759,0.967407,
-0.802612,0.98877,
-0.769043,1.01929,
-0.740051,1.04065,
-0.715637,1.02081,
-0.698853,0.982666,
-0.680542,0.987244,
-0.671387,1.01929,
-0.665283,1.03912,
-0.662231,1.02234,
-0.665283,0.978088,
-0.668335,0.990295,
-0.682068,1.02234,
-0.700378,1.04065,
-0.714111,1.02081,
-0.737,0.984192,
-0.762939,0.991821,
-0.785828,1.01776,
-0.816345,1.03912,
-0.846863,1.01776,
-0.878906,0.982666,
-0.917053,0.98877,
-0.953674,1.01776,
-0.994873,1.0498,
-1.0376,1.0025,
-1.07422,0.98114,
-1.12,0.997925,
-1.16577,1.02386,
-1.20544,1.03912,
-1.24969,1.02386,
-1.28937,0.985718,
-1.32904,0.991821,
-1.36719,1.02081,
-1.40533,1.04065,
-1.43738,1.02997,
-1.47247,0.985718,
-1.50452,0.993347,
-1.53198,1.02386,
-1.56097,1.04523,
-1.58691,1.03149,
-1.60828,0.98877,
-1.62964,1.0025,
-1.64642,1.02539,
-1.66321,1.0498,
-1.67236,1.03455,
-1.68762,0.982666,
-1.69678,1.0025,
-1.70135,1.03607,
-1.70746,1.0498,
-1.71356,1.03607,
-1.71661,0.991821,
-1.71814,0.997925,
-1.72119,1.02997,
-1.72272,1.04828,
-1.72424,1.03455,
-1.72882,0.996399,
-1.72882,0.997925,
-1.72577,1.02692,
-1.72882,1.0437,
-1.7334,1.01318,
-1.73035,0.991821,
-1.73492,0.996399,
-1.7334,1.02692,
-1.7334,1.0437,
-1.73645,1.02692,
-1.73645,0.991821,
-1.7395,0.999451,
-1.74255,1.02081,
-1.74561,1.03912,
-1.75171,1.02234,
-1.76544,0.985718,
-1.76849,0.990295,
-1.77917,1.02997,
-1.78986,1.01929,
-1.79749,1.02539,
-1.80511,0.982666,
-1.81732,0.990295,
-1.82953,1.02081,
-1.84479,1.0376,
-1.86157,1.02386,
-1.87988,0.984192,
-1.90277,0.98877,
-1.91803,1.01776,
-1.94092,1.03455,
-1.95923,1.02081,
-1.98059,0.98114,
-2.00653,0.98877,
-2.03552,1.02234,
-2.05994,1.04065,
-2.09198,1.02234,
-2.12708,0.979614,
-2.15759,0.990295,
-2.18964,1.01929,
-2.2171,1.0376,
-2.24915,1.02386,
-2.27966,0.982666,
-2.30865,0.996399,
-2.34222,1.02539,
-2.36969,1.03912,
-2.40173,1.02234,
-2.43378,0.984192,
-2.46124,0.993347,
-2.49481,1.02234,
-2.52838,1.04523,
-2.55737,1.02234,
-2.58942,0.98114,
-2.62146,1.00403,
-2.65198,1.02539,
-2.68555,1.03607,
-2.71759,1.01776,
-2.74658,0.984192,
-2.77557,0.985718,
-2.80151,1.01471,
-2.82745,1.05286,
-2.8595,1.02692,
-2.88391,0.98114,
-2.91443,0.98877,
-2.94037,1.01929,
-2.96936,1.03607,
-2.99072,1.02386,
-3.02429,0.978088,
-3.05023,0.984192,
-3.08228,1.01776,
-3.10974,1.03302,
-3.13568,1.02539,
-3.16162,0.98114,
-3.19214,0.996399,
-3.21808,1.01929,
-3.25012,1.03912,
-3.27148,1.02386,
-3.29742,0.982666,
-3.32947,0.996399,
-3.35693,1.03149,
-3.38287,1.04218,
-3.41339,1.02997,
-3.44086,0.982666,
-3.46375,0.990295,
-3.49426,1.02234,
-3.5202,1.04065,
-3.54309,1.02692,
-3.56445,0.990295,
-3.58582,0.990295,
-3.61328,1.02234,
-3.63464,1.04218,
-3.65753,1.02997,
-3.67126,0.98114,
-3.69415,0.98877,
-3.71552,1.01929,
-3.72925,1.04065,
-3.75061,1.02692,
-3.76282,0.978088,
-3.78723,1.04828,
-3.80554,1.02081,
-3.8208,1.04065,
-3.83911,1.02692,
-3.86047,0.98114,
-3.87878,0.990295,
-3.89862,1.02234,
-3.92151,1.04065,
-3.93982,1.02539,
-3.95203,0.984192,
-3.97339,0.991821,
-3.99475,1.02234,
-4.01459,1.04065,
-4.04053,1.02539,
-4.06189,0.982666,
-4.08173,0.990295,
-4.10309,1.02386,
-4.12292,1.03607,
-4.14734,1.02692,
-4.16565,0.984192,
-4.19006,0.984192,
-4.21143,1.02234,
-4.23431,1.0437,
-4.25415,1.02692,
-4.27856,0.985718,
-4.30145,0.990295,
-4.32892,1.02539,
-4.34875,1.02692,
-4.37469,1.02539,
-4.39453,0.98114,
-4.422,0.990295,
-4.44641,1.02386,
-4.46777,1.04218,
-4.48914,1.02997,
-4.51355,0.982666,
-4.52881,0.98877,
-4.55627,1.02234,
-4.57611,1.04218,
-4.60205,1.03149,
-4.62189,0.987244,
-4.64325,0.993347,
-4.66309,1.02386,
-4.67987,1.04065,
-4.69513,1.02997,
-4.70581,0.987244,
-4.71649,0.987244,
-4.71802,1.02386,
-4.71802,1.04065,
-4.70886,1.02692,
-4.69208,0.98114,
-4.67224,0.985718,
-4.63562,1.01776,
-4.58984,1.04218,
-4.53644,1.02692,
-4.47388,0.98114,
-4.39911,0.990295,
-4.31366,1.02386,
-4.22516,1.04065,
-4.13055,1.00708,
-4.02832,0.984192,
-3.91388,0.98877,
-3.79639,1.02692,
-3.67584,1.04523,
-3.54919,1.02997,
-3.42255,0.991821,
-3.28674,0.98877,
-3.15399,1.02234,
-3.01666,1.04065,
-2.88086,1.02539,
-2.74353,0.984192,
-2.60925,0.987244,
-2.4704,1.02386,
-2.33917,1.04065,
-2.20947,1.02692,
-2.07825,0.985718,
-1.9577,0.98877,
-1.83716,1.02081,
-1.72577,1.04065,
-1.62201,1.02692,
-1.5152,0.987244,
-1.41907,0.98877,
-1.32446,1.02386,
-1.24054,1.04065,
-1.15814,1.03149,
-1.08795,0.982666,
-1.02234,0.990295,
-0.961304,1.02386,
-0.91095,1.04065,
-0.866699,1.01318,
-0.822449,0.982666,
-0.793457,0.987244,
-0.761414,1.02081,
-0.735474,1.04065,
-0.709534,1.02997,
-0.692749,0.982666,
-0.67749,0.984192,
-0.668335,1.02081,
-0.665283,1.03912,
-0.668335,1.02539,
-0.671387,0.971985,
-0.67749,0.952148,
-0.689697,1.01471,
-0.700378,1.04523,
-0.714111,1.03149,
-0.735474,0.987244,
-0.752258,0.996399,
-0.770569,1.01013,
-0.796509,1.01776,
-0.817871,1.03149,
-0.842285,0.982666,
-0.872803,0.993347,
-0.90332,1.02234,
-0.938416,1.04218,
-0.967407,1.03302,
-1.00555,0.965881,
-1.0376,0.987244,
-1.06964,1.01929,
-1.09863,1.0376,
-1.12762,1.02997,
-1.15662,0.978088,
-1.18408,0.985718,
-1.2085,1.01929,
-1.23138,1.03912,
-1.25122,1.0437,
-1.26953,0.984192,
-1.29089,0.982666,
-1.30615,1.02081,
-1.32446,1.03912,
-1.33667,1.02692,
-1.35193,0.982666,
-1.36414,0.985718,
-1.37482,1.01929,
-1.38245,1.03912,
-1.3916,1.0376,
-1.40381,0.982666,
-1.41296,0.98877,
-1.41907,1.02234,
-1.4267,1.03912,
-1.43433,1.02692,
-1.43585,0.98114,
-1.43738,0.98877,
-1.44348,1.01929,
-1.44806,1.03912,
-1.44806,1.02997,
-1.44348,0.978088,
-1.44653,0.984192,
-1.44043,1.01776,
-1.4389,1.04218,
-1.43738,1.03302,
-1.43433,0.975037,
-1.43127,0.982666,
-1.42822,1.01929,
-1.43127,1.03912,
-1.42975,1.02539,
-1.4328,0.978088,
-1.43738,0.987244,
-1.4389,1.01929,
-1.44196,1.0376,
-1.45264,1.02692,
-1.46332,0.978088,
-1.47247,0.984192,
-1.48926,1.01624,
-1.50299,1.03607,
-1.52435,1.02997,
-1.53809,0.979614,
-1.55334,0.985718,
-1.5686,1.03149,
-1.58997,1.0376,
-1.60828,1.02997,
-1.63116,0.978088,
-1.6571,1.01013,
-1.67999,1.02081,
-1.70898,1.03607,
-1.73798,1.02692,
-1.76239,0.973511,
-1.79596,0.984192,
-1.81885,1.00861,
-1.84326,1.09253,
-1.87225,0.991821,
-1.90125,0.98114,
-1.93024,0.999451,
-1.9577,1.01776,
-1.98822,1.03912,
-2.01721,1.03149,
-2.04773,0.967407,
-2.08282,0.982666,
-2.11487,1.00708,
-2.14844,1.04828,
-2.18048,1.02386,
-2.21558,0.975037,
-2.24915,0.982666,
-2.28119,1.01624,
-2.31476,1.04065,
-2.35138,1.03455,
-2.37885,0.971985,
-2.41394,0.984192,
-2.44598,1.01776,
-2.47955,1.04065,
-2.50702,1.02997,
-2.54211,0.976563,
-2.57721,0.984192,
-2.6062,1.01624,
-2.63214,1.04218,
-2.66876,1.02386,
-2.69775,0.978088,
-2.72675,0.979614,
-2.75421,1.01318,
-2.78625,1.0376,
-2.81372,1.02997,
-2.84576,0.970459,
-2.87323,0.98114,
-2.90222,1.01471,
-2.92664,1.04065,
-2.95105,1.02234,
-2.97699,0.975037,
-3.00751,0.982666,
-3.03497,1.01318,
-3.05786,1.0376,
-3.08533,1.02386,
-3.11279,0.976563,
-3.13873,0.984192,
-3.16162,1.01471,
-3.18451,1.03912,
-3.20587,1.02692,
-3.22723,0.973511,
-3.25165,0.982666,
-3.26996,1.01624,
-3.28827,1.04065,
-3.31421,1.02539,
-3.33252,0.973511,
-3.35236,0.982666,
-3.37524,1.01624,
-3.3905,1.03912,
-3.41187,1.02692,
-3.43475,0.973511,
-3.45306,0.982666,
-3.47595,1.01624,
-3.49426,1.03912,
-3.51715,1.03455,
-3.53699,0.973511,
-3.55835,0.98114,
-3.58429,1.02692,
-3.60718,1.02692,
-3.62701,1.08643,
-3.64685,0.952148,
-3.66516,0.978088,
-3.68958,1.01471,
-3.70636,1.03912,
-3.7262,1.02539,
-3.75061,0.978088,
-3.76892,0.979614,
-3.78418,1.01776,
-3.80554,1.03302,
-3.82996,1.02539,
-3.84674,0.973511,
-3.8681,0.978088,
-3.88794,1.01929,
-3.90472,1.04523,
-3.92914,1.02234,
-3.94745,0.979614,
-3.97034,0.979614,
-3.99323,1.01471,
-4.01001,1.03912,
-4.0329,1.02234,
-4.05273,0.970459,
-4.07867,0.979614,
-4.10004,1.01318,
-4.1214,1.0376,
-4.15039,1.01929,
-4.1687,0.973511,
-4.20074,0.978088,
-4.22058,1.01013,
-4.24957,1.03607,
-4.27246,1.02234,
-4.29993,0.975037,
-4.32434,0.978088,
-4.35028,1.01166,
-4.37469,1.0376,
-4.39758,1.01776,
-4.42657,0.98114,
-4.45404,0.982666,
-4.48303,1.01166,
-4.5105,1.04065,
-4.53186,1.02386,
-4.5578,0.973511,
-4.58221,0.984192,
-4.6051,1.02539,
-4.62646,1.0376,
-4.64325,1.02081,
-4.66156,0.975037,
-4.67987,0.979614,
-4.69208,1.01166,
-4.6936,1.03912,
-4.69055,1.02234,
-4.68597,0.975037,
-4.66766,0.976563,
-4.64325,1.01166,
-4.61273,1.03912,
-4.57458,1.02386,
-4.52728,0.973511,
-4.47388,0.976563,
-4.40521,1.01166,
-4.33044,1.0376,
-4.24652,1.01776,
-4.15802,0.970459,
-4.05579,0.976563,
-3.95508,1.01013,
-3.84369,1.03607,
-3.72467,1.01929,
-3.60718,0.971985,
-3.48358,0.978088,
-3.35541,1.00708,
-3.22418,1.03912,
-3.09143,1.02386,
-2.96021,0.953674,
-2.82898,0.98114,
-2.69775,1.01166,
-2.56653,1.04065,
-2.43835,1.02234,
-2.31323,0.971985,
-2.19116,0.987244,
-2.07214,1.01929,
-1.95618,1.0376,
-1.84631,1.02081,
-1.74255,0.975037,
-1.6449,0.975037,
-1.55182,1.00708,
-1.46027,1.04218,
-1.37939,1.01929,
-1.30463,0.973511,
-1.23444,0.979614,
-1.17188,1.01013,
-1.11237,1.03455,
-1.05743,1.03912,
-1.01166,0.970459,
-0.970459,0.976563,
-0.932312,1.00555,
-0.900269,1.02997,
-0.872803,1.01776,
-0.854492,0.968933,
-0.842285,0.975037,
-0.828552,1.00861,
-0.820923,1.03912,
-0.816345,1.01929,
-0.811768,0.970459,
-0.819397,0.968933,
-0.827026,1.05896,
-0.83313,1.05286,
-0.843811,1.02997,
-0.857544,0.971985,
-0.880432,0.975037,
-0.900269,1.01013,
-0.920105,1.03912,
-0.942993,1.01929,
-0.970459,0.964355,
-1.00098,0.959778,
-1.02997,1.00708,
-1.06201,1.03455,
-1.091,1.02234,
-1.12305,0.975037,
-1.15051,0.98114,
-1.17798,0.999451,
-1.21307,1.03607,
-1.24207,1.01624,
-1.27106,0.968933,
-1.30463,0.971985,
-1.33209,1.01013,
-1.35651,1.0376,
-1.38245,0.98114,
-1.40076,0.971985,
-1.42822,0.976563,
-1.45264,1.00708,
-1.474,1.0376,
-1.49078,1.01776,
-1.50757,0.956726,
-1.5213,0.973511,
-1.53198,1.00708,
-1.53809,1.03607,
-1.54114,1.01624,
-1.54877,0.971985,
-1.55182,0.968933,
-1.5564,1.01929,
-1.55945,1.0376,
-1.5625,1.01776,
-1.56097,0.970459,
-1.56403,0.970459,
-1.5625,1.00555,
-1.5564,1.0376,
-1.55334,1.01471,
-1.55182,0.971985,
-1.54419,0.967407,
-1.54419,1.0025,
-1.54266,1.03607,
-1.53961,1.01929,
-1.53809,0.968933,
-1.53656,0.971985,
-1.53656,1.00555,
-1.53351,1.04065,
-1.53503,1.02081,
-1.53656,0.952148,
-1.53961,0.970459,
-1.53961,1.0025,
-1.54114,1.04218,
-1.55182,1.02081,
-1.55487,0.968933,
-1.55945,0.996399,
-1.56555,0.973511,
-1.57166,1.03912,
-1.57928,1.01776,
-1.59149,0.970459,
-1.6037,0.970459,
-1.61896,1.00555,
-1.63116,1.03607,
-1.64642,1.01929,
-1.66321,0.970459,
-1.67694,0.965881,
-1.6983,1.00708,
-1.71509,1.03607,
-1.73645,1.01624,
-1.75781,0.970459,
-1.77917,0.971985,
-1.80359,1.00708,
-1.82953,1.0376,
-1.85242,1.01471,
-1.87683,0.968933,
-1.90277,0.967407,
-1.92719,1.00555,
-1.94855,1.0376,
-1.97296,1.01776,
-2.00653,0.968933,
-2.0401,0.970459,
-2.07062,1.00555,
-2.10114,1.02081,
-2.12708,1.01624,
-2.16522,0.967407,
-2.19574,0.968933,
-2.22778,1.00403,
-2.25525,1.03302,
-2.28119,1.01776,
-2.31323,0.971985,
-2.34528,0.976563,
-2.37885,1.0025,
-2.41089,1.03912,
-2.43835,1.01929,
-2.4704,0.965881,
-2.49786,0.967407,
-2.53143,1.0025,
-2.56195,1.03607,
-2.59399,1.01624,
-2.62604,0.968933,
-2.65961,0.968933,
-2.6886,1.00403,
-2.72217,1.04065,
-2.75269,1.02386,
-2.77863,0.971985,
-2.80762,0.979614,
-2.83508,0.999451,
-2.86102,1.0376,
-2.88696,1.00098,
-2.91138,0.976563,
-2.93732,0.967407,
-2.96173,1.0025,
-2.98462,1.03455,
-3.00903,1.01776,
-3.0304,0.967407,
-3.05176,0.967407,
-3.0777,0.985718,
-3.09906,1.03607,
-3.12042,1.02234,
-3.14331,0.970459,
-3.16772,0.965881,
-3.18451,0.999451,
-3.19672,1.04828,
-3.21808,1.01471,
-3.23639,0.970459,
-3.25775,0.965881,
-3.27606,1.00098,
-3.29742,1.03607,
-3.32031,1.01776,
-3.33862,0.967407,
-3.35999,0.968933,
-3.3783,1.00403,
-3.39508,1.03455,
-3.41644,1.01624,
-3.43475,0.967407,
-3.45306,0.967407,
-3.46985,1.00098,
-3.48816,1.0376,
-3.50952,1.01318,
-3.52783,0.967407,
-3.54919,0.965881,
-3.57056,0.999451,
-3.58582,1.03455,
-3.60718,1.01776,
-3.62549,0.979614,
-3.64227,0.965881,
-3.66058,1.00098,
-3.67737,1.03607,
-3.70178,1.01318,
-3.71552,0.967407,
-3.73688,0.971985,
-3.74908,1.00098,
-3.76282,1.03302,
-3.78113,1.0437,
-3.80249,0.997925,
-3.8269,0.967407,
-3.84216,0.984192,
-3.86505,1.04523,
-3.88184,1.01166,
-3.90167,0.965881,
-3.92456,0.964355,
-3.9444,1.00098,
-3.96271,1.01624,
-3.98407,1.00555,
-4.00238,0.971985,
-4.02527,0.967407,
-4.04358,0.999451,
-4.06342,1.0376,
-4.07715,1.01166,
-4.0863,0.970459,
-4.09698,0.965881,
-4.10004,1.0025,
-4.10614,1.03302,
-4.10004,1.01471,
-4.09546,0.964355,
-4.07715,0.964355,
-4.04968,1.00098,
-4.01459,1.03912,
-3.97491,1.02234,
-3.92303,0.965881,
-3.86047,0.964355,
-3.79486,1.0025,
-3.72162,1.04828,
-3.64075,1.02234,
-3.55377,0.965881,
-3.45917,0.976563,
-3.35846,1.00098,
-3.25775,1.03607,
-3.14636,1.01929,
-3.03497,0.965881,
-2.92358,0.973511,
-2.79999,0.999451,
-2.68097,1.0376,
-2.56348,1.01776,
-2.44446,0.961304,
-2.32697,0.961304,
-2.21252,0.997925,
-2.09961,1.0376,
-1.98975,1.01013,
-1.88293,0.968933,
-1.78375,0.964355,
-1.6861,1.0025,
-1.59302,1.03302,
-1.49841,1.01929,
-1.42059,0.961304,
-1.34277,0.964355,
-1.26801,0.985718,
-1.19781,1.03455,
-1.13831,1.01166,
-1.08032,0.964355,
-1.02386,0.961304,
-0.975037,0.999451,
-0.930786,1.0376,
-0.886536,0.990295,
-0.854492,0.967407,
-0.827026,0.965881,
-0.802612,0.997925,
-0.78125,1.03149,
-0.765991,1.01471,
-0.752258,0.967407,
-0.740051,0.926208,
-0.737,0.997925,
-0.738525,1.03455,
-0.741577,1.01318,
-0.752258,0.959778,
-0.764465,0.968933,
-0.78125,0.993347,
-0.796509,1.03302,
-0.819397,1.01166,
-0.843811,0.964355,
-0.869751,0.961304,
-0.898743,1.01318,
-0.930786,1.03455,
-0.959778,1.01166,
-0.996399,0.959778,
-1.02997,0.959778,
-1.07117,1.00098,
-1.10626,1.0376,
-1.14288,1.01318,
-1.18561,0.959778,
-1.22223,0.964355,
-1.25427,0.997925,
-1.29395,1.01776,
-1.32294,1.01318,
-1.34888,0.961304,
-1.37939,0.965881,
-1.40381,0.999451,
-1.42975,1.03149,
-1.44806,1.01318,
-1.4679,0.964355,
-1.48468,0.965881,
-1.49689,0.996399,
-1.50757,1.03302,
-1.51672,1.01318,
-1.5274,0.961304,
-1.53351,0.964355,
-1.54266,0.997925,
-1.54419,1.03455,
-1.54572,1.01166,
-1.54419,0.964355,
-1.53809,0.964355,
-1.53809,0.997925,
-1.53351,1.02997,
-1.5274,1.01166,
-1.5213,0.961304,
-1.51825,0.965881,
-1.51215,0.999451,
-1.50299,1.02692,
-1.49841,1.01471,
-1.49384,0.959778,
-1.49231,0.961304,
-1.48468,0.997925,
-1.47705,1.03149,
-1.47247,1.01318,
-1.4679,0.961304,
-1.46332,0.979614,
-1.45874,1.00098,
-1.45416,1.02997,
-1.45111,1.00708,
-1.44958,0.965881,
-1.44348,0.964355,
-1.44348,0.997925,
-1.45111,1.03149,
-1.45569,1.01166,
-1.46179,0.953674,
-1.47095,0.970459,
-1.47552,1.00098,
-1.48315,1.02386,
-1.48926,1.01166,
-1.49994,0.932312,
-1.51062,0.956726,
-1.52283,0.997925,
-1.53656,1.04523,
-1.55334,1.01013,
-1.5686,0.959778,
-1.58691,0.976563,
-1.60675,1.04523,
-1.62354,1.01776,
-1.64795,1.00861,
-1.67084,0.961304,
-1.69525,0.961304,
-1.72272,0.990295,
-1.74561,1.02234,
-1.7746,1.05286,
-1.80359,0.958252,
-1.828,0.964355,
-1.85852,0.997925,
-1.88446,1.02997,
-1.91193,1.01013,
-1.94397,0.961304,
-1.96991,0.959778,
-1.9928,0.993347,
-2.02179,1.03149,
-2.05078,1.01013,
-2.07977,0.961304,
-2.11182,0.961304,
-2.14081,0.997925,
-2.17438,1.02539,
-2.2049,1.00861,
-2.23389,0.958252,
-2.2644,0.961304,
-2.29034,0.993347,
-2.32086,1.02997,
-2.3468,1.00861,
-2.37579,0.956726,
-2.40479,0.965881,
-2.43073,0.996399,
-2.45819,1.02692,
-2.48871,1.01013,
-2.51312,0.964355,
-2.53754,0.976563,
-2.56653,0.993347,
-2.59399,1.02997,
-2.61536,1.00861,
-2.63824,0.959778,
-2.66113,0.958252,
-2.68097,0.993347,
-2.70081,1.02692,
-2.72064,1.00861,
-2.742,0.961304,
-2.76794,0.959778,
-2.7832,0.993347,
-2.80304,1.03149,
-2.8183,1.00861,
-2.83661,0.959778,
-2.8595,0.959778,
-2.87323,0.996399,
-2.89154,1.02997,
-2.90375,1.01013,
-2.92053,0.958252,
-2.93732,0.953674,
-2.9541,0.993347,
-2.96936,1.03149,
-2.98615,1.01013,
-3.00446,0.961304,
-3.02277,0.961304,
-3.04108,0.996399,
-3.06549,1.02997,
-3.0838,1.01013,
-3.10822,0.964355,
-3.125,0.9552,
-3.14789,0.993347,
-3.17078,1.02692,
-3.19061,1.00861,
-3.21808,0.961304,
-3.24097,0.961304,
-3.26843,0.990295,
-3.28827,1.02692,
-3.31268,1.00861,
-3.33405,0.961304,
-3.36151,0.958252,
-3.38745,0.991821,
-3.41187,1.02692,
-3.43018,1.01318,
-3.45001,0.961304,
-3.47443,0.958252,
-3.49731,0.991821,
-3.51563,1.02539,
-3.53699,1.01013,
-3.55988,0.961304,
-3.57971,0.964355,
-3.59802,0.990295,
-3.61633,1.02997,
-3.62701,1.00861,
-3.6377,0.959778,
-3.65143,0.956726,
-3.65601,0.991821,
-3.65143,1.02692,
-3.63922,1.00861,
-3.61938,0.959778,
-3.5965,0.958252,
-3.55988,0.996399,
-3.51868,1.02997,
-3.46222,1.00861,
-3.40271,0.956726,
-3.33252,0.956726,
-3.25165,0.991821,
-3.16467,1.02539,
-3.06396,1.00861,
-2.95258,0.961304,
-2.84576,0.959778,
-2.72827,0.993347,
-2.60468,1.02692,
-2.47955,1.01013,
-2.34833,0.959778,
-2.21252,0.961304,
-2.0752,0.993347,
-1.93939,1.02692,
-1.80206,1.01471,
-1.66626,0.958252,
-1.53503,0.959778,
-1.40381,0.991821,
-1.26648,1.02539,
-1.14136,1.00555,
-1.02234,0.964355,
-0.904846,0.967407,
-0.793457,0.996399,
-0.683594,1.02386,
-0.582886,1.00708,
-0.486755,0.964355,
-0.392151,0.956726,
-0.305176,0.993347,
-0.222778,1.02692,
-0.149536,1.00403,
-0.0839233,0.959778,
-0.0167847,0.956726,
0.0366211,0.991821,
0.0869751,1.02997,
0.126648,1.00708,
0.167847,0.959778,
0.198364,0.947571,
0.221252,0.990295,
0.247192,1.02539,
0.262451,1.00555,
0.276184,0.959778,
0.280762,0.958252,
0.285339,0.991821,
0.288391,1.02539,
0.283813,1.00861,
0.282288,0.9552,
0.268555,0.953674,
0.262451,0.993347,
0.248718,1.02539,
0.231934,1.01776,
0.212097,0.961304,
0.184631,0.959778,
0.15564,0.993347,
0.125122,1.03149,
0.0976563,1.00861,
0.0640869,0.965881,
0.0366211,0.959778,
0.00762939,0.991821,
-0.0259399,1.02539,
-0.0610352,1.00403,
-0.0930786,0.967407,
-0.126648,0.964355,
-0.157166,0.996399,
-0.190735,1.02539,
-0.222778,1.00555,
-0.254822,0.9552,
-0.282288,0.956726,
-0.314331,0.991821,
-0.335693,1.02539,
-0.361633,1.00861,
-0.389099,0.9552,
-0.411987,0.9552,
-0.434875,0.991821,
-0.453186,1.02539,
-0.471497,1.00403,
-0.483704,0.958252,
-0.492859,0.956726,
-0.500488,0.990295,
-0.508118,1.02081,
-0.518799,1.00708,
-0.523376,0.956726,
-0.526428,0.953674,
-0.526428,0.993347,
-0.527954,1.02539,
-0.526428,1.00708,
-0.527954,0.959778,
-0.52948,0.958252,
-0.52948,0.991821,
-0.52948,1.02234,
-0.527954,1.00403,
-0.52948,0.9552,
-0.52948,0.959778,
-0.531006,0.993347,
-0.534058,1.02386,
-0.532532,1.01013,
-0.52948,0.964355,
-0.535583,0.949097,
-0.537109,0.990295,
-0.544739,1.02997,
-0.552368,1.00403,
-0.556946,0.958252,
-0.566101,0.953674,
-0.575256,0.991821,
-0.582886,1.02692,
-0.592041,0.996399,
-0.605774,0.9552,
-0.616455,0.9552,
-0.631714,0.98877,
-0.642395,1.02539,
-0.65918,1.00708,
-0.675964,0.9552,
-0.695801,0.959778,
-0.714111,0.993347,
-0.733948,1.02386,
-0.75531,1.01471,
-0.778198,0.9552,
-0.802612,0.956726,
-0.823975,0.98877,
-0.846863,1.02539,
-0.869751,1.01318,
-0.892639,0.942993,
-0.918579,0.958252,
-0.944519,0.993347,
-0.970459,1.02539,
-0.996399,1.00555,
-1.02386,0.953674,
-1.05743,0.9552,
-1.08643,0.98114,
-1.12,1.03149,
-1.15814,1.00555,
-1.18866,0.953674,
-1.22375,0.952148,
-1.26038,0.990295,
-1.29089,1.02081,
-1.32446,1.00555,
-1.35956,0.958252,
-1.39618,0.973511,
-1.43127,0.987244,
-1.46942,1.02386,
-1.50299,1.0025,
-1.53503,0.9552,
-1.5686,0.958252,
-1.59912,1.0025,
-1.63269,1.02997,
-1.66779,1.00861,
-1.70135,0.958252,
-1.73187,0.958252,
-1.76392,0.993347,
-1.79291,1.02386,
-1.82495,0.993347,
-1.85547,0.9552,
-1.88751,0.956726,
-1.9165,0.990295,
-1.95007,1.02539,
-1.97296,1.00555,
-2.005,0.952148,
-2.03552,0.952148,
-2.05994,0.993347,
-2.08282,1.02539,
-2.10876,0.999451,
-2.14081,0.953674,
-2.16217,0.958252,
-2.19116,0.990295,
-2.21558,1.02997,
-2.23846,1.01013,
-2.26746,0.947571,
-2.30103,0.965881,
-2.32697,0.985718,
-2.35443,0.993347,
-2.37732,0.984192,
-2.40631,0.959778,
-2.43073,0.953674,
-2.45209,0.991821,
-2.47498,1.02234,
-2.49939,1.00403,
-2.52533,0.952148,
-2.54364,0.9552,
-2.58026,0.98877,
-2.59552,1.02081,
-2.61536,1.00555,
-2.63519,0.956726,
-2.65961,0.952148,
-2.67181,0.985718,
-2.69012,1.02692,
-2.71149,1.0025,
-2.73132,0.953674,
-2.75269,0.953674,
-2.77252,0.990295,
-2.79388,1.02234,
-2.81525,1.00403,
-2.83813,0.941467,
-2.86407,0.927734,
-2.88696,0.98877,
-2.90985,1.02234,
-2.93121,1.00098,
-2.95563,0.952148,
-2.97699,0.9552,
-3.00293,0.979614,
-3.02734,1.02386,
-3.05176,1.00098,
-3.07617,0.950623,
-3.09906,0.952148,
-3.12347,0.991821,
-3.14789,1.02234,
-3.1723,1.00403,
-3.19366,0.953674,
-3.2196,0.953674,
-3.24402,0.98877,
-3.27911,1.02539,
-3.29895,1.0025,
-3.32336,0.950623,
-3.35236,0.9552,
-3.37524,0.993347,
-3.39661,1.02386,
-3.4256,1.00403,
-3.44849,0.950623,
-3.47595,0.958252,
-3.49731,0.98877,
-3.52478,1.01013,
-3.54614,1.00403,
-3.57361,0.953674,
-3.60413,0.967407,
-3.63007,0.987244,
-3.65753,1.02692,
-3.68805,1.02539,
-3.71094,0.982666,
-3.73688,0.953674,
-3.75671,0.98877,
-3.7735,1.01929,
-3.78876,1.00555,
-3.80096,0.953674,
-3.80402,0.953674,
-3.79944,0.996399,
-3.78418,1.02386,
-3.76892,1.00861,
-3.74146,0.9552,
-3.70178,0.952148,
-3.65906,0.98877,
-3.60107,1.01318,
-3.53699,1.0025,
-3.46375,0.950623,
-3.38593,0.950623,
-3.29437,0.990295,
-3.20282,1.02386,
-3.09906,1.00403,
-2.9953,0.949097,
-2.88544,0.953674,
-2.77557,0.993347,
-2.65808,1.02234,
-2.54364,1.00403,
-2.42767,0.949097,
-2.31018,0.939941,
-2.19879,0.999451,
-2.0874,1.02234,
-1.97601,1.00403,
-1.87073,0.952148,
-1.76849,0.953674,
-1.66626,0.991821,
-1.57013,1.02997,
-1.48163,0.999451,
-1.39008,0.952148,
-1.31226,0.9552,
-1.23749,0.990295,
-1.17493,1.01929,
-1.11084,1.00403,
-1.05896,0.949097,
-1.01013,0.9552,
-0.967407,0.985718,
-0.927734,1.02386,
-0.888062,0.999451,
-0.857544,0.952148,
-0.834656,0.947571,
-0.80719,0.985718,
-0.788879,1.02081,
-0.769043,0.993347,
-0.759888,0.959778,
-0.752258,0.953674,
-0.752258,0.990295,
-0.752258,1.02234,
-0.761414,1.00098,
-0.769043,0.952148,
-0.779724,0.953674,
-0.793457,0.991821,
-0.810242,1.02386,
-0.828552,0.999451,
-0.85144,0.953674,
-0.871277,0.953674,
-0.891113,0.990295,
-0.918579,1.01776,
-0.941467,1.0025,
-0.968933,0.952148,
-0.996399,0.971985,
-1.02539,0.98877,
-1.05286,1.02386,
-1.0849,1.02539,
-1.11542,0.953674,
-1.15051,0.935364,
-1.18256,0.997925,
-1.21155,1.01318,
-1.24207,1.00098,
-1.26648,0.952148,
-1.297,0.953674,
-1.32904,0.991821,
-1.35651,1.02081,
-1.38702,0.984192,
-1.41907,0.9552,
-1.44348,0.952148,
-1.46179,0.991821,
-1.48468,1.02386,
-1.50909,1.00098,
-1.5274,0.949097,
-1.54877,0.947571,
-1.56555,0.98877,
-1.57776,1.02234,
-1.59607,1.0025,
-1.60522,0.950623,
-1.61743,0.953674,
-1.62811,0.993347,
-1.63422,1.02234,
-1.63879,1.00098,
-1.64948,0.947571,
-1.66016,0.953674,
-1.66016,0.98877,
-1.66473,1.02234,
-1.66779,1.00403,
-1.67847,0.950623,
-1.68762,0.9552,
-1.69525,0.990295,
-1.69983,1.02234,
-1.70746,1.00098,
-1.71356,0.952148,
-1.72119,0.9552,
-1.73035,0.990295,
-1.73798,1.02234,
-1.74713,1.00098,
-1.75781,0.949097,
-1.77002,0.952148,
-1.77765,0.98877,
-1.79291,1.02386,
-1.80664,1.00098,
-1.8219,0.952148,
-1.83716,0.952148,
-1.85242,0.987244,
-1.87073,1.01929,
-1.89056,1.00403,
-1.91193,0.952148,
-1.93939,0.953674,
-1.9577,0.98877,
-1.98822,1.02692,
-2.01416,1.00098,
-2.03705,0.946045,
-2.06146,0.952148,
-2.08435,0.990295,
-2.10724,1.02081,
-2.1347,1.00098,
-2.16064,0.949097,
-2.18811,0.953674,
-2.21252,0.990295,
-2.23999,1.01776,
-2.26593,0.997925,
-2.29797,0.950623,
-2.32544,0.950623,
-2.35443,0.990295,
-2.38342,1.02081,
-2.41699,1.00403,
-2.44751,0.950623,
-2.47955,0.953674,
-2.5116,0.98877,
-2.54211,1.02081,
-2.57111,0.999451,
-2.60468,0.9552,
-2.63824,0.909424,
-2.67029,0.984192,
-2.69928,1.02081,
-2.73132,0.999451,
-2.76489,0.949097,
-2.80151,0.953674,
-2.82898,0.991821,
-2.8595,1.01929,
-2.89001,1.01318,
-2.92358,0.950623,
-2.9541,0.9552,
-2.98615,0.990295,
-3.01819,1.02081,
-3.04871,0.999451,
-3.0838,0.953674,
-3.11737,0.950623,
-3.14941,0.990295,
-3.18604,1.01929,
-3.21655,1.00098,
-3.2486,0.952148,
-3.28064,0.952148,
-3.30811,0.991821,
-3.34015,1.02234,
-3.36761,1.00098,
-3.40118,0.952148,
-3.43323,0.956726,
-3.46222,0.990295,
-3.49274,1.02234,
-3.52478,1.0025,
-3.55377,0.953674,
-3.58124,0.959778,
-3.6087,1.00403,
-3.63312,1.02081,
-3.66364,1.01776,
-3.69415,0.958252,
-3.72314,0.9552,
-3.75214,0.999451,
-3.78418,1.02539,
-3.80859,1.00708,
-3.84064,0.952148,
-3.862,0.9552,
-3.89099,0.996399,
-3.91541,1.02692,
-3.9444,1.00708,
-3.97034,0.959778,
-3.99628,0.958252,
-4.02985,0.978088,
-4.05273,1.02997,
-4.08173,1.00555,
-4.10919,0.956726,
-4.13666,0.961304,
-4.16412,0.999451,
-4.19006,1.03607,
-4.21906,1.00555,
-4.24652,0.961304,
-4.26941,0.961304,
-4.2923,0.997925,
-4.31824,1.02692,
-4.34113,1.00403,
-4.36554,0.958252,
-4.39148,0.961304,
-4.41437,0.997925,
-4.43878,1.02081,
-4.4632,1.00861,
-4.48761,0.959778,
-4.51355,0.961304,
-4.54102,0.999451,
-4.56085,1.03302,
-4.58679,1.00861,
-4.61273,0.961304,
-4.63715,0.964355,
-4.66309,1.0025,
-4.6875,1.03149,
-4.71344,1.01013,
-4.73785,0.961304,
-4.76227,0.968933,
-4.78363,1.01166,
-4.80347,1.03149,
-4.82788,1.01318,
-4.84924,0.964355,
-4.87366,0.971985,
-4.89807,1.00555,
-4.91943,1.02081,
-4.93927,1.00861,
-4.96216,0.949097,
-4.99268,0.93689,
-5.01404,1.0025,
-5.03693,1.03455,
-5.06287,1.01166,
-5.08118,0.964355,
-5.10406,0.978088,
-5.12543,0.997925,
-5.15289,1.03607,
-5.16968,1.00555,
-5.18799,0.965881,
-5.20477,0.971985,
-5.22919,1.00708,
-5.24292,1.03607,
-5.26276,1.01166,
-5.27191,0.968933,
-5.28564,0.971985,
-5.29022,1.02539,
-5.29633,1.0376,
-5.29327,1.01624,
-5.28412,0.973511,
-5.27039,0.971985,
-5.25055,1.01013,
-5.22156,1.04218,
-5.18951,0.996399,
-5.159,0.971985,
-5.12543,0.971985,
-5.0827,1.01471,
-5.04303,1.0437,
-5.00031,1.01929,
-4.94995,0.976563,
-4.8996,0.952148,
-4.85382,1.01318,
-4.80042,1.04218,
-4.74854,1.01929,
-4.69971,0.975037,
-4.65393,0.978088,
-4.60358,1.01471,
-4.5578,1.0437,
-4.5105,1.02386,
-4.46625,0.978088,
-4.42657,0.98114,
-4.39606,1.01624,
-4.35333,1.04828,
-4.31824,1.02386,
-4.28772,0.98114,
-4.26025,0.98114,
-4.23737,1.02539,
-4.21448,1.04828,
-4.19159,1.02692,
-4.18091,0.984192,
-4.15955,0.98114,
-4.15039,1.01624,
-4.13666,1.0498,
-4.1275,1.02234,
-4.11987,0.976563,
-4.11224,0.982666,
-4.10919,1.02081,
-4.11072,1.05286,
-4.10767,1.02539,
-4.11682,0.985718,
-4.11682,0.985718,
-4.12292,1.02234,
-4.13208,1.05133,
-4.13971,1.02997,
-4.15192,0.987244,
-4.16412,0.98877,
-4.17938,1.02539,
-4.18854,1.05133,
-4.20685,1.02997,
-4.22516,0.987244,
-4.24805,0.996399,
-4.26483,1.02539,
-4.28162,1.05743,
-4.29993,1.03607,
-4.32434,0.987244,
-4.34113,0.990295,
-4.36249,1.01013,
-4.38385,1.06354,
-4.40979,1.03302,
-4.42963,0.990295,
-4.45251,0.996399,
-4.47235,1.03455,
-4.48914,1.03455,
-4.51202,1.03912,
-4.53339,0.991821,
-4.55322,0.993347,
-4.56696,1.03455,
-4.58527,1.06812,
-4.59747,1.03912,
-4.61426,0.997925,
-4.62341,0.996399,
-4.63409,1.03912,
-4.64478,1.07269,
-4.65393,1.02234,
-4.66309,0.997925,
-4.67377,0.997925,
-4.68597,1.03607,
-4.69208,1.06812,
-4.70123,1.05286,
-4.70734,1.0025,
-4.71497,1.00708,
-4.72412,1.03912,
-4.72717,1.06659,
-4.7348,1.04065,
-4.73938,1.0025,
-4.74701,0.999451,
-4.75006,1.03912,
-4.75311,1.06964,
-4.75311,1.05286,
-4.75616,1.0025,
-4.76532,1.0025,
-4.76685,1.04065,
-4.7699,1.06964,
-4.76685,1.04523,
-4.77142,0.999451,
-4.77448,0.996399,
-4.78058,1.04218,
-4.78821,1.06659,
-4.79889,1.04523,
-4.80652,1.00861,
-4.8172,1.00098,
-4.82635,1.01624,
-4.83704,1.04675,
-4.85229,1.04523,
-4.8645,1.00708,
-4.87671,1.01013,
-4.88892,1.04065,
-4.89807,1.08032,
-4.91028,1.04675,
-4.92554,1.0437,
-4.93774,1.0025,
-4.94995,1.05743,
-4.96674,1.0788,
-4.97742,1.05133,
-4.99115,1.00708,
-5.00793,1.01624,
-5.02167,1.04523,
-5.03387,1.07574,
-5.04761,1.04675,
-5.06592,1.00861,
-5.07813,1.01166,
-5.09491,1.05133,
-5.11017,1.07574,
-5.12543,1.05133,
-5.13763,1.01318,
-5.15594,1.01471,
-5.17426,1.05286,
-5.18951,1.0788,
-5.20782,1.05896,
-5.22156,1.02386,
-5.24292,1.01471,
-5.26123,1.05133,
-5.28107,1.0788,
-5.29785,1.05743,
-5.31616,1.01624,
-5.336,1.01318,
-5.35583,1.05133,
-5.3772,1.08032,
-5.39246,1.05438,
-5.41229,1.01776,
-5.43518,1.01471,
-5.45349,1.04675,
-5.47943,1.07727,
-5.49469,1.05591,
-5.51605,1.01471,
-5.53284,1.01776,
-5.5542,1.05286,
-5.57404,1.08337,
-5.59082,1.05743,
-5.60608,1.01929,
-5.62592,1.01929,
-5.6427,1.05438,
-5.66406,1.08643,
-5.67627,1.05896,
-5.69,1.01929,
-5.70831,1.01776,
-5.7251,1.05743,
-5.73578,1.08795,
-5.75104,1.05896,
-5.76477,1.01166,
-5.78003,1.01776,
-5.79529,1.05743,
-5.80444,1.1261,
-5.81818,1.05896,
-5.83038,1.02386,
-5.84717,1.01929,
-5.8609,1.05133,
-5.87158,1.09406,
-5.88837,1.06049,
-5.90363,1.01776,
-5.91736,1.01776,
-5.92957,1.05896,
-5.94025,1.08795,
-5.95551,1.06354,
-5.97076,1.01929,
-5.98145,1.01929,
-5.99976,1.05743,
-6.01044,1.08795,
-6.02417,1.05896,
-6.03943,1.01929,
-6.05011,1.02234,
-6.06232,1.05743,
-6.07452,1.08795,
-6.08978,1.06659,
-6.10199,1.02081,
-6.12488,1.01929,
-6.13861,1.05591,
-6.1554,1.091,
-6.16608,1.06049,
-6.17981,1.01013,
-6.19354,1.02234,
-6.21033,1.05896,
-6.22559,1.08643,
-6.23932,1.06049,
-6.25916,1.02539,
-6.27136,1.02081,
-6.28967,1.06659,
-6.30188,1.091,
-6.31409,1.06354,
-6.33087,1.02386,
-6.34308,1.02081,
-6.35529,1.06049,
-6.3736,1.091,
-6.3858,1.06506,
-6.39801,1.02234,
-6.41327,1.02386,
-6.427,1.06354,
-6.44226,1.09711,
-6.46057,1.06506,
-6.47888,1.02081,
-6.48956,1.02539,
-6.51093,1.0498,
-6.52313,1.09711,
-6.53687,1.06506,
-6.54449,1.02386,
-6.55212,1.02539,
-6.55518,1.06506,
-6.55518,1.091,
-6.54907,1.06812,
-6.53687,1.02386,
-6.52466,1.02386,
-6.50635,1.06659,
-6.48651,1.09406,
-6.45905,1.06506,
-6.43463,1.02539,
-6.40564,1.02692,
-6.3736,1.06354,
-6.3446,1.091,
-6.30646,1.06659,
-6.26984,1.02386,
-6.23474,1.03302,
-6.19812,1.06659,
-6.16302,1.091,
-6.12946,1.06049,
-6.09741,1.02692,
-6.06079,1.01624,
-6.02722,1.06506,
-5.99365,1.10321,
-5.96313,1.06812,
-5.93719,1.02539,
-5.91125,1.02539,
-5.88531,1.06659,
-5.86395,1.14594,
-5.84106,1.06964,
-5.82886,1.02692,
-5.80902,1.02539,
-5.79834,1.06812,
-5.78461,1.09406,
-5.7724,1.06964,
-5.76172,1.02539,
-5.75562,1.02692,
-5.74646,1.06659,
-5.7373,1.09711,
-5.7312,1.06659,
-5.73273,1.02386,
-5.73425,1.02539,
-5.73273,1.07422,
-5.7312,1.10168,
-5.73425,1.0498,
-5.74036,1.02692,
-5.74493,1.03302,
-5.74646,1.06049,
-5.74646,1.09253,
-5.74799,1.07117,
-5.74799,1.02692,
-5.75409,1.02997,
-5.75714,1.06506,
-5.75867,1.10016,
-5.7663,1.06506,
-5.77087,1.02539,
-5.78308,1.03149,
-5.79071,1.06812,
-5.79681,1.091,
-5.80139,1.05743,
-5.81512,1.02997,
-5.82275,1.02997,
-5.83191,1.06506,
-5.84106,1.09406,
-5.84717,1.06506,
-5.8548,1.02539,
-5.8609,1.02997,
-5.86395,1.07117,
-5.867,1.091,
-5.87311,1.06964,
-5.87616,1.02386,
-5.88379,1.02234,
-5.88531,1.06812,
-5.88837,1.09253,
-5.88989,1.06964,
-5.89447,1.02539,
-5.89142,1.02386,
-5.89142,1.06506,
-5.88684,1.09711,
-5.88226,1.06354,
-5.87616,1.02386,
-5.86853,1.03149,
-5.8609,1.06812,
-5.8548,1.091,
-5.84564,1.06659,
-5.83801,1.02234,
-5.83344,1.02539,
-5.82886,1.06964,
-5.82123,1.08948,
-5.80902,1.06659,
-5.8075,1.02539,
-5.80292,1.02539,
-5.79529,1.06812,
-5.79224,1.10321,
-5.79071,1.06354,
-5.78461,1.02386,
-5.78308,1.02692,
-5.77393,1.06812,
-5.77087,1.091,
-5.76324,1.06506,
-5.76019,1.02234,
-5.75714,1.02386,
-5.76172,1.06506,
-5.75867,1.09253,
-5.75409,1.06812,
-5.74951,1.02081,
-5.74493,1.02539,
-5.74799,1.05438,
-5.7373,1.09711,
-5.7373,1.06049,
-5.73273,1.02386,
-5.73578,1.02692,
-5.73273,1.06659,
-5.73425,1.09406,
-5.73273,1.06049,
-5.7312,1.02234,
-5.7312,1.02234,
-5.7312,1.06506,
-5.73425,1.08948,
-5.7312,1.06354,
-5.73273,1.02386,
-5.73578,1.02692,
-5.73425,1.06049,
-5.73273,1.09711,
-5.73273,1.06812,
-5.7312,1.02539,
-5.72968,1.02539,
-5.72968,1.05896,
-5.73273,1.091,
-5.73273,1.07269,
-5.73273,1.00555,
-5.7373,1.02539,
-5.74341,1.06506,
-5.74493,1.08795,
-5.74341,1.05896,
-5.74799,1.02692,
-5.74951,1.02539,
-5.75562,1.06354,
-5.76172,1.08948,
-5.76324,1.06659,
-5.76782,1.01776,
-5.7785,1.02386,
-5.78613,1.05743,
-5.79071,1.091,
-5.79681,1.06049,
-5.8075,1.02081,
-5.80902,1.01929,
-5.8136,1.06049,
-5.8197,1.08948,
-5.82275,1.07117,
-5.82428,1.01624,
-5.83344,1.02386,
-5.83954,1.06049,
-5.84869,1.091,
-5.8548,1.06506,
-5.86243,1.01929,
-5.87006,1.02081,
-5.87311,1.06049,
-5.87769,1.08643,
-5.88226,1.06659,
-5.88531,1.02081,
-5.89142,1.01929,
-5.89447,1.06049,
-5.896,1.08337,
-5.89905,1.06049,
-5.90515,1.01929,
-5.90973,1.02539,
-5.91736,1.05896,
-5.92041,1.07727,
-5.92499,1.05743,
-5.92957,1.01929,
-5.93567,1.02081,
-5.94177,1.06049,
-5.94635,1.08643,
-5.94635,1.07117,
-5.95093,1.02234,
-5.95551,1.02081,
-5.95856,1.05896,
-5.96466,1.08643,
-5.96466,1.06506,
-5.97382,1.01929,
-5.97687,1.02081,
-5.98145,1.06812,
-5.97992,1.091,
-5.98145,1.06354,
-5.9845,1.01929,
-5.98907,1.02081,
-5.98755,1.06506,
-5.98602,1.091,
-5.98755,1.06049,
-5.98602,1.01318,
-5.9906,1.02692,
-5.98602,1.06354,
-5.98907,1.08032,
-5.9906,1.06964,
-5.98907,1.02081,
-5.99213,1.01929,
-5.99213,1.0498,
-5.99365,1.08643,
-5.99976,1.05591,
-5.99976,1.01624,
-6.00128,1.01929,
-6.00739,1.05743,
-6.00433,1.08948,
-6.01044,1.06049,
-6.01044,1.01471,
-6.01501,1.01929,
-6.01807,1.06354,
-6.02112,1.08795,
-6.02264,1.05896,
-6.02875,1.02234,
-6.03027,1.02539,
-6.03333,1.05896,
-6.03485,1.08795,
-6.03943,1.05438,
-6.03943,1.01624,
-6.04706,1.01776,
-6.05011,1.06354,
-6.05621,1.08337,
-6.05927,1.05286,
-6.06537,1.01318,
-6.07147,1.01776,
-6.07452,1.06049,
-6.07758,1.08795,
-6.08978,1.05591,
-6.08978,1.01166,
-6.09894,1.00708,
-6.09894,1.05591,
-6.10657,1.08643,
-6.10962,1.05438,
-6.11267,1.02081,
-6.12183,1.01013,
-6.12488,1.06049,
-6.12946,1.0849,
-6.13251,1.11237,
-6.14166,1.01624,
-6.14624,1.02081,
-6.15082,1.05896,
-6.1554,1.08032,
-6.15845,1.0498,
-6.15082,1.03302,
-6.14777,1.02997,
-6.14014,1.05438,
-6.13098,1.08643,
-6.1142,1.05438,
-6.09131,1.00861,
-6.06689,1.01776,
-6.02875,1.06964,
-5.99518,1.08337,
-5.95856,1.0498,
-5.91736,0.978088,
-5.87311,1.01624,
-5.82733,1.05591,
-5.78461,1.08795,
-5.73578,1.05743,
-5.69,1.01166,
-5.64728,1.01471,
-5.6015,1.05591,
-5.55573,1.0849,
-5.51605,1.05286,
-5.47333,1.01776,
-5.43365,1.01166,
-5.39398,1.05438,
-5.35431,1.08185,
-5.31464,1.05591,
-5.27802,1.01166,
-5.2475,1.01776,
-5.21393,1.05896,
-5.18646,1.08337,
-5.15442,1.05438,
-5.13,1.01471,
-5.10559,1.01318,
-5.08118,1.05743,
-5.06439,1.0849,
-5.04303,1.05286,
-5.03082,1.01318,
-5.01709,1.01318,
-5.00946,1.05896,
-4.9942,1.08643,
-4.97742,1.05896,
-4.96979,1.00861,
-4.96216,1.01471,
-4.94995,1.05591,
-4.93927,1.08337,
-4.93011,1.05286,
-4.92706,1.01318,
-4.91943,1.01929,
-4.91791,1.0498,
-4.90875,1.07117,
-4.9057,1.05743,
-4.90417,1.01166,
-4.90112,1.02081,
-4.90112,1.05438,
-4.8996,1.0849,
-4.89807,1.0498,
-4.8996,1.01624,
-4.90723,1.02539,
-4.90875,1.05896,
-4.91028,1.08032,
-4.91791,1.05133,
-4.92401,1.01013,
-4.92859,1.01471,
-4.93011,1.03302,
-4.93469,1.06354,
-4.93774,1.0498,
-4.93927,1.00861,
-4.94232,1.01929,
-4.93927,1.05896,
-4.93774,1.11237,
-4.93469,1.0498,
-4.93011,1.01166,
-4.93317,1.01624,
-4.92706,1.05743,
-4.92554,1.08032,
-4.92249,1.0498,
-4.91333,1.01166,
-4.90723,1.01471,
-4.90417,1.05743,
-4.89502,1.0849,
-4.88892,1.05438,
-4.88129,1.01013,
-4.87061,1.01471,
-4.85992,1.05591,
-4.85077,1.0849,
-4.84009,1.0498,
-4.83093,1.01318,
-4.8233,1.01776,
-4.81262,1.05133,
-4.80194,1.0788,
-4.78821,1.05591,
-4.77753,1.01013,
-4.76685,1.01776,
-4.75464,1.04828,
-4.73785,1.08185,
-4.72717,1.04828,
-4.71802,1.00708,
-4.70734,1.01624,
-4.70123,1.0376,
-4.6875,1.04828,
-4.67682,1.05286,
-4.66766,1.00555,
-4.65851,1.01471,
-4.65088,1.03607,
-4.6402,1.08032,
-4.62952,1.03149,
-4.61884,1.00861,
-4.61121,1.01471,
-4.59595,1.05286,
-4.58679,1.08337,
-4.57916,1.04065,
-4.57001,1.00708,
-4.56848,1.01318,
-4.56085,1.05591,
-4.5578,1.0788,
-4.55475,1.0498,
-4.55627,1.00861,
-4.5517,1.01013,
-4.55017,1.05133,
-4.54407,1.08032,
-4.54254,1.05133,
-4.53644,1.01013,
-4.53644,1.01624,
-4.54102,1.05438,
-4.53033,1.08185,
-4.53033,1.0498,
-4.52576,1.01166,
-4.52576,1.05896,
-4.52576,1.05133,
-4.52271,1.0849,
-4.51965,1.04828,
-4.51508,1.01013,
-4.51965,1.00555,
-4.5166,1.05438,
-4.51813,1.0788,
-4.51355,1.10626,
-4.51202,1.00098,
-4.51202,1.01318,
-4.50897,1.05286,
-4.50745,1.08185,
-4.50592,1.04218,
-4.50287,1.01013,
-4.50287,1.00098,
-4.50134,1.01013,
-4.49829,1.07574,
-4.49829,1.0498,
-4.49829,1.01013,
-4.50287,1.01013,
-4.49982,1.05438,
-4.49829,1.07422,
-4.49982,1.0498,
-4.50134,1.00708,
-4.50134,1.01318,
-4.50287,1.04828,
-4.50592,1.08032,
-4.50745,1.04828,
-4.50745,1.00708,
-4.50897,1.01013,
-4.50897,1.0498,
-4.50897,1.07727,
-4.50897,1.04523,
-4.50745,1.00555,
-4.5105,1.01013,
-4.50897,1.0498,
-4.50745,1.07422,
-4.51508,1.04675,
-4.51355,1.00555,
-4.5166,1.00708,
-4.51813,1.04675,
-4.52118,1.07574,
-4.51965,1.04523,
-4.51813,1.0025,
-4.51813,1.00708,
-4.51813,1.05133,
-4.52118,1.07727,
-4.51965,1.04675,
-4.51813,1.00403,
-4.51965,1.00861,
-4.5105,1.04828,
-4.5105,1.07727,
-4.50287,1.04828,
-4.49982,1.00555,
-4.49829,1.00861,
-4.49677,1.04828,
-4.49524,1.07574,
-4.49066,1.04523,
-4.49066,1.00098,
-4.49066,1.00861,
-4.49219,1.04828,
-4.49219,1.07269,
-4.49066,1.04675,
-4.49371,1.00403,
-4.49524,1.00708,
-4.49219,1.04523,
-4.49219,1.07727,
-4.49066,1.0498,
-4.48914,1.00861,
-4.48608,1.00708,
-4.48608,1.04675,
-4.48151,1.07574,
-4.47693,1.0437,
-4.4754,1.00708,
-4.4754,0.984192,
-4.47235,1.05286,
-4.46625,1.07422,
-4.46777,1.04523,
-4.47083,1.02997,
-4.46625,1.00098,
-4.46625,1.04218,
-4.47083,1.07422,
-4.47083,1.04523,
-4.47388,1.0025,
-4.47693,1.00555,
-4.48303,1.0437,
-4.47998,1.07422,
-4.48456,1.05286,
-4.48761,0.999451,
-4.49219,1.00708,
-4.49524,1.04523,
-4.49371,1.07117,
-4.49829,1.04675,
-4.50134,0.979614,
-4.50897,1.01624,
-4.51202,1.04675,
-4.51355,1.07117,
-4.51965,1.04218,
-4.52576,0.999451,
-4.53033,1.00403,
-4.53644,1.05591,
-4.54254,1.07117,
-4.54559,1.00861,
-4.55322,0.98877,
-4.5578,1.00555,
-4.56696,1.04523,
-4.56543,1.07422,
-4.56696,1.04218,
-4.57153,1.00403,
-4.56848,0.984192,
-4.56543,1.04828,
-4.55933,1.0788,
-4.5517,1.04218,
-4.54254,1.00403,
-4.52881,1.00555,
-4.5105,1.04523,
-4.48914,1.07117,
-4.4632,1.04828,
-4.4342,1.0025,
-4.40369,1.00555,
-4.37012,1.04675,
-4.33502,1.06964,
-4.29077,1.04065,
-4.25262,0.991821,
-4.20532,1.0025,
-4.16412,1.04675,
-4.11835,1.06049,
-4.07562,1.04218,
-4.02985,0.999451,
-3.9856,1.00403,
-3.9444,1.0437,
-3.90167,1.06964,
-3.85895,1.03912,
-3.8208,1.00098,
-3.77655,1.00098,
-3.74146,1.03912,
-3.70483,1.06354,
-3.67279,1.03912,
-3.64075,0.999451,
-3.61176,0.997925,
-3.58582,1.04065,
-3.55377,1.06964,
-3.52631,1.03455,
-3.50189,0.999451,
-3.48358,0.999451,
-3.46069,1.03912,
-3.44391,1.06964,
-3.4256,1.03912,
-3.41187,1.00403,
-3.39508,1.00098,
-3.38287,1.03912,
-3.37067,1.07117,
-3.35999,1.03912,
-3.34625,1.00555,
-3.34015,0.999451,
-3.33252,1.04065,
-3.32336,1.06812,
-3.32031,1.03912,
-3.31116,0.98114,
-3.30353,0.999451,
-3.30353,1.04523,
-3.29895,1.06659,
-3.29742,1.03607,
-3.29437,0.991821,
-3.29742,1.00098,
-3.30353,1.04218,
-3.30505,1.06812,
-3.30811,1.04065,
-3.31573,0.997925,
-3.32031,1.00098,
-3.32489,1.04065,
-3.33099,1.06659,
-3.33862,1.0376,
-3.3432,0.997925,
-3.34778,1.0025,
-3.35236,1.03912,
-3.35236,1.06964,
-3.35693,1.03607,
-3.35693,0.999451,
-3.35846,1.00098,
-3.36151,1.03912,
-3.36456,1.12,
-3.36304,1.03607,
-3.36456,0.999451,
-3.36456,0.997925,
-3.35846,1.03607,
-3.35999,1.06812,
-3.35236,1.0376,
-3.34778,0.990295,
-3.33862,0.978088,
-3.33405,1.03912,
-3.32336,1.07269,
-3.31726,1.0376,
-3.30505,1.00098,
-3.302,0.976563,
-3.29132,1.03607,
-3.27911,1.06659,
-3.26538,1.03455,
-3.2547,0.993347,
-3.24402,0.996399,
-3.23029,1.03455,
-3.21808,1.06659,
-3.2074,1.03607,
-3.19214,0.997925,
-3.18298,0.991821,
-3.16925,1.0376,
-3.1601,1.06354,
-3.14789,1.03455,
-3.14178,0.98877,
-3.13263,0.996399,
-3.12042,1.03607,
-3.11127,1.06506,
-3.10364,1.03149,
-3.09143,0.991821,
-3.08685,0.990295,
-3.08075,1.03912,
-3.07617,1.05896,
-3.07159,1.03302,
-3.06396,0.991821,
-3.05939,0.991821,
-3.05786,1.04218,
-3.05328,1.06964,
-3.05176,1.03455,
-3.05176,0.997925,
-3.05328,0.993347,
-3.05176,1.03455,
-3.05023,1.06049,
-3.04871,1.03302,
-3.05023,0.993347,
-3.05176,0.997925,
-3.05328,1.03912,
-3.05481,1.06354,
-3.05939,1.03302,
-3.05481,0.996399,
-3.06244,0.996399,
-3.05786,1.0376,
-3.06244,1.07574,
-3.06549,1.03302,
-3.06854,0.993347,
-3.07159,0.990295,
-3.07312,1.0376,
-3.07465,1.06659,
-3.0838,1.01776,
-3.0899,0.996399,
-3.09906,0.996399,
-3.10669,1.0376,
-3.10822,1.06354,
-3.11279,1.03302,
-3.11584,0.993347,
-3.12195,0.976563,
-3.125,1.03607,
-3.1311,1.06354,
-3.13416,1.02997,
-3.14178,0.996399,
-3.14789,0.991821,
-3.15399,1.03607,
-3.15704,1.06354,
-3.15857,1.02997,
-3.17078,0.991821,
-3.17688,1.01318,
-3.17688,0.993347,
-3.17993,1.05896,
-3.18451,1.03302,
-3.18604,0.98877,
-3.18909,0.98877,
-3.19061,1.0376,
-3.19214,1.06354,
-3.19519,1.03302,
-3.19519,1.00403,
-3.20435,0.991821,
-3.20129,1.04065,
-3.20435,1.06049,
-3.20587,1.03302,
-3.2074,0.993347,
-3.21045,0.98877,
-3.21655,1.03302,
-3.21655,1.11084,
-3.21808,1.03607,
-3.22266,0.990295,
-3.22876,0.985718,
-3.22876,1.03455,
-3.23334,1.06354,
-3.23334,1.03302,
-3.23639,0.990295,
-3.23944,0.971985,
-3.24402,1.02692,
-3.24707,1.05896,
-3.25012,1.03302,
-3.2547,0.990295,
-3.26233,0.98877,
-3.26538,1.03455,
-3.27454,1.06354,
-3.27759,1.02692,
-3.28979,0.990295,
-3.28827,0.991821,
-3.2959,1.03149,
-3.30505,1.05591,
-3.30811,1.02539,
-3.31268,0.991821,
-3.32336,0.987244,
-3.32794,1.03912,
-3.33252,1.06049,
-3.3371,1.02539,
-3.3432,0.991821,
-3.34778,0.98877,
-3.35083,1.03149,
-3.35693,1.05896,
-3.35541,1.03149,
-3.36151,0.991821,
-3.36151,0.98877,
-3.36609,1.03455,
-3.37067,1.05896,
-3.37372,1.02386,
-3.37677,0.98877,
-3.38135,0.985718,
-3.38287,1.03149,
-3.38593,1.05438,
-3.38898,1.03455,
-3.39661,0.990295,
-3.39966,0.990295,
-3.40881,1.03149,
-3.41492,1.06049,
-3.42255,1.02692,
-3.42407,0.990295,
-3.42712,0.987244,
-3.4317,1.03455,
-3.43628,1.05896,
-3.44086,1.02386,
-3.44391,0.98877,
-3.44696,0.98877,
-3.45154,1.03455,
-3.46069,1.05133,
-3.46069,1.03302,
-3.46832,0.976563,
-3.47443,0.984192,
-3.479,1.03302,
-3.48358,1.05438,
-3.48663,1.02539,
-3.49274,0.993347,
-3.49426,0.98877,
-3.50189,1.02997,
-3.50494,1.05286,
-3.508,1.02539,
-3.51257,0.990295,
-3.5141,0.991821,
-3.51257,1.02692,
-3.50952,1.05591,
-3.50037,1.02234,
-3.49274,0.987244,
-3.48358,0.984192,
-3.46527,1.03149,
-3.44696,1.05286,
-3.42102,1.02386,
-3.39355,0.987244,
-3.36456,0.987244,
-3.32947,1.02692,
-3.29285,1.0498,
-3.25623,1.03607,
-3.2196,0.985718,
-3.18451,0.987244,
-3.14331,1.02997,
-3.10516,1.06964,
-3.06396,1.02386,
-3.02124,0.984192,
-2.97852,0.984192,
-2.93427,1.0376,
-2.89764,1.05896,
-2.85797,1.02234,
-2.82135,0.98877,
-2.78625,0.987244,
-2.75269,1.03149,
-2.71454,1.05591,
-2.68402,1.02081,
-2.6535,0.970459,
-2.61993,0.982666,
-2.59094,1.03302,
-2.56653,1.05286,
-2.53906,1.02081,
-2.52075,0.985718,
-2.50092,0.982666,
-2.48413,1.02692,
-2.46735,1.05286,
-2.45819,1.02081,
-2.44598,0.987244,
-2.43073,0.985718,
-2.42157,1.02539,
-2.40631,1.05286,
-2.40021,1.01929,
-2.39563,0.985718,
-2.38953,0.982666,
-2.38342,1.02539,
-2.37885,1.05438,
-2.36969,1.02081,
-2.36511,0.947571,
-2.36511,0.982666,
-2.35748,1.02692,
-2.35748,1.05286,
-2.35138,1.02081,
-2.35443,0.990295,
-2.35443,0.98114,
-2.35596,1.01624,
-2.35443,1.05438,
-2.35443,1.02692,
-2.35443,0.985718,
-2.35901,0.984192,
-2.35748,1.02997,
-2.36206,1.05133,
-2.36511,1.01929,
-2.36664,0.982666,
-2.36816,0.984192,
-2.36816,1.02692,
-2.36664,1.05591,
-2.36969,1.02234,
-2.37579,0.987244,
-2.37732,0.98114,
-2.37427,1.06812,
-2.37732,1.05133,
-2.37732,1.02234,
-2.36816,0.982666,
-2.36816,0.984192,
-2.36664,1.02539,
-2.36053,1.05133,
-2.35291,1.01166,
-2.34833,1.02386,
-2.33612,0.985718,
-2.32239,1.04065,
-2.31323,1.05591,
-2.2995,1.01929,
-2.28577,0.987244,
-2.27661,0.98877,
-2.25983,1.02539,
-2.24609,1.05286,
-2.23389,1.03455,
-2.2171,0.985718,
-2.20795,0.984192,
-2.19269,1.02081,
-2.18201,1.05286,
-2.17133,1.02081,
-2.15912,0.984192,
-2.14844,0.984192,
-2.14081,1.02081,
-2.12555,1.04828,
-2.11792,1.01776,
-2.10876,0.984192,
-2.10419,0.979614,
-2.09198,1.01929,
-2.08435,1.05133,
-2.07062,1.01471,
-2.06146,0.982666,
-2.05536,0.98114,
-2.04773,1.02386,
-2.03857,1.04523,
-2.03094,1.01929,
-2.02637,0.979614,
-2.01416,0.982666,
-2.00806,1.02386,
-2.00806,1.04828,
-2.00348,1.00861,
-1.9989,0.982666,
-1.9928,0.982666,
-1.98822,1.02234,
-1.98822,1.02386,
-1.98364,1.02539,
-1.98364,0.968933,
-1.97754,0.984192,
-1.98059,1.02539,
-1.97906,1.05133,
-1.97449,1.01624,
-1.97449,0.979614,
-1.97449,0.982666,
-1.97906,1.02234,
-1.97601,1.05286,
-1.97906,1.01776,
-1.98212,0.971985,
-1.98059,0.979614,
-1.98212,1.02692,
-1.97754,1.05133,
-1.98059,1.01471,
-1.98822,0.985718,
-1.99127,0.978088,
-1.99738,1.01929,
-1.99585,1.0498,
-1.9928,1.01318,
-1.99738,0.976563,
-1.99585,0.982666,
-1.99738,1.02081,
-2.00195,1.0498,
-2.00806,1.01318,
-2.01416,0.950623,
-2.01721,0.98114,
-2.02179,1.01929,
-2.02789,1.05286,
-2.02789,1.01471,
-2.03247,0.978088,
-2.03552,0.987244,
-2.04315,1.00708,
-2.04468,1.05591,
-2.0462,1.01624,
-2.05231,0.976563,
-2.05536,0.98114,
-2.06146,1.02081,
-2.06757,1.04828,
-2.07367,1.01776,
-2.07825,0.979614,
-2.09045,0.978088,
-2.09351,1.02081,
-2.09503,1.05133,
-2.09961,1.01318,
-2.10571,0.982666,
-2.10724,0.98114,
-2.11487,1.01929,
-2.12097,1.0498,
-2.12402,1.01166,
-2.13318,0.975037,
-2.14386,0.979614,
-2.14996,1.01624,
-2.16064,1.04828,
-2.1698,1.01318,
-2.17743,0.975037,
-2.18658,0.982666,
-2.19727,1.01929,
-2.2049,1.0498,
-2.20642,1.01624,
-2.20947,0.970459,
-2.21405,0.98114,
-2.21863,1.00098,
-2.21863,1.04523,
-2.22015,1.01013,
-2.22626,0.978088,
-2.23236,0.987244,
-2.23999,1.02234,
-2.24609,1.0498,
-2.24915,1.01166,
-2.26135,0.976563,
-2.27203,0.982666,
-2.27661,1.02234,
-2.28271,1.04828,
-2.29034,1.01624,
-2.29797,0.976563,
-2.30865,0.982666,
-2.31171,1.01624,
-2.32239,1.04675,
-2.32544,1.00861,
-2.33459,0.976563,
-2.34222,0.982666,
-2.34985,1.01776,
-2.35443,1.04675,
-2.36511,1.01166,
-2.37732,0.975037,
-2.38495,0.976563,
-2.39716,1.01471,
-2.41089,1.04675,
-2.41852,1.01318,
-2.42615,0.971985,
-2.4353,0.979614,
-2.44598,1.01929,
-2.45209,1.05133,
-2.45667,1.01166,
-2.46582,0.971985,
-2.4704,0.973511,
-2.47955,1.02081,
-2.48566,1.04828,
-2.49023,1.01624,
-2.49786,0.971985,
-2.50244,0.975037,
-2.51465,1.02081,
-2.52228,1.0437,
-2.52838,1.01013,
-2.53906,0.975037,
-2.54822,0.985718,
-2.5528,1.01929,
-2.565,1.04523,
-2.57416,1.01166,
-2.58331,0.973511,
-2.59705,0.959778,
-2.60162,1.02081,
-2.6123,1.04675,
-2.61993,1.01471,
-2.63214,0.971985,
-2.64435,0.979614,
-2.65198,1.01471,
-2.66113,1.0437,
-2.66724,1.01166,
-2.67487,0.968933,
-2.6886,0.978088,
-2.6947,1.02081,
-2.70538,1.04218,
-2.71301,1.01318,
-2.72522,0.964355,
-2.7359,0.941467,
-2.74658,1.01776,
-2.75269,1.05591,
-2.75574,1.01166,
-2.76031,0.973511,
-2.76794,0.978088,
-2.771,1.01776,
-2.76947,1.10321,
-2.76642,0.964355,
-2.76031,0.973511,
-2.75421,0.975037,
-2.74048,1.01624,
-2.72217,1.0437,
-2.70233,1.01318,
-2.67334,0.970459,
-2.63977,0.979614,
-2.6062,0.997925,
-2.56348,1.04675,
-2.52228,1.01166,
-2.4704,0.967407,
-2.43073,0.98114,
-2.3819,1.01929,
-2.33307,1.04218,
-2.28271,1.01013,
-2.23083,0.967407,
-2.18506,0.98877,
-2.13776,1.02081,
-2.0874,1.0437,
-2.04163,1.00861,
-1.9928,0.965881,
-1.95007,0.975037,
-1.90277,1.01624,
-1.86005,1.0437,
-1.81427,1.01166,
-1.77307,0.970459,
-1.73492,0.976563,
-1.6983,1.00403,
-1.65863,1.04523,
-1.62354,1.00555,
-1.58691,0.968933,
-1.55945,0.973511,
-1.53198,1.01318,
-1.49536,1.0437,
-1.46637,1.00708,
-1.44043,0.959778,
-1.41754,0.976563,
-1.3916,1.01318,
-1.36719,1.04523,
-1.34277,1.00555,
-1.32904,0.967407,
-1.31531,0.971985,
-1.297,1.00708,
-1.28479,1.0437,
-1.26953,1.01013,
-1.26038,0.970459,
-1.25275,0.975037,
-1.23749,1.02234,
-1.23138,1.04065,
-1.21918,1.01166,
-1.21155,0.968933,
-1.20697,0.971985,
-1.19629,1.01776,
-1.18866,1.04675,
-1.18408,1.01013,
-1.18103,0.967407,
-1.1795,0.976563,
-1.17493,1.02234,
-1.1734,1.04065,
-1.1673,1.0498,
-1.16272,0.979614,
-1.16425,0.976563,
-1.16119,1.02234,
-1.16119,1.0498,
-1.15967,1.01013,
-1.15509,0.967407,
-1.15204,0.978088,
-1.14899,0.98877,
-1.14136,1.04523,
-1.13983,1.00861,
-1.12915,0.947571,
-1.12457,0.976563,
-1.11542,1.01166,
-1.10779,1.04523,
-1.09711,1.00098,
-1.0849,0.964355,
-1.0788,0.968933,
-1.06506,1.02386,
-1.05286,1.04218,
-1.0376,1.01013,
-1.02539,0.965881,
-1.01318,0.976563,
-1.00098,1.01318,
-0.987244,1.04065,
-0.971985,1.00708,
-0.961304,0.965881,
-0.949097,0.978088,
-0.938416,1.01471,
-0.924683,1.0437,
-0.912476,1.00708,
-0.897217,0.967407,
-0.880432,0.971985,
-0.863647,1.01166,
-0.843811,1.04065,
-0.823975,1.00708,
-0.811768,0.965881,
-0.799561,0.973511,
-0.787354,1.06812,
-0.779724,1.04523,
-0.767517,1.01013,
-0.75531,0.961304,
-0.747681,0.975037,
-0.737,1.01166,
-0.720215,1.03912,
-0.712585,1.00555,
-0.698853,0.965881,
-0.691223,0.973511,
-0.683594,1.01166,
-0.674438,1.04218,
-0.666809,1.00555,
-0.663757,0.965881,
-0.663757,0.971985,
-0.657654,1.01166,
-0.657654,1.0437,
-0.65918,1.00098,
-0.657654,0.961304,
-0.657654,0.973511,
-0.657654,1.01776,
-0.657654,1.04218,
-0.657654,1.00555,
-0.656128,0.964355,
-0.663757,0.973511,
-0.660706,1.01166,
-0.666809,1.03912,
-0.669861,1.00861,
-0.668335,0.961304,
-0.672913,0.975037,
-0.674438,1.01013,
