-1.95313,0.100708,
-1.95007,0.106812,
-1.9516,0.0930786,
-1.95618,0.0946045,
-1.96381,0.0961304,
-1.96533,0.102234,
-1.96991,0.106812,
-1.97144,0.0976563,
-1.97601,0.0946045,
-1.97754,0.0976563,
-1.98212,0.10376,
-1.98212,0.106812,
-1.98517,0.0946045,
-1.98517,0.0961304,
-1.98669,0.0930786,
-1.98517,0.10376,
-1.98212,0.108337,
-1.98517,0.100708,
-1.97601,0.0946045,
-1.97144,0.100708,
-1.96533,0.102234,
-1.9577,0.10376,
-1.95007,0.0961304,
-1.94092,0.0961304,
-1.93176,0.10376,
-1.91498,0.100708,
-1.90125,0.105286,
-1.89362,0.0961304,
-1.88141,0.0915527,
-1.8692,0.10376,
-1.86005,0.10376,
-1.85089,0.105286,
-1.84479,0.100708,
-1.83258,0.0961304,
-1.82495,0.0946045,
-1.81427,0.100708,
-1.80817,0.106812,
-1.80359,0.0976563,
-1.79901,0.0976563,
-1.79291,0.0976563,
-1.78528,0.102234,
-1.77917,0.106812,
-1.77307,0.0961304,
-1.76544,0.0946045,
-1.76086,0.100708,
-1.75476,0.105286,
-1.74866,0.106812,
-1.74408,0.0976563,
-1.7395,0.0930786,
-1.73645,0.100708,
-1.73798,0.10376,
-1.73492,0.105286,
-1.73035,0.0976563,
-1.72577,0.0961304,
-1.72272,0.102234,
-1.71356,0.102234,
-1.71204,0.102234,
-1.70593,0.0946045,
-1.70288,0.0961304,
-1.69678,0.0976563,
-1.69067,0.102234,
-1.68915,0.102234,
-1.68762,0.0961304,
-1.67847,0.0976563,
-1.67847,0.0976563,
-1.67236,0.100708,
-1.66931,0.106812,
-1.66931,0.102234,
-1.66931,0.0976563,
-1.66779,0.102234,
-1.66626,0.100708,
-1.66321,0.10376,
-1.66168,0.102234,
-1.6571,0.0976563,
-1.65405,0.0946045,
-1.65253,0.105286,
-1.64948,0.106812,
-1.64795,0.102234,
-1.6449,0.100708,
-1.6449,0.102234,
-1.6449,0.102234,
-1.64642,0.102234,
-1.64795,0.0976563,
-1.64642,0.100708,
-1.64642,0.0976563,
-1.64948,0.106812,
-1.6571,0.105286,
-1.66168,0.0976563,
-1.65863,0.100708,
-1.66016,0.100708,
-1.65863,0.10376,
-1.6571,0.106812,
-1.6571,0.102234,
-1.6571,0.0976563,
-1.64948,0.102234,
-1.64948,0.105286,
-1.64337,0.106812,
-1.64185,0.100708,
-1.63574,0.100708,
-1.63116,0.100708,
-1.62659,0.10376,
-1.62201,0.105286,
-1.62048,0.105286,
-1.61743,0.102234,
-1.61133,0.100708,
-1.60828,0.105286,
-1.6037,0.105286,
-1.60065,0.100708,
-1.5976,0.102234,
-1.59454,0.102234,
-1.58997,0.102234,
-1.58997,0.106812,
-1.58844,0.102234,
-1.58844,0.0976563,
-1.58691,0.100708,
-1.58386,0.105286,
-1.58386,0.102234,
-1.58386,0.10376,
-1.58539,0.0976563,
-1.58539,0.102234,
-1.58539,0.105286,
-1.58539,0.10376,
-1.58386,0.100708,
-1.57928,0.0961304,
-1.57928,0.10376,
-1.57471,0.10376,
-1.58081,0.108337,
-1.57928,0.102234,
-1.57776,0.0961304,
-1.58386,0.0976563,
-1.58386,0.105286,
-1.58539,0.108337,
-1.58997,0.100708,
-1.58844,0.100708,
-1.58997,0.0961304,
-1.59149,0.102234,
-1.59149,0.106812,
-1.59302,0.10376,
-1.59454,0.0976563,
-1.59454,0.0961304,
-1.60217,0.10376,
-1.6037,0.105286,
-1.60675,0.100708,
-1.60522,0.0976563,
-1.60828,0.0961304,
-1.60828,0.105286,
-1.6098,0.105286,
-1.61133,0.102234,
-1.61133,0.0946045,
-1.60828,0.0976563,
-1.60828,0.10376,
-1.60675,0.105286,
-1.60522,0.100708,
-1.59912,0.0946045,
-1.60065,0.100708,
-1.60217,0.102234,
-1.60065,0.105286,
-1.60522,0.10376,
-1.60675,0.0961304,
-1.6098,0.102234,
-1.61438,0.10376,
-1.61743,0.105286,
-1.62506,0.102234,
-1.62659,0.0961304,
-1.63269,0.0976563,
-1.63574,0.105286,
-1.64185,0.10376,
-1.64185,0.10376,
-1.6449,0.0946045,
-1.64948,0.0976563,
-1.65558,0.102234,
-1.66321,0.105286,
-1.66779,0.102234,
-1.67236,0.0961304,
-1.67999,0.0961304,
-1.68915,0.105286,
-1.6922,0.108337,
-1.70441,0.102234,
-1.71356,0.0976563,
-1.71509,0.0976563,
-1.72882,0.102234,
-1.73187,0.106812,
-1.74255,0.105286,
-1.75476,0.0961304,
-1.76239,0.0976563,
-1.76849,0.102234,
-1.7807,0.105286,
-1.78986,0.105286,
-1.79749,0.0976563,
-1.80054,0.0976563,
-1.80664,0.105286,
-1.81274,0.105286,
-1.8219,0.106812,
-1.82037,0.100708,
-1.83105,0.102234,
-1.83563,0.106812,
-1.84326,0.109863,
-1.84631,0.102234,
-1.84937,0.0976563,
-1.85089,0.0976563,
-1.85394,0.106812,
-1.86462,0.108337,
-1.87225,0.10376,
-1.87683,0.0976563,
-1.88599,0.100708,
-1.89362,0.10376,
-1.90277,0.106812,
-1.90887,0.105286,
-1.91193,0.100708,
-1.92108,0.0976563,
-1.92871,0.10376,
-1.93481,0.10376,
-1.9455,0.10376,
-1.95007,0.100708,
-1.95923,0.100708,
-1.96533,0.10376,
-1.97144,0.109863,
-1.97754,0.102234,
-1.97754,0.100708,
-1.97754,0.0976563,
-1.97144,0.106812,
-1.97296,0.106812,
-1.97296,0.102234,
-1.96533,0.102234,
-1.95618,0.0976563,
-1.9455,0.105286,
-1.93634,0.105286,
-1.92719,0.100708,
-1.91193,0.0961304,
-1.90735,0.0976563,
-1.89362,0.10376,
-1.87683,0.105286,
-1.86768,0.100708,
-1.85394,0.0961304,
-1.84479,0.0946045,
-1.83563,0.100708,
-1.82953,0.105286,
-1.81732,0.105286,
-1.80969,0.0961304,
-1.80054,0.100708,
-1.79291,0.102234,
-1.78986,0.10376,
-1.78223,0.10376,
-1.77917,0.0961304,
-1.77307,0.100708,
-1.76697,0.100708,
-1.76392,0.106812,
-1.76086,0.102234,
-1.75629,0.100708,
-1.74408,0.102234,
-1.74255,0.100708,
-1.7334,0.10376,
-1.72882,0.10376,
-1.72272,0.0946045,
-1.71814,0.105286,
-1.71204,0.10376,
-1.70746,0.106812,
-1.70746,0.106812,
-1.70593,0.100708,
-1.70135,0.10376,
-1.70135,0.10376,
-1.69525,0.106812,
-1.69525,0.100708,
-1.69525,0.102234,
-1.69525,0.102234,
-1.6922,0.102234,
-1.69067,0.106812,
-1.6922,0.10376,
-1.6922,0.0961304,
-1.69678,0.0976563,
-1.70135,0.10376,
-1.6983,0.10376,
-1.69983,0.105286,
-1.70288,0.102234,
-1.70288,0.0976563,
-1.71051,0.105286,
-1.70746,0.105286,
-1.70898,0.102234,
-1.71051,0.0976563,
-1.71356,0.10376,
-1.71661,0.102234,
-1.71509,0.108337,
-1.72424,0.10376,
-1.72577,0.0961304,
-1.73187,0.102234,
-1.7334,0.10376,
-1.73492,0.108337,
-1.7334,0.102234,
-1.74103,0.0961304,
-1.74561,0.102234,
-1.74713,0.10376,
-1.74713,0.106812,
-1.75476,0.102234,
-1.75476,0.0976563,
-1.75476,0.10376,
-1.75781,0.10376,
-1.75781,0.106812,
-1.75934,0.100708,
-1.76086,0.0961304,
-1.76392,0.0976563,
-1.76239,0.106812,
-1.77002,0.105286,
-1.77155,0.100708,
-1.77155,0.0961304,
-1.77307,0.100708,
-1.77765,0.105286,
-1.78223,0.102234,
-1.78375,0.102234,
-1.78375,0.0976563,
-1.78528,0.100708,
-1.78986,0.10376,
-1.79291,0.106812,
-1.79291,0.102234,
-1.79443,0.0961304,
-1.79138,0.100708,
-1.79291,0.10376,
-1.79291,0.108337,
-1.79291,0.10376,
-1.79901,0.0961304,
-1.79596,0.0976563,
-1.80054,0.105286,
-1.80817,0.106812,
-1.80969,0.10376,
-1.81732,0.0976563,
-1.8219,0.100708,
-1.82648,0.105286,
-1.83105,0.106812,
-1.83563,0.102234,
-1.84021,0.100708,
-1.84479,0.100708,
-1.84784,0.105286,
-1.85394,0.105286,
-1.85242,0.105286,
-1.86462,0.100708,
-1.86462,0.0976563,
-1.87225,0.10376,
-1.87225,0.106812,
-1.87683,0.102234,
-1.87988,0.100708,
-1.88293,0.0946045,
-1.88751,0.10376,
-1.89056,0.105286,
-1.89667,0.105286,
-1.89972,0.102234,
-1.90277,0.100708,
-1.9104,0.10376,
-1.91345,0.108337,
-1.91803,0.100708,
-1.91803,0.102234,
-1.92108,0.102234,
-1.92719,0.102234,
-1.93329,0.106812,
-1.93634,0.10376,
-1.94092,0.100708,
-1.94702,0.0976563,
-1.95007,0.10376,
-1.95313,0.10376,
-1.95313,0.105286,
-1.9577,0.100708,
-1.96381,0.102234,
-1.96838,0.102234,
-1.96991,0.106812,
-1.97601,0.102234,
-1.97754,0.100708,
-1.97754,0.10376,
-1.98212,0.0976563,
-1.98517,0.106812,
-1.99127,0.0976563,
-1.99738,0.100708,
-2.00043,0.105286,
-2.00348,0.100708,
-2.00653,0.105286,
-2.00806,0.100708,
-2.01416,0.0976563,
-2.01569,0.0976563,
-2.01721,0.105286,
-2.02026,0.10376,
-2.02484,0.102234,
-2.02179,0.102234,
-2.03094,0.102234,
-2.03247,0.102234,
-2.03552,0.106812,
-2.03705,0.102234,
-2.0401,0.0976563,
-2.04926,0.102234,
-2.04926,0.102234,
-2.05383,0.105286,
-2.05688,0.102234,
-2.05688,0.0930786,
-2.06451,0.100708,
-2.06604,0.0976563,
-2.06909,0.105286,
-2.07214,0.100708,
-2.07214,0.0946045,
-2.07062,0.102234,
-2.07214,0.102234,
-2.0752,0.106812,
-2.07825,0.10376,
-2.07977,0.0976563,
-2.08435,0.100708,
-2.09045,0.10376,
-2.0874,0.10376,
-2.09351,0.102234,
-2.09198,0.0946045,
-2.09656,0.100708,
-2.10114,0.100708,
-2.10876,0.10376,
-2.11182,0.102234,
-2.11334,0.0946045,
-2.11639,0.100708,
-2.12097,0.102234,
-2.11945,0.10376,
-2.11945,0.10376,
-2.12097,0.0946045,
-2.11792,0.100708,
-2.11639,0.105286,
-2.11029,0.105286,
-2.10724,0.10376,
-2.10266,0.0961304,
-2.09503,0.0976563,
-2.08893,0.10376,
-2.08435,0.106812,
-2.07672,0.102234,
-2.07062,0.0976563,
-2.05841,0.0961304,
-2.05231,0.105286,
-2.04163,0.106812,
-2.03247,0.10376,
-2.02332,0.100708,
-2.01416,0.102234,
-2.00806,0.10376,
-2.00043,0.106812,
-1.9928,0.10376,
-1.98364,0.100708,
-1.97601,0.100708,
-1.96991,0.105286,
-1.95923,0.105286,
-1.94702,0.102234,
-1.94092,0.102234,
-1.93176,0.100708,
-1.92719,0.106812,
-1.92108,0.106812,
-1.91956,0.105286,
-1.91345,0.0976563,
-1.91193,0.102234,
-1.90582,0.106812,
-1.89819,0.105286,
-1.89514,0.10376,
-1.88904,0.0961304,
-1.88904,0.10376,
-1.88904,0.10376,
-1.88599,0.105286,
-1.88446,0.10376,
-1.88141,0.0976563,
-1.87836,0.102234,
-1.87531,0.108337,
-1.87683,0.10376,
-1.87683,0.10376,
-1.87378,0.100708,
-1.87073,0.0976563,
-1.8692,0.105286,
-1.86462,0.102234,
-1.86157,0.100708,
-1.85242,0.102234,
-1.84631,0.102234,
-1.84174,0.10376,
-1.83716,0.102234,
-1.83411,0.10376,
-1.82953,0.100708,
-1.83105,0.0976563,
-1.82953,0.102234,
-1.83105,0.10376,
-1.83258,0.10376,
-1.83105,0.0961304,
-1.83258,0.100708,
-1.83563,0.106812,
-1.84021,0.10376,
-1.84326,0.0976563,
-1.84326,0.0976563,
-1.84326,0.0976563,
-1.84326,0.10376,
-1.84326,0.106812,
-1.84784,0.102234,
-1.84784,0.0961304,
-1.84784,0.102234,
-1.85394,0.100708,
-1.85394,0.105286,
-1.85547,0.106812,
-1.85852,0.100708,
-1.86005,0.100708,
-1.86462,0.105286,
-1.8692,0.10376,
-1.87225,0.100708,
-1.87073,0.102234,
-1.87683,0.100708,
-1.88293,0.105286,
-1.88599,0.105286,
-1.89514,0.105286,
-1.89362,0.100708,
-1.89972,0.100708,
-1.90125,0.10376,
-1.89514,0.106812,
-1.89819,0.10376,
-1.89514,0.100708,
-1.89514,0.0976563,
-1.89972,0.10376,
-1.89972,0.105286,
-1.90277,0.106812,
-1.90125,0.100708,
-1.9043,0.102234,
-1.90582,0.105286,
-1.90887,0.106812,
-1.91345,0.105286,
-1.91345,0.102234,
-1.91956,0.105286,
-1.92413,0.105286,
-1.92719,0.106812,
-1.92108,0.105286,
-1.92413,0.10376,
-1.92261,0.10376,
-1.9165,0.10376,
-1.9165,0.102234,
-1.9104,0.105286,
-1.9104,0.100708,
-1.9043,0.102234,
-1.90582,0.105286,
-1.9043,0.106812,
-1.90735,0.102234,
-1.9043,0.0976563,
-1.90277,0.102234,
-1.90277,0.102234,
-1.9043,0.106812,
-1.90277,0.108337,
-1.9043,0.0976563,
-1.90887,0.100708,
-1.90887,0.10376,
-1.91193,0.105286,
-1.91498,0.10376,
-1.91803,0.0976563,
-1.92261,0.0976563,
-1.92413,0.102234,
-1.92719,0.105286,
-1.93634,0.105286,
-1.93939,0.102234,
-1.94702,0.108337,
-1.95313,0.10376,
-1.95313,0.105286,
-1.95313,0.106812,
-1.95465,0.0976563,
-1.96686,0.102234,
-1.97296,0.102234,
-1.98059,0.106812,
-1.98669,0.10376,
-1.98822,0.0961304,
-2.00043,0.102234,
-2.00348,0.10376,
-2.00958,0.10376,
-2.01111,0.10376,
-2.01721,0.100708,
-2.01874,0.102234,
-2.02637,0.105286,
-2.03247,0.105286,
-2.034,0.106812,
-2.03857,0.0976563,
-2.04468,0.102234,
-2.0462,0.10376,
-2.04926,0.10376,
-2.05536,0.102234,
-2.05231,0.0976563,
-2.05383,0.102234,
-2.05688,0.10376,
-2.06146,0.106812,
-2.06604,0.10376,
-2.06909,0.0976563,
-2.06909,0.100708,
-2.0752,0.105286,
-2.07672,0.108337,
-2.07977,0.10376,
-2.08282,0.0976563,
-2.09045,0.102234,
-2.09045,0.106812,
-2.10266,0.10376,
-2.10724,0.108337,
-2.11182,0.100708,
-2.11487,0.100708,
-2.11792,0.10376,
-2.11945,0.105286,
-2.11945,0.106812,
-2.12097,0.0946045,
-2.12555,0.102234,
-2.12402,0.10376,
-2.1286,0.105286,
-2.1286,0.106812,
-2.13318,0.0961304,
-2.12708,0.102234,
-2.12708,0.105286,
-2.1286,0.108337,
-2.12708,0.106812,
-2.13013,0.0976563,
-2.13318,0.102234,
-2.1286,0.105286,
-2.1286,0.105286,
-2.1286,0.106812,
-2.12708,0.100708,
-2.1225,0.102234,
-2.12097,0.10376,
-2.11945,0.106812,
-2.11792,0.106812,
-2.11945,0.0976563,
-2.12097,0.105286,
-2.11945,0.106812,
-2.12097,0.108337,
-2.11792,0.106812,
-2.11792,0.0976563,
-2.12097,0.102234,
-2.11945,0.106812,
-2.1225,0.105286,
-2.12402,0.105286,
-2.11945,0.100708,
-2.11639,0.102234,
-2.11334,0.102234,
-2.11029,0.105286,
-2.10266,0.105286,
-2.09351,0.102234,
-2.08893,0.10376,
-2.08282,0.105286,
-2.07367,0.105286,
-2.06451,0.10376,
-2.05231,0.100708,
-2.0401,0.10376,
-2.02637,0.10376,
-2.02026,0.106812,
-2.00806,0.105286,
-1.99738,0.100708,
-1.98669,0.105286,
-1.97906,0.10376,
-1.96991,0.102234,
-1.96228,0.108337,
-1.94855,0.0976563,
-1.94092,0.0976563,
-1.93329,0.105286,
-1.92871,0.10376,
-1.91803,0.105286,
-1.91193,0.0961304,
-1.9104,0.10376,
-1.90735,0.102234,
-1.90887,0.105286,
-1.90582,0.10376,
-1.9043,0.0976563,
-1.90125,0.105286,
-1.89819,0.105286,
-1.89972,0.102234,
-1.89362,0.10376,
-1.89056,0.0930786,
-1.89362,0.102234,
-1.88751,0.10376,
-1.88599,0.102234,
-1.88446,0.105286,
-1.88751,0.0961304,
-1.88599,0.100708,
-1.88293,0.105286,
-1.88141,0.102234,
-1.87836,0.105286,
-1.87531,0.0961304,
-1.87531,0.0976563,
-1.8692,0.102234,
-1.86768,0.10376,
-1.86615,0.105286,
-1.86157,0.0961304,
-1.86005,0.10376,
-1.85547,0.10376,
-1.85394,0.10376,
-1.85242,0.10376,
-1.85242,0.0976563,
-1.85242,0.102234,
-1.85242,0.10376,
-1.85547,0.102234,
-1.86005,0.108337,
-1.86462,0.0976563,
-1.86615,0.102234,
-1.86768,0.105286,
-1.87531,0.10376,
-1.87531,0.105286,
-1.88293,0.0946045,
-1.88751,0.102234,
-1.89667,0.106812,
-1.89972,0.106812,
-1.90277,0.105286,
-1.90125,0.0961304,
-1.90887,0.102234,
-1.90735,0.10376,
-1.90887,0.10376,
-1.90887,0.105286,
-1.90735,0.0946045,
-1.90582,0.10376,
-1.9043,0.10376,
-1.90582,0.10376,
-1.90887,0.106812,
-1.90735,0.0976563,
-1.90582,0.10376,
-1.9043,0.102234,
-1.90582,0.102234,
-1.90582,0.106812,
-1.90582,0.0961304,
-1.90887,0.0976563,
-1.9043,0.102234,
-1.91193,0.10376,
-1.9104,0.100708,
-1.9104,0.0976563,
-1.91345,0.100708,
-1.91345,0.102234,
-1.9165,0.102234,
-1.91803,0.106812,
-1.92261,0.0961304,
-1.92261,0.10376,
-1.93176,0.105286,
-1.93329,0.102234,
-1.93481,0.102234,
-1.93787,0.0961304,
-1.93634,0.106812,
-1.93176,0.10376,
-1.93329,0.100708,
-1.93329,0.102234,
-1.93329,0.0946045,
-1.93481,0.102234,
-1.93481,0.102234,
-1.93634,0.10376,
-1.93481,0.100708,
-1.93634,0.0961304,
-1.93787,0.10376,
-1.93939,0.10376,
-1.93939,0.105286,
-1.94244,0.102234,
-1.94855,0.100708,
-1.95007,0.100708,
-1.9577,0.105286,
-1.96381,0.105286,
-1.96533,0.10376,
-1.97144,0.0976563,
-1.97296,0.105286,
-1.97906,0.10376,
-1.97906,0.102234,
-1.98517,0.105286,
-1.98212,0.0961304,
-1.98669,0.102234,
-1.98517,0.10376,
-1.98975,0.102234,
-1.98822,0.102234,
-1.98975,0.0961304,
-1.99127,0.102234,
-1.99585,0.105286,
-1.99585,0.102234,
-2.00195,0.105286,
-2.00195,0.102234,
-2.00653,0.100708,
-2.01111,0.105286,
-2.01416,0.100708,
-2.02026,0.102234,
-2.02179,0.0961304,
-2.02332,0.10376,
-2.02637,0.10376,
-2.034,0.10376,
-2.03705,0.102234,
-2.03857,0.0946045,
-2.04163,0.100708,
-2.0462,0.100708,
-2.05383,0.100708,
-2.05383,0.102234,
-2.05994,0.100708,
-2.06757,0.0976563,
-2.06909,0.105286,
-2.07214,0.102234,
-2.0752,0.105286,
-2.07672,0.0976563,
-2.0813,0.10376,
-2.08282,0.105286,
-2.0874,0.102234,
-2.08893,0.10376,
-2.09351,0.102234,
-2.09656,0.10376,
-2.10114,0.105286,
-2.10419,0.102234,
-2.10724,0.102234,
-2.11182,0.102234,
-2.11029,0.100708,
-2.11334,0.10376,
-2.11639,0.10376,
-2.11639,0.100708,
-2.12097,0.100708,
-2.12555,0.102234,
-2.12708,0.105286,
-2.12708,0.100708,
-2.13013,0.102234,
-2.1347,0.0946045,
-2.13776,0.10376,
-2.13776,0.10376,
-2.14081,0.0976563,
-2.13776,0.102234,
-2.14081,0.0961304,
-2.14081,0.100708,
-2.14233,0.10376,
-2.14539,0.102234,
-2.14691,0.100708,
-2.15149,0.0961304,
-2.15454,0.102234,
-2.15607,0.10376,
-2.15454,0.102234,
-2.16064,0.102234,
-2.1637,0.0961304,
-2.16827,0.0961304,
-2.16522,0.10376,
-2.16064,0.10376,
-2.16827,0.0976563,
-2.16827,0.0900269,
-2.1637,0.105286,
-2.16064,0.102234,
-2.15607,0.102234,
-2.14996,0.0976563,
-2.14539,0.0961304,
-2.14233,0.0976563,
-2.13623,0.100708,
-2.1225,0.100708,
-2.11639,0.102234,
-2.10571,0.0976563,
-2.09503,0.100708,
-2.08893,0.10376,
-2.08282,0.100708,
-2.07062,0.0976563,
-2.06146,0.0976563,
-2.05231,0.0976563,
-2.04315,0.105286,
-2.03552,0.10376,
-2.02637,0.100708,
-2.02179,0.100708,
-2.01569,0.102234,
-2.01111,0.102234,
-2.00195,0.10376,
-1.99738,0.0976563,
-1.99127,0.100708,
-1.98364,0.102234,
-1.97906,0.105286,
-1.97296,0.102234,
-1.97144,0.102234,
-1.96686,0.100708,
-1.96533,0.10376,
-1.96533,0.105286,
-1.96228,0.102234,
-1.96381,0.100708,
-1.9577,0.0976563,
-1.95923,0.0976563,
-1.9516,0.10376,
-1.9516,0.100708,
-1.95007,0.102234,
-1.94855,0.102234,
-1.94702,0.102234,
-1.94397,0.102234,
-1.94397,0.10376,
-1.94244,0.105286,
-1.94702,0.100708,
-1.94397,0.105286,
-1.9455,0.105286,
-1.94702,0.102234,
-1.95007,0.100708,
-1.9577,0.0946045,
-1.95465,0.102234,
-1.95618,0.105286,
-1.96228,0.100708,
-1.9577,0.10376,
-1.95618,0.102234,
-1.96228,0.10376,
-1.96381,0.0976563,
-1.96381,0.106812,
-1.96381,0.10376,
-1.96838,0.102234,
-1.97144,0.100708,
-1.97601,0.10376,
-1.97601,0.102234,
-1.98364,0.100708,
-1.98975,0.100708,
-1.9928,0.102234,
-1.99127,0.102234,
-1.99738,0.102234,
-2.00195,0.10376,
-2.005,0.100708,
-2.00958,0.100708,
-2.01263,0.10376,
-2.02026,0.102234,
-2.02484,0.100708,
-2.03094,0.100708,
-2.034,0.102234,
-2.03552,0.10376,
-2.04468,0.102234,
-2.04926,0.102234,
-2.05078,0.100708,
-2.05688,0.10376,
-2.05536,0.0976563,
-2.06451,0.100708,
-2.06451,0.102234,
-2.06909,0.0976563,
-2.06909,0.105286,
-2.07214,0.102234,
-2.0752,0.102234,
-2.07825,0.106812,
-2.07977,0.100708,
-2.0813,0.0976563,
-2.08282,0.105286,
-2.08282,0.100708,
-2.08588,0.105286,
-2.08435,0.100708,
-2.0874,0.10376,
-2.08893,0.10376,
-2.09045,0.0976563,
-2.08893,0.10376,
-2.08893,0.0976563,
-2.09045,0.100708,
-2.08588,0.102234,
-2.0874,0.100708,
-2.0813,0.105286,
-2.07977,0.0976563,
-2.0813,0.100708,
-2.0813,0.10376,
-2.07977,0.100708,
-2.07977,0.10376,
-2.0813,0.100708,
-2.08282,0.10376,
-2.08435,0.10376,
-2.0813,0.0961304,
-2.08282,0.105286,
-2.08588,0.0976563,
-2.0874,0.10376,
-2.09045,0.102234,
-2.08588,0.100708,
-2.0874,0.105286,
-2.09045,0.100708,
-2.09198,0.10376,
-2.09961,0.10376,
-2.10266,0.10376,
-2.10876,0.10376,
-2.11182,0.102234,
-2.11945,0.102234,
-2.1225,0.105286,
-2.13013,0.10376,
-2.1347,0.105286,
-2.14081,0.102234,
-2.14691,0.102234,
-2.15454,0.102234,
-2.15607,0.10376,
-2.1637,0.108337,
-2.1698,0.0961304,
-2.17438,0.100708,
-2.18353,0.10376,
-2.18964,0.102234,
-2.19421,0.106812,
-2.19727,0.102234,
-2.2049,0.10376,
-2.2049,0.10376,
-2.2049,0.0976563,
-2.20795,0.105286,
-2.21252,0.0961304,
-2.22015,0.102234,
-2.22473,0.10376,
-2.22473,0.102234,
-2.22778,0.105286,
-2.23389,0.0946045,
-2.23389,0.100708,
-2.23999,0.10376,
-2.24457,0.105286,
-2.24609,0.108337,
-2.25372,0.0961304,
-2.2583,0.102234,
-2.26135,0.10376,
-2.2644,0.102234,
-2.27356,0.106812,
-2.27814,0.0976563,
-2.27814,0.102234,
-2.27966,0.10376,
-2.28424,0.105286,
-2.28882,0.102234,
-2.2934,0.102234,
-2.29492,0.10376,
-2.29797,0.105286,
-2.30255,0.102234,
-2.30713,0.10376,
-2.30713,0.100708,
-2.31018,0.0976563,
-2.31476,0.105286,
-2.31323,0.100708,
-2.31323,0.102234,
-2.31476,0.0976563,
-2.31628,0.105286,
-2.31781,0.10376,
-2.31934,0.10376,
-2.32086,0.105286,
-2.32086,0.105286,
-2.32239,0.102234,
-2.32239,0.102234,
-2.32697,0.102234,
-2.32849,0.102234,
-2.33154,0.102234,
-2.33154,0.102234,
-2.3407,0.102234,
-2.3407,0.106812,
-2.34528,0.105286,
-2.34985,0.102234,
-2.35291,0.10376,
-2.35596,0.10376,
-2.35901,0.10376,
-2.36053,0.100708,
-2.36511,0.0961304,
-2.36511,0.100708,
-2.36816,0.105286,
-2.36206,0.10376,
-2.35596,0.102234,
-2.35596,0.100708,
-2.3468,0.102234,
-2.3407,0.102234,
-2.33917,0.100708,
-2.32697,0.100708,
-2.32086,0.100708,
-2.31628,0.100708,
-2.31323,0.10376,
-2.30103,0.105286,
-2.29645,0.10376,
-2.29034,0.0976563,
-2.28424,0.102234,
-2.27661,0.102234,
-2.26746,0.102234,
-2.26593,0.0976563,
-2.26135,0.0976563,
-2.25983,0.10376,
-2.25677,0.105286,
-2.2522,0.105286,
-2.25067,0.100708,
-2.2522,0.0976563,
-2.24915,0.10376,
-2.24915,0.10376,
-2.24304,0.10376,
-2.24152,0.0961304,
-2.23694,0.102234,
-2.23846,0.10376,
-2.24152,0.105286,
-2.23846,0.102234,
-2.24304,0.0946045,
-2.24762,0.102234,
-2.24915,0.10376,
-2.24609,0.10376,
-2.24457,0.10376,
-2.24609,0.0961304,
-2.24762,0.100708,
-2.24762,0.100708,
-2.24915,0.10376,
-2.24457,0.108337,
-2.2522,0.0961304,
-2.24762,0.102234,
-2.24915,0.102234,
-2.24609,0.10376,
-2.24915,0.100708,
-2.24609,0.0961304,
-2.24152,0.100708,
-2.24304,0.106812,
-2.23999,0.100708,
-2.24152,0.10376,
-2.24152,0.0961304,
-2.24457,0.0946045,
-2.24609,0.102234,
-2.24762,0.10376,
-2.24915,0.100708,
-2.25525,0.0946045,
-2.2583,0.0976563,
-2.26288,0.10376,
-2.26746,0.105286,
-2.27203,0.0976563,
-2.27509,0.0961304,
-2.27661,0.0961304,
-2.28271,0.102234,
-2.28271,0.105286,
-2.28577,0.10376,
-2.28729,0.0930786,
-2.2934,0.100708,
-2.29187,0.100708,
-2.29797,0.102234,
-2.29797,0.10376,
-2.29645,0.0930786,
-2.29492,0.100708,
-2.29797,0.102234,
-2.30103,0.10376,
-2.30865,0.102234,
-2.3056,0.0976563,
-2.29797,0.0976563,
-2.2995,0.102234,
-2.2995,0.10376,
-2.30103,0.100708,
-2.30103,0.100708,
-2.30255,0.100708,
-2.3056,0.10376,
-2.30713,0.10376,
-2.30713,0.10376,
-2.30713,0.102234,
-2.30865,0.102234,
-2.31476,0.102234,
-2.31323,0.105286,
-2.31018,0.105286,
-2.31171,0.0946045,
-2.30713,0.100708,
-2.31018,0.100708,
-2.3056,0.105286,
-2.31171,0.102234,
-2.31476,0.100708,
-2.31323,0.0976563,
-2.31628,0.10376,
-2.31323,0.108337,
-2.31934,0.105286,
-2.32086,0.100708,
-2.32086,0.0976563,
-2.31934,0.102234,
-2.32391,0.10376,
-2.32544,0.102234,
-2.33154,0.0976563,
-2.33154,0.102234,
-2.33154,0.102234,
-2.33307,0.10376,
-2.33307,0.102234,
-2.34222,0.0976563,
-2.34375,0.10376,
-2.35138,0.0930786,
-2.34833,0.10376,
-2.34985,0.10376,
-2.35138,0.100708,
-2.35138,0.10376,
-2.35443,0.10376,
-2.35443,0.10376,
-2.35596,0.10376,
-2.35901,0.0976563,
-2.36816,0.0915527,
-2.36206,0.102234,
-2.36206,0.106812,
-2.36511,0.102234,
-2.37885,0.088501,
-2.37885,0.0946045,
-2.37579,0.10376,
-2.38953,0.0900269,
-2.38495,0.102234,
-2.388,0.0946045,
-2.39716,0.088501,
-2.38953,0.100708,
-2.3941,0.105286,
-2.40021,0.10376,
-2.40479,0.0976563,
-2.41699,0.0930786,
-2.40936,0.100708,
-2.41241,0.10376,
-2.41394,0.102234,
-2.4231,0.0930786,
-2.42004,0.0976563,
-2.4231,0.0961304,
-2.42615,0.105286,
-2.42767,0.10376,
-2.42767,0.0976563,
-2.4292,0.0946045,
-2.4292,0.10376,
-2.42767,0.102234,
-2.43073,0.102234,
-2.43073,0.100708,
-2.43225,0.0976563,
-2.43378,0.0976563,
-2.43378,0.102234,
-2.43988,0.100708,
-2.44293,0.10376,
-2.44598,0.100708,
-2.45056,0.102234,
-2.45667,0.100708,
-2.45361,0.102234,
-2.45514,0.100708,
-2.45667,0.100708,
-2.45972,0.0976563,
-2.45972,0.102234,
-2.46277,0.100708,
-2.46735,0.100708,
-2.47803,0.0961304,
-2.47498,0.102234,
-2.47498,0.102234,
-2.47955,0.105286,
-2.48413,0.102234,
-2.48413,0.100708,
-2.48413,0.100708,
-2.48718,0.102234,
-2.49634,0.102234,
-2.49481,0.0976563,
-2.50092,0.10376,
-2.50092,0.102234,
-2.50854,0.102234,
-2.5116,0.10376,
-2.51923,0.10376,
-2.52228,0.100708,
-2.52838,0.100708,
-2.53143,0.105286,
-2.53601,0.102234,
-2.53754,0.102234,
-2.53906,0.0976563,
-2.54059,0.102234,
-2.54211,0.105286,
-2.54364,0.10376,
-2.53906,0.100708,
-2.53601,0.100708,
-2.53448,0.10376,
-2.53296,0.10376,
-2.53143,0.102234,
-2.52686,0.0976563,
-2.52533,0.100708,
-2.51923,0.102234,
-2.51312,0.100708,
-2.50397,0.105286,
-2.49786,0.102234,
-2.49481,0.0976563,
-2.48566,0.102234,
-2.4826,0.10376,
-2.46887,0.102234,
-2.46277,0.0961304,
-2.46124,0.100708,
-2.45819,0.10376,
-2.45209,0.105286,
-2.44598,0.100708,
-2.43988,0.100708,
-2.43835,0.100708,
-2.4353,0.10376,
-2.43683,0.105286,
-2.43683,0.10376,
-2.43225,0.0976563,
-2.42767,0.102234,
-2.42767,0.100708,
-2.42615,0.10376,
-2.42767,0.100708,
-2.42767,0.102234,
-2.42462,0.0976563,
-2.42615,0.102234,
-2.4231,0.10376,
-2.4231,0.10376,
-2.4231,0.102234,
-2.42615,0.0976563,
-2.42767,0.100708,
-2.42767,0.105286,
-2.42767,0.102234,
-2.42767,0.102234,
-2.43225,0.0961304,
-2.43073,0.100708,
-2.42767,0.100708,
-2.43073,0.10376,
-2.43073,0.102234,
-2.42615,0.0976563,
-2.4292,0.102234,
-2.42767,0.105286,
-2.42767,0.0976563,
-2.42767,0.100708,
-2.42462,0.0976563,
-2.4231,0.102234,
-2.42462,0.102234,
-2.42767,0.10376,
-2.42767,0.0976563,
-2.42615,0.0961304,
-2.4292,0.100708,
-2.43073,0.102234,
-2.43073,0.10376,
-2.43073,0.100708,
-2.4353,0.0961304,
-2.43683,0.0976563,
-2.43988,0.10376,
-2.44293,0.105286,
-2.44446,0.102234,
-2.44904,0.0961304,
-2.44904,0.100708,
-2.45361,0.105286,
-2.45667,0.10376,
-2.46277,0.100708,
-2.46582,0.0976563,
-2.47498,0.10376,
-2.47192,0.10376,
-2.47498,0.10376,
-2.47345,0.10376,
-2.47498,0.0915527,
-2.47803,0.10376,
-2.48566,0.10376,
-2.4826,0.102234,
-2.47955,0.102234,
-2.47955,0.0961304,
-2.47803,0.100708,
-2.47803,0.10376,
-2.47803,0.105286,
-2.48413,0.100708,
-2.49023,0.0976563,
-2.49176,0.100708,
-2.49939,0.106812,
-2.50244,0.102234,
-2.50397,0.100708,
-2.50549,0.0976563,
-2.5116,0.102234,
-2.50854,0.102234,
-2.50854,0.100708,
-2.5116,0.102234,
-2.50854,0.0976563,
-2.51312,0.100708,
-2.51465,0.10376,
-2.5116,0.102234,
-2.5116,0.100708,
-2.51617,0.0946045,
-2.51617,0.102234,
-2.52228,0.10376,
-2.52533,0.102234,
-2.5238,0.102234,
-2.52838,0.0976563,
-2.53143,0.0976563,
-2.53601,0.105286,
-2.53296,0.102234,
-2.53906,0.10376,
-2.54211,0.0976563,
-2.54822,0.0976563,
-2.55127,0.10376,
-2.55127,0.10376,
-2.55432,0.102234,
-2.5589,0.100708,
-2.5589,0.105286,
-2.56195,0.10376,
-2.56348,0.100708,
-2.56805,0.10376,
-2.56653,0.0961304,
-2.57111,0.102234,
-2.57568,0.10376,
-2.58789,0.0976563,
-2.58484,0.102234,
-2.58942,0.0976563,
-2.59705,0.0976563,
-2.60162,0.100708,
-2.60315,0.102234,
-2.60315,0.105286,
-2.60162,0.0946045,
-2.60468,0.102234,
-2.60468,0.105286,
-2.60162,0.102234,
-2.59857,0.102234,
-2.60162,0.100708,
-2.59857,0.102234,
-2.60162,0.10376,
-2.59705,0.10376,
-2.59857,0.102234,
-2.6001,0.0961304,
-2.59857,0.102234,
-2.6001,0.10376,
-2.59705,0.10376,
-2.6001,0.102234,
-2.6001,0.100708,
-2.60468,0.10376,
-2.6062,0.105286,
-2.61078,0.102234,
-2.6062,0.10376,
-2.60468,0.0961304,
-2.6062,0.100708,
-2.6062,0.102234,
-2.60468,0.102234,
-2.60773,0.10376,
-2.60773,0.0961304,
-2.60925,0.102234,
-2.60773,0.10376,
-2.6123,0.100708,
-2.61078,0.10376,
-2.61841,0.0976563,
-2.61993,0.102234,
-2.61841,0.10376,
-2.61688,0.102234,
-2.6123,0.105286,
-2.61536,0.0946045,
-2.60925,0.100708,
-2.6123,0.0976563,
-2.61993,0.10376,
-2.61841,0.10376,
-2.62146,0.0946045,
-2.62604,0.102234,
-2.62756,0.105286,
-2.62909,0.102234,
-2.63519,0.102234,
-2.63672,0.0976563,
-2.63977,0.102234,
-2.6413,0.102234,
-2.63977,0.100708,
-2.6413,0.105286,
-2.64282,0.0946045,
-2.64893,0.0976563,
-2.65503,0.102234,
-2.65656,0.102234,
-2.65656,0.100708,
-2.65656,0.100708,
-2.65961,0.100708,
-2.65808,0.10376,
-2.65961,0.102234,
-2.66113,0.102234,
-2.66113,0.0946045,
-2.66113,0.0976563,
-2.66418,0.0976563,
-2.65961,0.102234,
-2.65961,0.10376,
-2.65503,0.0976563,
-2.6535,0.102234,
-2.64435,0.10376,
-2.63824,0.10376,
-2.62756,0.100708,
-2.62146,0.0961304,
-2.6123,0.10376,
-2.59857,0.10376,
-2.59399,0.102234,
-2.58331,0.100708,
-2.57416,0.0946045,
-2.56042,0.102234,
-2.55432,0.10376,
-2.54669,0.100708,
-2.53448,0.102234,
-2.5238,0.0946045,
-2.51923,0.0976563,
-2.51312,0.100708,
-2.50549,0.102234,
-2.49786,0.100708,
-2.49176,0.0946045,
-2.48871,0.0976563,
-2.48413,0.102234,
-2.47345,0.106812,
-2.46887,0.100708,
-2.46582,0.100708,
-2.46124,0.102234,
-2.45972,0.105286,
-2.45667,0.105286,
-2.45972,0.102234,
-2.45514,0.0961304,
-2.45819,0.10376,
-2.45819,0.106812,
-2.46429,0.10376,
-2.46735,0.100708,
-2.4704,0.102234,
-2.47345,0.102234,
-2.47345,0.105286,
-2.47498,0.102234,
-2.47345,0.102234,
-2.47345,0.100708,
-2.47803,0.100708,
-2.47803,0.10376,
-2.47955,0.10376,
-2.47803,0.102234,
-2.47803,0.0946045,
-2.48108,0.102234,
-2.48108,0.10376,
-2.47955,0.10376,
-2.47803,0.102234,
-2.47955,0.0961304,
-2.48108,0.10376,
-2.47803,0.102234,
-2.47955,0.10376,
-2.47498,0.102234,
-2.47192,0.0961304,
-2.47345,0.100708,
-2.46735,0.102234,
-2.46735,0.10376,
-2.46735,0.0961304,
-2.46887,0.0976563,
-2.46887,0.100708,
-2.46735,0.10376,
-2.47345,0.10376,
-2.4826,0.100708,
-2.48413,0.100708,
-2.48871,0.0961304,
-2.48871,0.105286,
-2.49329,0.10376,
-2.49176,0.102234,
-2.49176,0.0961304,
-2.48871,0.102234,
-2.48718,0.100708,
-2.48413,0.10376,
-2.4826,0.0976563,
-2.4826,0.0961304,
-2.48108,0.100708,
-2.48108,0.105286,
-2.47955,0.102234,
-2.47498,0.0976563,
-2.47955,0.0961304,
-2.47498,0.102234,
-2.47345,0.100708,
-2.47192,0.102234,
-2.47192,0.0976563,
-2.47192,0.0961304,
-2.4704,0.0976563,
-2.46887,0.102234,
-2.4704,0.102234,
-2.46887,0.100708,
-2.46735,0.0976563,
-2.46887,0.10376,
-2.46582,0.100708,
-2.46887,0.106812,
-2.46887,0.0961304,
-2.46887,0.102234,
-2.46582,0.102234,
-2.46277,0.105286,
-2.46429,0.106812,
-2.45819,0.10376,
-2.45514,0.100708,
-2.45209,0.102234,
-2.45361,0.10376,
-2.45514,0.106812,
-2.45056,0.100708,
-2.45209,0.0946045,
-2.44751,0.100708,
-2.45056,0.102234,
-2.44904,0.106812,
-2.44751,0.100708,
-2.44751,0.0976563,
-2.45056,0.10376,
-2.44751,0.100708,
-2.44751,0.105286,
-2.44446,0.102234,
-2.44751,0.0946045,
-2.44751,0.100708,
-2.44904,0.105286,
-2.44598,0.105286,
-2.45056,0.0946045,
-2.45514,0.0961304,
-2.45667,0.10376,
-2.46277,0.102234,
-2.46429,0.108337,
-2.46429,0.10376,
-2.46124,0.0946045,
-2.46124,0.0976563,
-2.45972,0.102234,
-2.45209,0.108337,
-2.45667,0.102234,
-2.45514,0.0946045,
-2.45056,0.100708,
-2.45056,0.10376,
-2.44904,0.105286,
-2.44904,0.100708,
-2.44904,0.0946045,
-2.45361,0.102234,
-2.45361,0.105286,
-2.45361,0.106812,
-2.45514,0.102234,
-2.45819,0.100708,
-2.46429,0.102234,
-2.46887,0.102234,
-2.46582,0.106812,
-2.46735,0.100708,
-2.4704,0.0946045,
-2.47192,0.100708,
-2.47345,0.10376,
-2.47192,0.105286,
-2.47192,0.102234,
-2.47498,0.100708,
-2.47803,0.102234,
-2.48108,0.105286,
-2.48413,0.106812,
-2.48566,0.100708,
-2.48566,0.0946045,
-2.48871,0.10376,
-2.49023,0.102234,
-2.48871,0.105286,
-2.49481,0.0976563,
-2.49786,0.0976563,
-2.50092,0.102234,
-2.50397,0.102234,
-2.5116,0.102234,
-2.51465,0.0976563,
-2.5177,0.0930786,
-2.5238,0.100708,
-2.5238,0.102234,
-2.52533,0.105286,
-2.52991,0.0976563,
-2.53754,0.0930786,
-2.53906,0.100708,
-2.54669,0.102234,
-2.54364,0.10376,
-2.55432,0.0976563,
-2.5589,0.0961304,
-2.5589,0.102234,
-2.565,0.102234,
-2.56195,0.10376,
-2.56195,0.0961304,
-2.565,0.0915527,
-2.56042,0.100708,
-2.56348,0.10376,
-2.5589,0.105286,
-2.55432,0.0976563,
-2.55737,0.0946045,
-2.55585,0.100708,
-2.55585,0.102234,
-2.55127,0.10376,
-2.5528,0.0961304,
-2.55127,0.0915527,
-2.54364,0.105286,
-2.53906,0.102234,
-2.53143,0.105286,
-2.52838,0.0961304,
-2.52838,0.100708,
-2.51923,0.106812,
-2.5116,0.10376,
-2.50549,0.10376,
-2.49329,0.100708,
-2.48718,0.0976563,
-2.48108,0.102234,
-2.47192,0.106812,
-2.46735,0.105286,
-2.45819,0.0961304,
-2.45361,0.0946045,
-2.44446,0.102234,
-2.43835,0.10376,
-2.4292,0.102234,
-2.4231,0.102234,
-2.4231,0.0976563,
-2.41852,0.102234,
-2.41699,0.102234,
-2.41394,0.105286,
-2.41241,0.102234,
-2.41852,0.0946045,
-2.42004,0.0976563,
-2.42157,0.10376,
-2.42157,0.105286,
-2.4231,0.100708,
-2.4231,0.0961304,
-2.42767,0.102234,
-2.4292,0.105286,
-2.43683,0.102234,
-2.4353,0.102234,
-2.44293,0.0976563,
-2.44446,0.102234,
-2.44446,0.10376,
-2.44598,0.102234,
-2.44598,0.102234,
-2.44598,0.0961304,
-2.44446,0.10376,
-2.44598,0.100708,
-2.44598,0.102234,
-2.44598,0.0961304,
-2.44904,0.0961304,
-2.44751,0.100708,
-2.44751,0.105286,
-2.45056,0.100708,
-2.44751,0.0930786,
-2.44751,0.0976563,
-2.44293,0.0976563,
-2.44293,0.102234,
-2.43988,0.10376,
-2.43225,0.0976563,
-2.43378,0.0930786,
-2.42767,0.102234,
-2.43073,0.102234,
-2.43378,0.102234,
-2.43378,0.0961304,
-2.43378,0.0976563,
-2.4353,0.0976563,
-2.4353,0.10376,
-2.43378,0.10376,
-2.43683,0.0976563,
-2.44598,0.0961304,
-2.44598,0.0976563,
-2.45056,0.100708,
-2.45056,0.100708,
-2.45056,0.0961304,
-2.45209,0.0976563,
-2.45514,0.102234,
-2.45514,0.102234,
-2.45819,0.105286,
-2.45819,0.0946045,
-2.45819,0.100708,
-2.46124,0.100708,
-2.46124,0.10376,
-2.46429,0.10376,
-2.46582,0.0946045,
-2.46735,0.0946045,
-2.46429,0.0976563,
-2.46582,0.102234,
-2.46735,0.105286,
-2.46582,0.0961304,
-2.46429,0.0961304,
-2.46124,0.100708,
-2.46124,0.102234,
-2.46429,0.105286,
-2.46429,0.0946045,
-2.46582,0.0976563,
-2.46887,0.102234,
-2.4704,0.10376,
-2.47345,0.106812,
-2.47345,0.0915527,
-2.48108,0.100708,
-2.4826,0.102234,
-2.48871,0.102234,
-2.49329,0.106812,
-2.49634,0.0946045,
-2.49786,0.0961304,
-2.49939,0.102234,
-2.50244,0.10376,
-2.50092,0.106812,
-2.50397,0.0961304,
-2.50244,0.0961304,
-2.50244,0.102234,
-2.50549,0.102234,
-2.50244,0.105286,
-2.50549,0.0930786,
-2.50549,0.0961304,
-2.50397,0.100708,
-2.50854,0.105286,
-2.50702,0.105286,
-2.50702,0.0946045,
-2.5116,0.0961304,
-2.51465,0.0976563,
-2.51312,0.106812,
-2.51617,0.105286,
-2.51312,0.0915527,
-2.51923,0.0961304,
-2.51923,0.102234,
-2.51923,0.105286,
-2.5238,0.10376,
-2.5238,0.0976563,
-2.52686,0.0976563,
-2.52991,0.102234,
-2.52991,0.10376,
-2.52838,0.106812,
-2.52838,0.0961304,
-2.5238,0.0976563,
-2.52838,0.100708,
-2.52838,0.105286,
-2.52533,0.106812,
-2.52228,0.0946045,
-2.5238,0.0946045,
-2.52228,0.0976563,
-2.5238,0.10376,
-2.5238,0.106812,
-2.5238,0.0961304,
-2.52075,0.0946045,
-2.52075,0.100708,
-2.5238,0.10376,
-2.52686,0.105286,
-2.52991,0.0930786,
-2.53143,0.0946045,
-2.53448,0.0976563,
-2.54059,0.102234,
-2.54211,0.106812,
-2.54669,0.0976563,
-2.54669,0.0946045,
-2.5528,0.102234,
-2.55585,0.0976563,
-2.56042,0.105286,
-2.56042,0.0976563,
-2.55737,0.0976563,
-2.5589,0.102234,
-2.55432,0.10376,
-2.56042,0.106812,
-2.56042,0.0961304,
-2.55585,0.0946045,
-2.55737,0.102234,
-2.56042,0.10376,
-2.5589,0.105286,
-2.565,0.0976563,
-2.56653,0.0946045,
-2.56653,0.10376,
-2.57416,0.10376,
-2.57111,0.10376,
-2.57568,0.0976563,
-2.57416,0.0946045,
-2.57721,0.0976563,
-2.57568,0.10376,
-2.58179,0.106812,
-2.57568,0.100708,
-2.57568,0.0946045,
-2.57568,0.10376,
-2.57721,0.10376,
-2.57568,0.10376,
-2.57263,0.100708,
-2.56958,0.0961304,
-2.57263,0.10376,
-2.57111,0.10376,
-2.57111,0.105286,
-2.565,0.105286,
-2.56042,0.0930786,
-2.55737,0.100708,
-2.54974,0.10376,
-2.54364,0.10376,
-2.53601,0.100708,
-2.52838,0.0946045,
-2.51923,0.100708,
-2.51617,0.102234,
-2.50397,0.10376,
-2.49939,0.100708,
-2.49329,0.0961304,
-2.4826,0.100708,
-2.47955,0.102234,
-2.4704,0.105286,
-2.46124,0.102234,
-2.45667,0.0946045,
-2.44751,0.102234,
-2.43835,0.102234,
-2.43073,0.105286,
-2.42462,0.0961304,
-2.41699,0.0930786,
-2.41547,0.100708,
-2.40631,0.102234,
-2.40173,0.10376,
-2.3941,0.0976563,
-2.39716,0.0976563,
-2.39868,0.102234,
-2.39563,0.10376,
-2.39868,0.10376,
-2.40021,0.0976563,
-2.39868,0.0946045,
-2.40021,0.100708,
-2.40173,0.10376,
-2.40021,0.10376,
-2.40173,0.0976563,
-2.40021,0.0976563,
-2.39868,0.102234,
-2.3941,0.10376,
-2.39258,0.102234,
-2.3941,0.100708,
-2.3941,0.0961304,
-2.39563,0.100708,
-2.39868,0.100708,
-2.39563,0.10376,
-2.39563,0.0961304,
-2.39258,0.0930786,
-2.39105,0.100708,
-2.39105,0.10376,
-2.38495,0.10376,
-2.38037,0.0946045,
-2.37885,0.100708,
-2.38342,0.0976563,
-2.38342,0.10376,
-2.3819,0.10376,
-2.38647,0.0930786,
-2.38495,0.0946045,
-2.38495,0.10376,
-2.38953,0.106812,
-2.38495,0.10376,
-2.3819,0.0961304,
-2.37885,0.0961304,
-2.37885,0.100708,
-2.37885,0.102234,
-2.37122,0.106812,
-2.37122,0.0930786,
-2.36664,0.0946045,
-2.36511,0.0976563,
-2.36664,0.10376,
-2.36511,0.100708,
-2.36359,0.0946045,
-2.35748,0.0946045,
-2.35901,0.0976563,
-2.35596,0.106812,
-2.35748,0.105286,
-2.35596,0.0946045,
-2.35748,0.0946045,
-2.35443,0.102234,
-2.35596,0.10376,
-2.35901,0.102234,
-2.35748,0.0930786,
-2.35748,0.0976563,
-2.35291,0.102234,
-2.34985,0.105286,
-2.34985,0.105286,
-2.35138,0.0961304,
-2.34985,0.0961304,
-2.34985,0.100708,
-2.34985,0.105286,
-2.34985,0.105286,
-2.34985,0.0961304,
-2.3468,0.0961304,
-2.34985,0.102234,
-2.34985,0.105286,
-2.34833,0.102234,
-2.3468,0.0930786,
-2.34833,0.0946045,
-2.35138,0.102234,
-2.34833,0.10376,
-2.35138,0.10376,
-2.35138,0.0915527,
-2.34985,0.0961304,
-2.34833,0.0976563,
-2.34985,0.100708,
-2.3468,0.105286,
-2.34375,0.0915527,
-2.34375,0.0961304,
-2.34528,0.100708,
-2.34528,0.105286,
-2.34528,0.102234,
-2.34833,0.0930786,
-2.35291,0.0976563,
-2.35291,0.102234,
-2.35443,0.105286,
-2.35596,0.10376,
-2.35596,0.0930786,
-2.35901,0.0915527,
-2.35596,0.100708,
-2.35291,0.100708,
-2.35901,0.10376,
-2.36053,0.0961304,
-2.36359,0.0946045,
-2.36359,0.0976563,
-2.36816,0.10376,
-2.36816,0.100708,
-2.36816,0.0961304,
-2.37427,0.0976563,
-2.37732,0.0976563,
-2.37579,0.102234,
-2.3819,0.10376,
-2.38495,0.100708,
-2.38647,0.0976563,
-2.38953,0.0976563,
-2.39563,0.102234,
-2.40021,0.106812,
-2.40173,0.0961304,
-2.40936,0.0976563,
-2.41394,0.102234,
-2.41852,0.10376,
-2.4231,0.105286,
-2.42462,0.088501,
-2.42462,0.0946045,
-2.42615,0.100708,
-2.42767,0.102234,
-2.4292,0.100708,
-2.4292,0.0946045,
-2.42615,0.0946045,
-2.42767,0.0976563,
-2.4292,0.10376,
-2.43378,0.10376,
-2.4353,0.102234,
-2.43073,0.0961304,
-2.43073,0.100708,
-2.43073,0.106812,
-2.4292,0.10376,
-2.43225,0.0976563,
-2.4353,0.0946045,
-2.43683,0.102234,
-2.43835,0.102234,
-2.44598,0.10376,
-2.44904,0.0961304,
-2.45056,0.0961304,
-2.45056,0.102234,
-2.45514,0.10376,
-2.45361,0.106812,
-2.45667,0.0946045,
-2.45056,0.0961304,
-2.44904,0.100708,
-2.44598,0.106812,
-2.44598,0.10376,
-2.44598,0.0961304,
-2.44446,0.0946045,
-2.44293,0.0976563,
-2.44598,0.106812,
-2.44598,0.106812,
-2.44598,0.100708,
-2.44904,0.100708,
-2.44904,0.102234,
-2.45056,0.10376,
-2.45056,0.109863,
-2.45056,0.100708,
-2.45056,0.0946045,
-2.45056,0.100708,
-2.44904,0.102234,
-2.45056,0.10376,
-2.45056,0.100708,
-2.44904,0.0961304,
-2.44751,0.0976563,
-2.44293,0.102234,
-2.4353,0.105286,
-2.42767,0.0961304,
-2.42462,0.0946045,
-2.41394,0.0976563,
-2.40326,0.100708,
-2.39258,0.100708,
-2.38342,0.0976563,
-2.37427,0.0946045,
-2.36511,0.0946045,
-2.36206,0.10376,
-2.34985,0.105286,
-2.34833,0.100708,
-2.33917,0.0961304,
-2.33002,0.100708,
-2.32086,0.10376,
-2.31934,0.105286,
-2.31018,0.0976563,
-2.30713,0.0961304,
-2.30255,0.100708,
-2.2995,0.105286,
-2.29492,0.10376,
-2.29492,0.0976563,
-2.28882,0.0961304,
-2.29034,0.0961304,
-2.29034,0.105286,
-2.28729,0.105286,
-2.28729,0.0946045,
-2.28271,0.0961304,
-2.27814,0.0946045,
-2.27509,0.105286,
-2.27051,0.108337,
-2.27051,0.100708,
-2.26593,0.0946045,
-2.26288,0.0976563,
-2.26288,0.102234,
-2.26288,0.10376,
-2.2583,0.0976563,
-2.25525,0.0976563,
-2.25067,0.0976563,
-2.25372,0.105286,
-2.25067,0.105286,
-2.24915,0.0946045,
-2.24762,0.0961304,
-2.24304,0.0976563,
-2.23999,0.105286,
-2.23999,0.10376,
-2.23694,0.0946045,
-2.23083,0.0961304,
-2.22778,0.0976563,
-2.22778,0.10376,
-2.22931,0.105286,
-2.22778,0.100708,
-2.22321,0.0961304,
-2.22015,0.0976563,
-2.22015,0.106812,
-2.22015,0.106812,
-2.22473,0.0976563,
-2.22321,0.0961304,
-2.22626,0.100708,
-2.22473,0.10376,
-2.22626,0.102234,
-2.22931,0.0961304,
-2.22931,0.0961304,
-2.23236,0.10376,
-2.22931,0.108337,
-2.22626,0.106812,
-2.22473,0.0946045,
-2.22473,0.102234,
-2.22168,0.100708,
-2.22473,0.10376,
-2.21863,0.105286,
-2.22015,0.0976563,
-2.21558,0.0961304,
-2.21252,0.0976563,
-2.20795,0.105286,
-2.20947,0.10376,
-2.20642,0.0930786,
-2.20642,0.0946045,
-2.20337,0.102234,
-2.19879,0.102234,
-2.19727,0.100708,
-2.19116,0.0930786,
-2.18964,0.0946045,
-2.19269,0.100708,
-2.18964,0.106812,
-2.18811,0.102234,
-2.18506,0.0930786,
-2.18048,0.0961304,
-2.17896,0.10376,
-2.17896,0.102234,
-2.17438,0.102234,
-2.17285,0.0930786,
-2.1759,0.0961304,
-2.17743,0.100708,
-2.17896,0.106812,
-2.1759,0.100708,
-2.17743,0.0930786,
-2.1759,0.0946045,
-2.17743,0.0961304,
-2.18048,0.10376,
-2.17743,0.102234,
-2.18201,0.0946045,
-2.18353,0.0961304,
-2.18506,0.100708,
-2.19269,0.105286,
-2.19574,0.10376,
-2.19269,0.0946045,
-2.19574,0.0930786,
-2.20337,0.0976563,
-2.20642,0.105286,
-2.211,0.102234,
-2.21405,0.0946045,
-2.2171,0.0976563,
-2.21863,0.0976563,
-2.21863,0.105286,
-2.22321,0.10376,
-2.22321,0.0930786,
-2.22778,0.0961304,
-2.23083,0.0976563,
-2.23389,0.10376,
-2.23389,0.102234,
-2.23999,0.0946045,
-2.24609,0.0961304,
-2.24762,0.100708,
-2.25067,0.106812,
-2.25525,0.10376,
-2.2583,0.0946045,
-2.25983,0.0961304,
-2.2583,0.102234,
-2.25983,0.105286,
-2.2583,0.10376,
-2.2583,0.0946045,
-2.25372,0.0961304,
-2.25372,0.102234,
-2.2583,0.106812,
-2.2583,0.102234,
-2.26135,0.0930786,
-2.26288,0.0961304,
-2.25983,0.102234,
-2.25983,0.10376,
-2.26593,0.105286,
-2.27051,0.0976563,
-2.26746,0.0961304,
-2.27051,0.102234,
-2.27509,0.105286,
-2.27509,0.106812,
-2.27966,0.0961304,
-2.28577,0.100708,
-2.28424,0.0976563,
-2.28119,0.106812,
-2.28577,0.0976563,
-2.28424,0.0915527,
-2.28424,0.0930786,
-2.28271,0.102234,
-2.27966,0.106812,
-2.28424,0.0976563,
-2.28271,0.0946045,
-2.28271,0.0961304,
-2.28577,0.102234,
-2.28577,0.105286,
-2.29034,0.102234,
-2.28729,0.0961304,
-2.28882,0.0976563,
-2.28577,0.100708,
-2.29034,0.10376,
-2.29187,0.0976563,
-2.29034,0.0961304,
-2.29187,0.0946045,
-2.29034,0.10376,
-2.28882,0.105286,
-2.29034,0.0976563,
-2.29034,0.0930786,
-2.29187,0.0946045,
-2.29187,0.0946045,
-2.29034,0.105286,
-2.28729,0.102234,
-2.29187,0.0946045,
-2.29492,0.0961304,
-2.28729,0.0976563,
-2.28882,0.105286,
-2.28882,0.100708,
-2.28577,0.0946045,
-2.28577,0.0976563,
-2.29034,0.0961304,
-2.27966,0.100708,
-2.27356,0.10376,
-2.27051,0.0961304,
-2.25983,0.0946045,
-2.25372,0.0976563,
-2.24609,0.10376,
-2.23846,0.100708,
-2.22321,0.0915527,
-2.21558,0.0946045,
-2.20184,0.0961304,
-2.19574,0.105286,
-2.18506,0.100708,
-2.1759,0.0976563,
-2.1637,0.0946045,
-2.15759,0.0976563,
-2.14691,0.102234,
-2.14539,0.102234,
-2.13623,0.102234,
-2.1286,0.0946045,
-2.12708,0.100708,
-2.12708,0.10376,
-2.11945,0.102234,
-2.11182,0.0961304,
-2.11029,0.0946045,
-2.10876,0.0976563,
-2.10571,0.105286,
-2.10571,0.102234,
-2.10419,0.0976563,
-2.10419,0.0946045,
-2.10114,0.100708,
-2.10114,0.10376,
-2.09656,0.105286,
-2.09351,0.0961304,
-2.09351,0.100708,
-2.09045,0.0976563,
-2.08893,0.108337,
-2.09045,0.102234,
-2.09198,0.0976563,
-2.09351,0.0961304,
-2.09351,0.100708,
-2.09656,0.105286,
-2.09961,0.102234,
-2.10114,0.0961304,
-2.09961,0.0961304,
-2.10419,0.102234,
-2.10419,0.10376,
-2.10419,0.10376,
-2.10571,0.0976563,
-2.10724,0.0946045,
-2.10724,0.102234,
-2.11029,0.106812,
-2.11182,0.10376,
-2.11334,0.0976563,
-2.11487,0.0961304,
-2.11487,0.0976563,
-2.11334,0.105286,
-2.11487,0.102234,
-2.11182,0.0976563,
-2.11334,0.0961304,
-2.11639,0.100708,
-2.11487,0.102234,
-2.11792,0.105286,
-2.11334,0.100708,
-2.11334,0.0961304,
-2.11639,0.102234,
-2.11945,0.105286,
-2.12097,0.100708,
-2.1225,0.0946045,
-2.12402,0.0961304,
-2.12555,0.0976563,
-2.12402,0.102234,
-2.12402,0.10376,
-2.12708,0.0976563,
-2.13013,0.0930786,
-2.13318,0.10376,
-2.13776,0.10376,
-2.14081,0.102234,
-2.14539,0.0930786,
-2.14691,0.0946045,
-2.14844,0.102234,
-2.14996,0.105286,
-2.15454,0.102234,
-2.15149,0.0930786,
-2.15607,0.0930786,
-2.15454,0.0930786,
-2.15607,0.105286,
-2.15454,0.10376,
-2.15607,0.0946045,
-2.14996,0.0930786,
-2.14996,0.100708,
-2.14844,0.106812,
-2.14386,0.102234,
-2.14539,0.0946045,
-2.14386,0.0961304,
-2.14233,0.0976563,
-2.14386,0.106812,
-2.13928,0.0976563,
-2.13776,0.0976563,
-2.13928,0.0930786,
-2.14081,0.100708,
-2.13623,0.105286,
-2.13928,0.102234,
-2.14081,0.0915527,
-2.14386,0.0961304,
-2.14844,0.100708,
-2.14844,0.105286,
-2.14996,0.105286,
-2.15454,0.0961304,
-2.15454,0.0961304,
-2.15759,0.100708,
-2.16217,0.106812,
-2.1637,0.10376,
-2.16522,0.0961304,
-2.1698,0.0946045,
-2.17743,0.102234,
-2.17896,0.10376,
-2.18353,0.10376,
-2.18658,0.0961304,
-2.18658,0.0946045,
-2.18201,0.102234,
-2.18506,0.10376,
-2.18658,0.102234,
-2.18506,0.0930786,
-2.18658,0.0961304,
-2.19116,0.102234,
-2.19421,0.106812,
-2.19269,0.102234,
-2.18964,0.0961304,
-2.18964,0.0900269,
-2.19574,0.100708,
-2.19879,0.105286,
-2.20947,0.10376,
-2.20947,0.0961304,
-2.2171,0.100708,
-2.22321,0.100708,
-2.22473,0.106812,
-2.22626,0.102234,
-2.22931,0.0961304,
-2.22778,0.0976563,
-2.22931,0.100708,
-2.22931,0.105286,
-2.22931,0.105286,
-2.23083,0.0976563,
-2.22931,0.0961304,
-2.22931,0.102234,
-2.23083,0.105286,
-2.23236,0.10376,
-2.23389,0.0961304,
-2.23694,0.0961304,
-2.23999,0.102234,
-2.24152,0.105286,
-2.24762,0.102234,
-2.24609,0.0976563,
-2.24609,0.0946045,
-2.24762,0.100708,
-2.24915,0.105286,
-2.2522,0.102234,
-2.2522,0.0946045,
-2.25067,0.0961304,
-2.25372,0.0976563,
-2.25372,0.105286,
-2.2522,0.100708,
-2.2583,0.0930786,
-2.2583,0.0961304,
-2.26288,0.102234,
-2.2644,0.10376,
-2.27203,0.10376,
-2.27203,0.0915527,
-2.27509,0.0946045,
-2.28119,0.102234,
-2.28271,0.10376,
-2.28119,0.102234,
-2.28577,0.0915527,
-2.28577,0.0961304,
-2.28271,0.102234,
-2.27814,0.106812,
-2.27509,0.102234,
-2.27814,0.0976563,
-2.27356,0.0946045,
-2.27203,0.0976563,
-2.2644,0.10376,
-2.25677,0.102234,
-2.25372,0.0976563,
-2.24609,0.0946045,
-2.24152,0.102234,
-2.23083,0.106812,
-2.22626,0.100708,
-2.21863,0.0946045,
-2.20795,0.0946045,
-2.19421,0.100708,
-2.18964,0.106812,
-2.18201,0.106812,
-2.17743,0.0961304,
-2.16522,0.0961304,
-2.16217,0.100708,
-2.15759,0.105286,
-2.15149,0.10376,
-2.14233,0.0976563,
-2.12708,0.0976563,
-2.11487,0.0976563,
-2.11029,0.109863,
-2.10266,0.102234,
-2.09503,0.0961304,
-2.09198,0.0930786,
-2.08588,0.0976563,
-2.07825,0.105286,
-2.07367,0.102234,
-2.06909,0.100708,
-2.06451,0.0946045,
-2.05688,0.102234,
-2.05383,0.10376,
-2.05078,0.0976563,
-2.04926,0.10376,
-2.04773,0.0946045,
-2.04468,0.102234,
-2.04163,0.106812,
-2.03705,0.10376,
-2.03552,0.100708,
-2.034,0.0961304,
-2.034,0.100708,
-2.03247,0.105286,
-2.03247,0.100708,
-2.02637,0.100708,
-2.02484,0.0946045,
-2.02332,0.102234,
-2.02179,0.106812,
-2.01874,0.102234,
-2.01569,0.102234,
-2.01263,0.0961304,
-2.00958,0.102234,
-2.00806,0.106812,
-2.00806,0.102234,
-2.00348,0.100708,
-2.005,0.0946045,
-1.9989,0.100708,
-1.99738,0.105286,
-1.99738,0.10376,
-1.99585,0.100708,
-1.9989,0.0961304,
-1.9989,0.100708,
-1.99738,0.105286,
-1.99738,0.102234,
-1.9989,0.100708,
-2.00043,0.0961304,
-2.00348,0.100708,
-2.00806,0.105286,
-2.01111,0.10376,
-2.01111,0.0976563,
-2.01569,0.0961304,
-2.01721,0.102234,
-2.01721,0.10376,
-2.01721,0.102234,
-2.01874,0.100708,
-2.02026,0.0946045,
-2.02026,0.0976563,
-2.02179,0.105286,
-2.02484,0.100708,
-2.02484,0.0946045,
-2.02332,0.0961304,
-2.02179,0.0976563,
-2.01721,0.102234,
-2.02026,0.102234,
-2.01416,0.0976563,
-2.01111,0.0946045,
-2.01416,0.100708,
-2.00806,0.105286,
-2.00653,0.100708,
-2.00806,0.100708,
-2.00958,0.0930786,
-2.00806,0.0976563,
-2.005,0.105286,
-2.00348,0.100708,
-2.00195,0.0976563,
-2.00348,0.0961304,
-2.00043,0.100708,
-2.00043,0.105286,
-1.99738,0.0961304,
-1.9989,0.0946045,
-1.99585,0.0946045,
-1.99585,0.100708,
-1.99585,0.10376,
-2.00043,0.100708,
-1.9989,0.0976563,
-1.99738,0.0961304,
-1.99738,0.0961304,
-2.00043,0.10376,
-2.005,0.10376,
-2.00348,0.0946045,
-2.00653,0.0930786,
-2.00653,0.100708,
-2.005,0.105286,
-2.00348,0.105286,
-2.00653,0.102234,
-2.005,0.0961304,
-2.00806,0.0976563,
-2.00958,0.106812,
-2.00958,0.102234,
-2.01111,0.0961304,
-2.01416,0.0976563,
-2.01874,0.102234,
-2.02026,0.105286,
-2.02179,0.102234,
-2.02789,0.0930786,
-2.03247,0.0946045,
-2.03552,0.0976563,
-2.03552,0.108337,
-2.0401,0.102234,
-2.03857,0.100708,
-2.04315,0.0961304,
-2.0462,0.10376,
-2.05231,0.106812,
-2.05536,0.105286,
-2.05841,0.100708,
-2.05994,0.0961304,
-2.05841,0.100708,
-2.06604,0.105286,
-2.06451,0.106812,
-2.06757,0.0976563,
-2.07214,0.0946045,
-2.07672,0.0961304,
-2.07977,0.10376,
-2.08282,0.10376,
-2.08282,0.0946045,
-2.09198,0.0930786,
-2.09045,0.10376,
-2.09198,0.105286,
-2.09656,0.102234,
-2.10571,0.0961304,
-2.10114,0.0946045,
-2.10114,0.0976563,
-2.10419,0.10376,
-2.11029,0.0976563,
-2.11487,0.0946045,
-2.11334,0.0946045,
-2.11792,0.10376,
-2.1225,0.105286,
-2.12555,0.10376,
-2.12708,0.0946045,
-2.1286,0.0961304,
-2.13318,0.100708,
-2.1347,0.102234,
-2.13776,0.100708,
-2.13928,0.0976563,
-2.14081,0.0961304,
-2.14081,0.100708,
-2.14233,0.106812,
-2.14081,0.10376,
-2.14233,0.0976563,
-2.14081,0.0930786,
-2.1347,0.0961304,
-2.13623,0.106812,
-2.1347,0.102234,
-2.1286,0.100708,
-2.1286,0.0976563,
-2.1286,0.0961304,
-2.12402,0.108337,
-2.12097,0.105286,
-2.12097,0.0976563,
-2.11792,0.0961304,
-2.11945,0.102234,
-2.11639,0.106812,
-2.11487,0.10376,
-2.11334,0.0961304,
-2.10876,0.0946045,
-2.10571,0.0976563,
-2.09961,0.106812,
-2.08893,0.102234,
-2.08435,0.100708,
-2.0752,0.0946045,
-2.06757,0.105286,
-2.05688,0.10376,
-2.05231,0.10376,
-2.0462,0.0976563,
-2.03552,0.0961304,
-2.02179,0.100708,
-2.01569,0.106812,
-2.00653,0.105286,
-1.99738,0.0976563,
-1.98975,0.0946045,
-1.98517,0.102234,
-1.97296,0.106812,
-1.96381,0.102234,
-1.95465,0.0976563,
-1.94855,0.0961304,
-1.94397,0.0961304,
-1.93787,0.106812,
-1.93481,0.10376,
-1.93329,0.0976563,
-1.93176,0.0946045,
-1.93024,0.10376,
-1.93024,0.10376,
-1.93481,0.100708,
-1.93481,0.102234,
-1.93634,0.0976563,
-1.93329,0.102234,
-1.93787,0.100708,
-1.93329,0.102234,
-1.93634,0.100708,
-1.93634,0.0976563,
-1.93176,0.102234,
-1.92871,0.105286,
-1.93024,0.102234,
-1.93176,0.100708,
-1.93024,0.0961304,
-1.93329,0.0976563,
-1.93634,0.10376,
-1.93787,0.102234,
-1.94092,0.0976563,
-1.94244,0.0946045,
-1.94244,0.102234,
-1.94397,0.102234,
-1.94244,0.102234,
-1.9455,0.0976563,
-1.94397,0.0961304,
-1.94397,0.102234,
-1.9455,0.102234,
-1.94702,0.10376,
-1.94397,0.0976563,
-1.94244,0.0946045,
-1.94092,0.100708,
-1.9455,0.102234,
-1.94702,0.102234,
-1.94702,0.0961304,
-1.94855,0.0915527,
-1.9516,0.102234,
-1.9516,0.102234,
-1.95007,0.0976563,
-1.95313,0.100708,
-1.94702,0.0946045,
-1.95465,0.102234,
-1.95465,0.102234,
-1.9577,0.100708,
-1.96228,0.100708,
-1.96381,0.0946045,
-1.96533,0.102234,
-1.96991,0.100708,
-1.96991,0.102234,
-1.96991,0.0961304,
-1.96991,0.0946045,
-1.97449,0.10376,
-1.96991,0.102234,
-1.97296,0.0961304,
-1.96991,0.0946045,
-1.96838,0.0946045,
-1.96838,0.100708,
-1.96228,0.102234,
-1.95465,0.100708,
-1.95465,0.0961304,
-1.94702,0.0946045,
-1.94702,0.0961304,
-1.94244,0.106812,
-1.94244,0.10376,
-1.93939,0.0976563,
-1.93481,0.0930786,
-1.93329,0.100708,
-1.93024,0.100708,
-1.92871,0.102234,
-1.93329,0.0976563,
-1.93024,0.0961304,
-1.93329,0.10376,
-1.93634,0.10376,
-1.93634,0.105286,
-1.93787,0.0976563,
-1.93787,0.0976563,
-1.93634,0.102234,
-1.93329,0.10376,
-1.93176,0.10376,
-1.92719,0.0946045,
-1.92413,0.0976563,
-1.92108,0.102234,
-1.91956,0.105286,
-1.91956,0.102234,
-1.91498,0.102234,
-1.9104,0.0961304,
-1.90887,0.100708,
-1.91193,0.105286,
-1.91498,0.102234,
-1.91345,0.0976563,
-1.9104,0.100708,
-1.91193,0.100708,
-1.91193,0.10376,
-1.9104,0.102234,
-1.91193,0.0976563,
-1.91193,0.0976563,
-1.91498,0.102234,
-1.9165,0.10376,
-1.91803,0.102234,
-1.92108,0.0946045,
-1.92413,0.0961304,
-1.92871,0.100708,
-1.93481,0.10376,
-1.93481,0.0976563,
-1.93939,0.0946045,
-1.94092,0.100708,
-1.94092,0.0976563,
-1.94092,0.102234,
-1.94397,0.102234,
-1.94397,0.0961304,
-1.9455,0.0946045,
-1.94855,0.102234,
-1.95007,0.102234,
-1.94855,0.105286,
-1.94855,0.0961304,
-1.95465,0.0930786,
-1.95618,0.0976563,
-1.9577,0.105286,
-1.96381,0.102234,
-1.96686,0.0961304,
-1.96686,0.0946045,
-1.96991,0.0976563,
-1.97144,0.10376,
-1.97449,0.102234,
-1.97601,0.0946045,
-1.98212,0.0946045,
-1.98364,0.100708,
-1.98517,0.100708,
-1.98517,0.102234,
-1.98364,0.0961304,
-1.98517,0.0946045,
-1.98669,0.102234,
-1.98364,0.105286,
-1.98364,0.100708,
-1.98364,0.0961304,
-1.98212,0.0930786,
-1.98364,0.0976563,
-1.98212,0.102234,
-1.98059,0.102234,
-1.98212,0.0961304,
-1.97754,0.0946045,
-1.97449,0.10376,
-1.97296,0.10376,
-1.97449,0.10376,
-1.96991,0.0976563,
-1.97144,0.0961304,
-1.96838,0.10376,
-1.97144,0.102234,
-1.97296,0.10376,
-1.97601,0.0961304,
-1.97754,0.102234,
-1.97449,0.10376,
-1.97449,0.10376,
-1.97601,0.100708,
-1.97601,0.100708,
-1.98059,0.0961304,
-1.97906,0.10376,
-1.97906,0.100708,
-1.97754,0.100708,
-1.97754,0.0976563,
-1.97754,0.0946045,
-1.97601,0.100708,
-1.97754,0.102234,
-1.97296,0.102234,
-1.97449,0.0976563,
-1.97449,0.0961304,
-1.97601,0.10376,
-1.97449,0.105286,
-1.96838,0.100708,
-1.96228,0.10376,
-1.95313,0.0976563,
-1.94244,0.0976563,
-1.93787,0.105286,
-1.92719,0.105286,
-1.9165,0.0961304,
-1.91193,0.0946045,
-1.90277,0.100708,
-1.89362,0.105286,
-1.88446,0.105286,
-1.87683,0.0976563,
-1.87225,0.0961304,
-1.86462,0.0976563,
-1.85242,0.100708,
-1.85089,0.105286,
-1.84479,0.0961304,
-1.84174,0.0961304,
-1.83411,0.0976563,
-1.83411,0.102234,
-1.82953,0.105286,
-1.828,0.102234,
-1.82495,0.0930786,
-1.82037,0.0976563,
-1.82037,0.108337,
-1.81885,0.0976563,
-1.82037,0.100708,
-1.8158,0.0900269,
-1.8158,0.100708,
-1.8158,0.102234,
-1.81732,0.102234,
-1.8158,0.102234,
-1.81122,0.0930786,
-1.81427,0.0961304,
-1.81885,0.105286,
-1.8158,0.102234,
-1.8158,0.0976563,
-1.8158,0.0946045,
-1.81732,0.0976563,
-1.8219,0.106812,
-1.82495,0.102234,
-1.828,0.100708,
-1.82037,0.0976563,
-1.81885,0.0961304,
-1.82495,0.105286,
-1.82037,0.102234,
-1.8219,0.100708,
-1.8219,0.0930786,
-1.82495,0.100708,
-1.82648,0.105286,
-1.82495,0.0976563,
-1.82648,0.100708,
-1.82648,0.0961304,
-1.8219,0.0976563,
-1.8219,0.105286,
-1.82495,0.102234,
-1.82953,0.100708,
-1.83563,0.0961304,
-1.84021,0.100708,
-1.84479,0.106812,
-1.84631,0.10376,
-1.84631,0.102234,
-1.84631,0.0976563,
-1.84631,0.10376,
-1.84479,0.105286,
-1.84021,0.10376,
-1.83716,0.100708,
-1.83563,0.100708,
-1.83105,0.102234,
-1.83105,0.105286,
-1.83716,0.10376,
-1.84174,0.102234,
-1.84021,0.0976563,
-1.84631,0.102234,
-1.84784,0.108337,
-1.84784,0.102234,
-1.85547,0.100708,
-1.86157,0.0946045,
-1.86157,0.0961304,
-1.8631,0.108337,
-1.8631,0.10376,
-1.86615,0.100708,
-1.86768,0.0946045,
-1.8692,0.102234,
-1.8692,0.106812,
-1.86768,0.105286,
-1.86768,0.10376,
-1.8631,0.0961304,
-1.86615,0.100708,
-1.86615,0.108337,
-1.86462,0.10376,
-1.86615,0.0976563,
-1.86615,0.100708,
-1.86768,0.100708,
-1.86462,0.10376,
-1.86615,0.10376,
-1.87073,0.100708,
-1.8692,0.0961304,
-1.87073,0.0976563,
-1.8692,0.108337,
-1.87225,0.102234,
-1.87073,0.102234,
-1.87073,0.0946045,
-1.87378,0.102234,
-1.87988,0.109863,
-1.87683,0.10376,
-1.87988,0.102234,
-1.87988,0.0946045,
-1.88141,0.102234,
-1.88599,0.106812,
-1.88446,0.10376,
-1.89362,0.102234,
-1.89514,0.0946045,
-1.89819,0.100708,
-1.89819,0.111389,
-1.89819,0.105286,
-1.90277,0.0976563,
-1.9043,0.0961304,
-1.90887,0.0961304,
-1.90887,0.108337,
-1.9165,0.102234,
-1.91498,0.102234,
-1.91345,0.0930786,
-1.9165,0.102234,
-1.9165,0.106812,
-1.9165,0.10376,
-1.91803,0.0961304,
-1.92108,0.0930786,
-1.91956,0.100708,
-1.91956,0.109863,
-1.91956,0.105286,
-1.9165,0.0961304,
-1.92261,0.0961304,
-1.91803,0.100708,
-1.91803,0.109863,
-1.92871,0.100708,
-1.92871,0.100708,
-1.93176,0.0946045,
-1.93329,0.10376,
-1.93481,0.108337,
-1.94397,0.102234,
-1.94397,0.100708,
-1.9455,0.0961304,
-1.9455,0.100708,
-1.9516,0.106812,
-1.95923,0.105286,
-1.95618,0.102234,
-1.96228,0.0946045,
-1.96533,0.100708,
-1.96838,0.108337,
-1.97754,0.106812,
-1.98364,0.100708,
-1.98364,0.0976563,
-1.98975,0.102234,
-1.99585,0.109863,
-2.00195,0.10376,
-2.00653,0.100708,
-2.00653,0.0976563,
-2.01569,0.102234,
-2.02332,0.109863,
-2.02637,0.106812,
-2.02789,0.100708,
-2.03094,0.100708,
-2.03705,0.105286,
-2.04315,0.111389,
-2.04468,0.105286,
-2.04926,0.102234,
-2.05536,0.0961304,
-2.05841,0.102234,
-2.06604,0.109863,
-2.06451,0.102234,
-2.06909,0.0976563,
-2.06909,0.0946045,
-2.07214,0.102234,
-2.07367,0.111389,
-2.07672,0.10376,
-2.07977,0.100708,
-2.07825,0.0961304,
-2.08282,0.102234,
-2.07977,0.109863,
-2.08282,0.102234,
-2.08282,0.102234,
-2.0813,0.0946045,
-2.07672,0.0976563,
-2.07062,0.108337,
-2.06604,0.10376,
-2.05383,0.0961304,
-2.0462,0.0961304,
-2.0401,0.102234,
-2.03552,0.109863,
-2.02332,0.100708,
-2.01721,0.0946045,
-2.00806,0.0961304,
-2.00195,0.102234,
-1.99585,0.108337,
-1.98822,0.100708,
-1.98212,0.0976563,
-1.97449,0.0930786,
-1.96686,0.102234,
-1.9577,0.109863,
-1.95465,0.100708,
-1.94855,0.0976563,
-1.94092,0.0946045,
-1.93787,0.10376,
-1.93481,0.109863,
-1.92871,0.10376,
-1.92719,0.0976563,
-1.92261,0.0961304,
-1.91803,0.100708,
-1.9165,0.105286,
-1.9165,0.105286,
-1.91498,0.0976563,
-1.9165,0.0961304,
-1.91498,0.10376,
-1.91193,0.108337,
-1.91193,0.10376,
-1.91193,0.0946045,
-1.91193,0.0930786,
-1.9104,0.100708,
-1.91345,0.106812,
-1.91345,0.102234,
-1.91498,0.0976563,
-1.91803,0.0946045,
-1.9165,0.10376,
-1.91803,0.106812,
-1.92108,0.102234,
-1.92261,0.0976563,
-1.92261,0.0930786,
-1.92413,0.102234,
-1.92719,0.108337,
-1.92261,0.106812,
-1.93024,0.0961304,
-1.93176,0.0946045,
-1.93176,0.105286,
-1.93634,0.108337,
-1.94092,0.105286,
-1.94092,0.100708,
-1.94397,0.0946045,
-1.94855,0.102234,
-1.95465,0.108337,
-1.95923,0.102234,
-1.96838,0.0976563,
-1.96991,0.0946045,
-1.97144,0.10376,
-1.97601,0.105286,
-1.98059,0.102234,
-1.98517,0.0976563,
-1.98975,0.0930786,
-1.98975,0.10376,
-1.99738,0.108337,
-2.00195,0.102234,
-1.9989,0.0976563,
-2.005,0.0976563,
-2.005,0.10376,
-2.00348,0.105286,
-2.00348,0.10376,
-2.00043,0.0976563,
-2.00195,0.0961304,
-1.99585,0.105286,
-1.9928,0.10376,
-1.98975,0.102234,
-1.98822,0.0976563,
-1.98364,0.0946045,
-1.98364,0.10376,
-1.97906,0.106812,
-1.97601,0.102234,
-1.96991,0.102234,
-1.97449,0.0930786,
-1.96838,0.10376,
-1.96838,0.109863,
-1.96991,0.10376,
-1.97144,0.100708,
-1.97754,0.0946045,
-1.97754,0.10376,
-1.97906,0.100708,
-1.98212,0.102234,
-1.98059,0.100708,
-1.98364,0.0946045,
-1.98364,0.10376,
-1.98212,0.105286,
-1.98517,0.10376,
-1.98364,0.0961304,
-1.98364,0.0946045,
-1.98212,0.10376,
-1.98364,0.10376,
-1.98669,0.102234,
-1.98517,0.100708,
-1.98364,0.0946045,
-1.98517,0.100708,
-1.98669,0.105286,
-1.99127,0.102234,
-1.98975,0.0961304,
-1.98822,0.0930786,
-1.98822,0.10376,
-1.98517,0.105286,
-1.98975,0.10376,
-1.99127,0.0961304,
-1.99127,0.0976563,
-1.99585,0.106812,
-1.99127,0.102234,
-1.9928,0.102234,
-1.9928,0.100708,
-1.98822,0.0946045,
-1.98822,0.102234,
-1.98975,0.105286,
-1.9928,0.102234,
-1.98822,0.100708,
-1.98822,0.0961304,
-1.98822,0.10376,
-1.98975,0.102234,
-1.98975,0.105286,
-1.99127,0.0976563,
-1.98975,0.0930786,
-1.99585,0.105286,
-2.00195,0.10376,
-2.00195,0.105286,
-2.00653,0.100708,
-2.00958,0.0961304,
-2.01416,0.106812,
-2.01569,0.105286,
-2.01874,0.102234,
-2.01721,0.102234,
-2.01874,0.0961304,
-2.02026,0.106812,
-2.02179,0.10376,
-2.02637,0.10376,
-2.03247,0.102234,
-2.03247,0.0976563,
-2.03552,0.105286,
-2.03552,0.0976563,
-2.03705,0.100708,
-2.03705,0.0976563,
-2.03857,0.100708,
-2.0401,0.102234,
-2.04468,0.102234,
-2.04315,0.100708,
-2.0462,0.100708,
-2.04163,0.0976563,
-2.0462,0.10376,
-2.04773,0.10376,
-2.04926,0.100708,
-2.04773,0.0976563,
-2.05841,0.0961304,
-2.05841,0.105286,
-2.06451,0.10376,
-2.07062,0.0961304,
-2.07062,0.100708,
-2.07367,0.0930786,
-2.07825,0.102234,
-2.0813,0.100708,
-2.08282,0.102234,
-2.0874,0.0946045,
-2.09351,0.0930786,
-2.0874,0.106812,
-2.09045,0.100708,
-2.0874,0.105286,
-2.09351,0.0946045,
-2.09656,0.0915527,
-2.09656,0.102234,
-2.09503,0.0976563,
-2.09961,0.102234,
-2.09961,0.0930786,
-2.10419,0.0915527,
-2.10571,0.10376,
-2.11182,0.100708,
-2.10876,0.10376,
-2.11029,0.100708,
-2.10724,0.0976563,
-2.11182,0.100708,
-2.11029,0.0976563,
-2.10876,0.100708,
-2.10571,0.0961304,
-2.10419,0.0946045,
-2.09961,0.105286,
-2.09045,0.0946045,
-2.08893,0.102234,
-2.0813,0.0961304,
-2.07214,0.0961304,
-2.06451,0.105286,
-2.05536,0.0976563,
-2.05078,0.106812,
-2.0462,0.0961304,
-2.03552,0.0946045,
-2.02789,0.10376,
-2.02332,0.0976563,
-2.01874,0.10376,
-2.00806,0.100708,
-2.005,0.0961304,
-2.00195,0.105286,
-1.99585,0.0976563,
-1.99585,0.106812,
-1.99127,0.0976563,
-1.98669,0.0961304,
-1.98364,0.105286,
-1.98059,0.10376,
-1.98212,0.105286,
-1.98059,0.0961304,
-1.98212,0.0976563,
-1.98059,0.10376,
-1.98212,0.10376,
-1.97754,0.106812,
-1.97754,0.0976563,
-1.98212,0.0976563,
-1.97601,0.105286,
-1.97754,0.106812,
-1.97601,0.102234,
-1.97601,0.100708,
-1.97449,0.0976563,
-1.97754,0.10376,
-1.97906,0.10376,
-1.97449,0.105286,
-1.97296,0.102234,
-1.96686,0.0961304,
-1.95923,0.105286,
-1.96228,0.10376,
-1.96228,0.105286,
-1.9577,0.102234,
-1.95313,0.0961304,
-1.9516,0.102234,
-1.9516,0.105286,
-1.9516,0.105286,
-1.95007,0.102234,
-1.95007,0.0961304,
-1.95007,0.102234,
-1.95007,0.10376,
-1.94855,0.105286,
-1.9516,0.100708,
-1.9516,0.0961304,
-1.94702,0.10376,
-1.95007,0.106812,
-1.94855,0.105286,
-1.95007,0.102234,
-1.9455,0.0976563,
-1.95007,0.105286,
-1.94702,0.108337,
-1.94702,0.105286,
-1.94244,0.100708,
-1.9455,0.100708,
-1.94244,0.10376,
-1.9455,0.106812,
-1.94397,0.10376,
-1.9455,0.0976563,
-1.9455,0.0946045,
-1.94092,0.100708,
-1.94092,0.105286,
-1.93787,0.10376,
-1.93939,0.0976563,
-1.93939,0.0961304,
-1.94397,0.105286,
-1.93939,0.105286,
-1.94092,0.105286,
-1.94244,0.0976563,
-1.94092,0.0961304,
-1.93939,0.10376,
-1.93634,0.105286,
-1.93787,0.102234,
-1.93787,0.102234,
-1.93939,0.0946045,
-1.94244,0.10376,
-1.94244,0.108337,
-1.94855,0.105286,
-1.95313,0.0976563,
-1.95465,0.0946045,
-1.96381,0.105286,
-1.96533,0.106812,
-1.96533,0.102234,
-1.97296,0.0976563,
-1.97296,0.0961304,
-1.97754,0.106812,
-1.98059,0.108337,
-1.98364,0.102234,
-1.98517,0.0976563,
-1.98822,0.0930786,
-1.98975,0.106812,
-1.99127,0.10376,
-2.00043,0.10376,
-1.99738,0.0976563,
-1.9928,0.0946045,
-1.99585,0.105286,
-2.00195,0.105286,
-2.00806,0.10376,
-2.00653,0.0961304,
-2.00806,0.0976563,
-2.00653,0.10376,
-2.00958,0.10376,
-2.00958,0.105286,
-2.00958,0.100708,
-2.01416,0.0976563,
-2.01111,0.108337,
-2.01721,0.109863,
-2.01874,0.105286,
-2.02026,0.100708,
-2.02179,0.0946045,
-2.01569,0.106812,
-2.01721,0.106812,
-2.01874,0.10376,
-2.01874,0.100708,
-2.01874,0.0946045,
-2.02484,0.106812,
-2.02484,0.108337,
-2.02789,0.102234,
-2.02637,0.102234,
-2.03247,0.0946045,
-2.03552,0.105286,
-2.034,0.105286,
-2.03857,0.102234,
-2.04315,0.0946045,
-2.04468,0.0976563,
-2.04926,0.10376,
-2.05078,0.109863,
-2.05536,0.102234,
-2.06757,0.0976563,
-2.06451,0.0961304,
-2.06757,0.102234,
-2.06146,0.105286,
-2.06451,0.100708,
-2.07062,0.0946045,
-2.05994,0.0961304,
-2.05688,0.102234,
-2.05841,0.10376,
-2.05841,0.102234,
-2.06451,0.100708,
-2.06146,0.0946045,
-2.05841,0.105286,
-2.05994,0.102234,
-2.07062,0.105286,
-2.06451,0.0976563,
-2.06604,0.0915527,
-2.06909,0.106812,
-2.07214,0.100708,
-2.06909,0.100708,
-2.07214,0.0976563,
-2.07825,0.0946045,
-2.0752,0.108337,
-2.07825,0.102234,
-2.07977,0.100708,
-2.0752,0.0961304,
-2.07825,0.0961304,
-2.08282,0.10376,
-2.08588,0.102234,
-2.0813,0.100708,
-2.08893,0.0961304,
-2.08435,0.0961304,
-2.08435,0.10376,
-2.0874,0.10376,
-2.08435,0.10376,
-2.08282,0.0946045,
-2.08588,0.0961304,
-2.0874,0.106812,
-2.08588,0.100708,
-2.08893,0.0976563,
-2.09198,0.100708,
-2.10266,0.0930786,
-2.10114,0.10376,
-2.10571,0.100708,
-2.11029,0.100708,
-2.11334,0.102234,
-2.11029,0.0946045,
-2.10876,0.108337,
-2.10419,0.100708,
-2.10419,0.106812,
-2.09961,0.0946045,
-2.09045,0.0961304,
-2.08435,0.109863,
-2.0813,0.100708,
-2.07367,0.100708,
-2.05994,0.100708,
-2.04773,0.0961304,
-2.03552,0.10376,
-2.02179,0.100708,
-2.01721,0.102234,
-2.00348,0.100708,
-1.99127,0.0961304,
-1.97601,0.108337,
-1.96686,0.102234,
-1.96533,0.102234,
-1.95007,0.0976563,
-1.94397,0.0930786,
-1.93329,0.106812,
-1.93176,0.102234,
-1.92108,0.10376,
-1.91498,0.0976563,
-1.90582,0.0976563,
-1.89972,0.105286,
-1.89514,0.100708,
-1.88599,0.102234,
-1.88141,0.0976563,
-1.87988,0.0961304,
-1.87836,0.108337,
-1.87531,0.100708,
-1.87836,0.106812,
-1.87988,0.100708,
-1.87683,0.0946045,
-1.87225,0.106812,
-1.87225,0.10376,
-1.87073,0.106812,
-1.87225,0.0961304,
-1.87836,0.0961304,
-1.88141,0.10376,
-1.88599,0.102234,
-1.89056,0.10376,
-1.89514,0.0946045,
-1.90125,0.0961304,
-1.89972,0.108337,
-1.90125,0.102234,
-1.90125,0.102234,
-1.90125,0.0961304,
-1.90277,0.0946045,
-1.90277,0.106812,
-1.90582,0.100708,
-1.90887,0.10376,
-1.91345,0.100708,
-1.91193,0.0961304,
-1.9165,0.106812,
-1.91956,0.10376,
-1.92261,0.105286,
-1.92413,0.0976563,
-1.93176,0.0961304,
-1.93481,0.109863,
-1.93939,0.102234,
-1.93939,0.106812,
-1.94244,0.0961304,
-1.9455,0.0961304,
-1.95007,0.10376,
-1.9455,0.102234,
-1.94855,0.109863,
-1.9455,0.100708,
-1.93939,0.0946045,
-1.94244,0.108337,
-1.94092,0.10376,
-1.94397,0.106812,
-1.94244,0.100708,
-1.94397,0.0961304,
-1.94092,0.10376,
-1.94244,0.106812,
-1.93939,0.10376,
-1.93634,0.0946045,
-1.93634,0.0961304,
-1.93787,0.106812,
-1.93939,0.10376,
-1.94244,0.10376,
-1.93939,0.100708,
-1.94244,0.0961304,
-1.94244,0.105286,
-1.94244,0.106812,
-1.93939,0.106812,
-1.94244,0.100708,
-1.94244,0.100708,
-1.94397,0.109863,
-1.94855,0.108337,
-1.95007,0.106812,
-1.9516,0.100708,
-1.95465,0.0946045,
-1.95465,0.108337,
-1.9577,0.106812,
-1.95465,0.109863,
-1.95465,0.102234,
-1.96838,0.0961304,
-1.96381,0.108337,
-1.96686,0.105286,
-1.96381,0.105286,
-1.96991,0.0961304,
-1.95923,0.0961304,
-1.95465,0.108337,
-1.95465,0.106812,
-1.95618,0.106812,
-1.95313,0.0976563,
-1.95618,0.0961304,
-1.94702,0.108337,
-1.95313,0.106812,
-1.95007,0.105286,
-1.94702,0.0946045,
-1.94702,0.0946045,
-1.94397,0.106812,
-1.94702,0.105286,
-1.94855,0.105286,
-1.9516,0.0976563,
-1.95618,0.0976563,
-1.95313,0.105286,
-1.95923,0.105286,
-1.95313,0.106812,
-1.95465,0.100708,
-1.95618,0.0961304,
-1.95465,0.10376,
-1.9577,0.102234,
-1.9516,0.105286,
-1.9516,0.100708,
-1.9516,0.0946045,
-1.9516,0.105286,
-1.95313,0.10376,
-1.95313,0.105286,
-1.95618,0.100708,
-1.96228,0.100708,
-1.96228,0.105286,
-1.96381,0.106812,
-1.9577,0.10376,
-1.95923,0.100708,
-1.95923,0.0930786,
-1.95923,0.106812,
-1.95923,0.105286,
-1.96228,0.100708,
-1.96228,0.100708,
-1.95923,0.0946045,
-1.96381,0.105286,
-1.96991,0.10376,
-1.97449,0.100708,
-1.97449,0.0976563,
-1.98212,0.0946045,
-1.98822,0.10376,
-1.99585,0.102234,
-1.99585,0.10376,
-1.9989,0.0976563,
-2.00195,0.0961304,
-2.00043,0.106812,
-2.00348,0.106812,
-2.00806,0.10376,
-2.01263,0.100708,
-2.01416,0.0961304,
-2.01874,0.10376,
-2.02332,0.102234,
-2.02179,0.102234,
-2.02332,0.0976563,
-2.02789,0.0946045,
-2.034,0.10376,
-2.03857,0.102234,
-2.0401,0.10376,
-2.04163,0.0961304,
-2.04315,0.0946045,
-2.0462,0.10376,
-2.05078,0.102234,
-2.05536,0.10376,
-2.05841,0.0976563,
-2.05994,0.0961304,
-2.06146,0.100708,
-2.07062,0.10376,
-2.07672,0.105286,
-2.08588,0.0961304,
-2.09351,0.0976563,
-2.09656,0.105286,
-2.10571,0.102234,
-2.11029,0.102234,
-2.11487,0.0976563,
-2.11487,0.0976563,
-2.11945,0.105286,
-2.11792,0.102234,
-2.11945,0.10376,
-2.11792,0.102234,
-2.11945,0.0946045,
-2.11639,0.102234,
-2.10724,0.100708,
-2.10419,0.105286,
-2.09656,0.0976563,
-2.09351,0.0946045,
-2.09045,0.102234,
-2.08282,0.105286,
-2.07672,0.102234,
-2.07367,0.0961304,
-2.06909,0.0930786,
-2.05688,0.10376,
-2.04926,0.10376,
-2.04163,0.10376,
-2.034,0.0961304,
-2.02484,0.0946045,
-2.01416,0.10376,
-2.005,0.0976563,
-1.99585,0.10376,
-1.98669,0.0946045,
-1.98822,0.0930786,
-1.97906,0.10376,
-1.97144,0.102234,
-1.96533,0.10376,
-1.96381,0.0976563,
-1.95618,0.0961304,
-1.95313,0.100708,
-1.95313,0.100708,
-1.95313,0.105286,
-1.95313,0.100708,
-1.95465,0.0961304,
-1.95465,0.105286,
-1.95313,0.10376,
-1.95465,0.105286,
-1.9516,0.0946045,
-1.9516,0.0961304,
-1.9516,0.100708,
-1.95007,0.100708,
-1.95007,0.10376,
-1.94244,0.0961304,
-1.93634,0.0930786,
-1.92261,0.100708,
-1.91803,0.102234,
-1.91345,0.0976563,
-1.9104,0.0946045,
-1.9043,0.0946045,
-1.89667,0.105286,
-1.89819,0.100708,
-1.89819,0.102234,
-1.89667,0.100708,
-1.89514,0.100708,
-1.89362,0.100708,
-1.89056,0.102234,
-1.88904,0.10376,
-1.88599,0.0961304,
-1.88751,0.0961304,
-1.89056,0.10376,
-1.89667,0.102234,
-1.9043,0.102234,
-1.9043,0.0976563,
-1.91498,0.0946045,
-1.91498,0.102234,
-1.92261,0.102234,
-1.92261,0.105286,
-1.92413,0.102234,
-1.92871,0.0976563,
-1.92719,0.102234,
-1.92719,0.10376,
-1.93024,0.102234,
-1.92871,0.0976563,
-1.92871,0.0976563,
-1.93481,0.100708,
-1.93329,0.105286,
-1.93481,0.105286,
-1.93176,0.0976563,
-1.93176,0.0976563,
-1.92871,0.100708,
-1.93481,0.105286,
-1.93481,0.105286,
-1.93787,0.100708,
-1.93939,0.0961304,
-1.94092,0.100708,
-1.94092,0.105286,
-1.94092,0.10376,
-1.94397,0.0961304,
-1.93787,0.0946045,
-1.93634,0.102234,
-1.93787,0.10376,
-1.94092,0.10376,
-1.93939,0.0961304,
-1.93787,0.0976563,
-1.93939,0.102234,
-1.93634,0.102234,
-1.93787,0.105286,
-1.93634,0.0961304,
-1.93939,0.0961304,
-1.93939,0.10376,
-1.93634,0.105286,
-1.93939,0.10376,
-1.94244,0.100708,
-1.94397,0.0961304,
-1.94244,0.0976563,
-1.9455,0.105286,
-1.95007,0.102234,
-1.9455,0.0976563,
-1.94702,0.0961304,
-1.94702,0.10376,
-1.94855,0.105286,
-1.9516,0.105286,
-1.95313,0.0961304,
-1.95465,0.0961304,
-1.95923,0.102234,
-1.96228,0.102234,
-1.96838,0.102234,
-1.97296,0.0961304,
-1.97906,0.0961304,
-1.98059,0.0976563,
-1.98364,0.102234,
-1.98669,0.102234,
-1.98517,0.0961304,
-1.98822,0.0961304,
-1.99127,0.100708,
-1.99127,0.100708,
-1.9928,0.105286,
-2.00043,0.0976563,
-2.005,0.0930786,
-2.00653,0.0976563,
-2.00958,0.102234,
-2.01569,0.102234,
-2.02026,0.0961304,
-2.02332,0.0946045,
-2.02637,0.100708,
-2.03094,0.102234,
-2.034,0.102234,
-2.03552,0.100708,
-2.03857,0.0961304,
-2.04163,0.105286,
-2.04163,0.102234,
-2.04468,0.10376,
-2.04315,0.0946045,
-2.0462,0.0915527,
-2.04468,0.0976563,
-2.0462,0.10376,
-2.04773,0.105286,
-2.0462,0.100708,
-2.04163,0.0946045,
-2.04315,0.102234,
-2.04163,0.10376,
-2.04163,0.10376,
-2.03857,0.0961304,
-2.04163,0.0930786,
-2.0401,0.105286,
-2.0401,0.10376,
-2.0401,0.10376,
-2.0462,0.100708,
-2.05078,0.0961304,
-2.05383,0.0976563,
-2.05383,0.100708,
-2.05994,0.10376,
-2.06146,0.0961304,
-2.06604,0.0946045,
-2.07062,0.102234,
-2.07367,0.102234,
-2.07977,0.102234,
-2.08282,0.100708,
-2.08282,0.0976563,
-2.08588,0.100708,
-2.0874,0.10376,
-2.0874,0.10376,
-2.08588,0.0976563,
-2.09045,0.0946045,
-2.09351,0.10376,
-2.09351,0.105286,
-2.10266,0.10376,
-2.10724,0.0976563,
-2.11029,0.0976563,
-2.10876,0.102234,
-2.11792,0.102234,
-2.11792,0.102234,
-2.11792,0.0976563,
-2.11945,0.0976563,
-2.11945,0.102234,
-2.11792,0.105286,
-2.11334,0.10376,
-2.11182,0.0961304,
-2.11029,0.100708,
-2.10114,0.0976563,
-2.09198,0.10376,
-2.08282,0.10376,
-2.07977,0.0961304,
-2.07214,0.0961304,
-2.05841,0.100708,
-2.04926,0.102234,
-2.03705,0.105286,
-2.02789,0.0961304,
-2.01721,0.0930786,
-2.005,0.10376,
-1.9989,0.102234,
-1.98364,0.102234,
-1.97906,0.0976563,
-1.97144,0.0930786,
-1.96686,0.100708,
-1.9577,0.10376,
-1.9516,0.102234,
-1.95007,0.0976563,
-1.9455,0.0946045,
-1.9455,0.0976563,
-1.94702,0.10376,
-1.94855,0.102234,
-1.9455,0.0976563,
-1.9455,0.0946045,
-1.94244,0.100708,
-1.94397,0.10376,
-1.94092,0.102234,
-1.94397,0.0976563,
-1.95007,0.0930786,
-1.95007,0.0976563,
-1.95007,0.0976563,
-1.95313,0.102234,
-1.95618,0.0961304,
-1.95618,0.0961304,
-1.95313,0.100708,
-1.95465,0.10376,
-1.95618,0.100708,
-1.9516,0.0976563,
-1.9516,0.0930786,
-1.95313,0.102234,
-1.95007,0.100708,
-1.95007,0.102234,
-1.9516,0.102234,
-1.95313,0.0946045,
-1.95465,0.102234,
-1.95923,0.10376,
-1.95923,0.105286,
-1.9577,0.100708,
-1.96228,0.0976563,
-1.96381,0.100708,
-1.96228,0.10376,
-1.96686,0.106812,
-1.96533,0.0976563,
-1.96381,0.0961304,
-1.96228,0.0946045,
-1.96533,0.106812,
-1.96686,0.102234,
-1.96991,0.100708,
-1.97296,0.0946045,
-1.97296,0.100708,
-1.98059,0.106812,
-1.98212,0.106812,
-1.98517,0.0976563,
-1.9928,0.0961304,
-1.9928,0.100708,
-1.99738,0.105286,
-1.99738,0.100708,
-1.9989,0.0976563,
-2.00043,0.0961304,
-2.00043,0.102234,
-2.00043,0.102234,
-2.00195,0.10376,
-2.00195,0.100708,
-1.99585,0.0930786,
-1.99738,0.102234,
-2.00043,0.105286,
-1.99738,0.10376,
-1.99585,0.100708,
-1.99127,0.0946045,
-1.9928,0.102234,
-1.99585,0.105286,
-1.98822,0.102234,
-1.98975,0.0976563,
-1.98517,0.0946045,
-1.98364,0.102234,
-1.98364,0.10376,
-1.98212,0.105286,
-1.98059,0.0976563,
-1.97906,0.0930786,
-1.97601,0.0976563,
-1.98059,0.10376,
-1.97906,0.10376,
-1.98212,0.100708,
-1.98669,0.0946045,
-1.98517,0.0976563,
-1.9928,0.10376,
-1.9928,0.10376,
-1.9928,0.0961304,
-1.99738,0.0961304,
-1.9989,0.102234,
-2.00195,0.105286,
-2.00348,0.102234,
-2.00806,0.0976563,
-2.00958,0.0961304,
-2.00958,0.100708,
-2.01416,0.100708,
-2.01111,0.102234,
-2.01569,0.0930786,
-2.01874,0.0930786,
-2.01721,0.0961304,
-2.01569,0.102234,
-2.01874,0.0976563,
-2.01721,0.0976563,
-2.02484,0.0930786,
-2.02332,0.102234,
-2.02789,0.100708,
-2.03094,0.100708,
-2.03552,0.0976563,
-2.0401,0.0946045,
-2.04163,0.102234,
-2.04315,0.102234,
-2.04926,0.102234,
-2.05536,0.0976563,
-2.05688,0.0946045,
-2.06451,0.100708,
-2.06604,0.102234,
-2.07214,0.102234,
-2.07214,0.102234,
-2.07367,0.0961304,
-2.07367,0.102234,
-2.07977,0.10376,
-2.07977,0.105286,
-2.08435,0.0976563,
-2.08893,0.0976563,
-2.0874,0.0976563,
-2.08893,0.102234,
-2.09351,0.10376,
-2.09961,0.102234,
-2.09961,0.0946045,
-2.10266,0.100708,
-2.10266,0.100708,
-2.10266,0.106812,
-2.10419,0.0976563,
-2.10724,0.0961304,
-2.10876,0.102234,
-2.11334,0.102234,
-2.11029,0.102234,
-2.11182,0.102234,
-2.11334,0.0946045,
-2.11334,0.0976563,
-2.10876,0.10376,
-2.10724,0.100708,
-2.10571,0.100708,
-2.10571,0.0961304,
-2.10114,0.105286,
-2.09961,0.100708,
-2.10114,0.102234,
-2.09961,0.0961304,
-2.10114,0.100708,
-2.10114,0.100708,
-2.10571,0.102234,
-2.11029,0.100708,
-2.11029,0.102234,
-2.11029,0.0961304,
-2.11334,0.0976563,
-2.11182,0.100708,
-2.11182,0.102234,
-2.11487,0.0976563,
-2.11639,0.0976563,
-2.11945,0.0976563,
-2.12097,0.100708,
-2.12708,0.102234,
-2.13013,0.102234,
-2.13318,0.0976563,
-2.14081,0.102234,
-2.13776,0.102234,
-2.14233,0.100708,
-2.14539,0.0976563,
-2.14539,0.0961304,
-2.14386,0.100708,
-2.13776,0.105286,
-2.13776,0.0976563,
-2.13013,0.0961304,
-2.12708,0.0946045,
-2.11792,0.100708,
-2.11029,0.105286,
-2.10419,0.0961304,
-2.09503,0.0976563,
-2.08588,0.0976563,
-2.07367,0.100708,
-2.06757,0.106812,
-2.05994,0.100708,
-2.05078,0.0946045,
-2.03705,0.0915527,
-2.02789,0.100708,
-2.01721,0.10376,
-2.01263,0.102234,
-2.005,0.0961304,
-2.00043,0.0961304,
-1.99127,0.102234,
-1.98517,0.102234,
-1.98517,0.102234,
-1.97906,0.102234,
-1.97296,0.0946045,
-1.96838,0.102234,
-1.96838,0.102234,
-1.96228,0.10376,
-1.96228,0.102234,
-1.95618,0.0946045,
-1.95465,0.10376,
-1.9516,0.102234,
-1.94855,0.100708,
-1.9455,0.0976563,
-1.94244,0.0930786,
-1.93787,0.102234,
-1.93481,0.105286,
-1.93024,0.10376,
-1.93024,0.0976563,
-1.93024,0.0946045,
-1.93024,0.100708,
-1.93024,0.0976563,
-1.93481,0.10376,
-1.92871,0.0946045,
-1.93176,0.0946045,
-1.92871,0.102234,
-1.93176,0.10376,
-1.93024,0.10376,
-1.92719,0.0976563,
-1.92413,0.0976563,
-1.92108,0.0976563,
-1.92261,0.102234,
-1.92871,0.10376,
-1.92261,0.100708,
-1.92719,0.0930786,
-1.92871,0.102234,
-1.93176,0.10376,
-1.93787,0.102234,
-1.93787,0.100708,
-1.9455,0.0946045,
-1.94855,0.0961304,
-1.95007,0.10376,
-1.95313,0.10376,
-1.95618,0.0976563,
-1.95618,0.0976563,
-1.95923,0.0976563,
-1.96533,0.100708,
-1.96686,0.10376,
-1.96686,0.0976563,
-1.96838,0.0930786,
-1.97144,0.0961304,
-1.97144,0.100708,
-1.96838,0.102234,
-1.96838,0.0961304,
-1.96991,0.0946045,
-1.96838,0.102234,
-1.96991,0.102234,
-1.97601,0.102234,
-1.97906,0.0976563,
-1.98212,0.0946045,
-1.98669,0.105286,
-1.98669,0.100708,
-1.98517,0.100708,
-1.98822,0.0976563,
-1.9928,0.0961304,
-1.99127,0.0976563,
-1.99127,0.100708,
-1.9928,0.102234,
-1.98822,0.0976563,
-1.99585,0.0915527,
-1.99585,0.100708,
-2.00348,0.100708,
-2.00348,0.10376,
-2.005,0.0976563,
-2.00653,0.0961304,
-2.01569,0.100708,
-2.02026,0.0976563,
-2.02332,0.106812,
-2.02484,0.0976563,
-2.02637,0.0961304,
-2.02789,0.100708,
-2.02789,0.100708,
-2.034,0.102234,
-2.03705,0.0976563,
-2.04163,0.0946045,
-2.04468,0.10376,
-2.04926,0.0976563,
-2.04926,0.102234,
-2.04773,0.0976563,
-2.04926,0.0961304,
-2.05231,0.100708,
-2.05383,0.0976563,
-2.06146,0.106812,
-2.06451,0.0976563,
-2.07214,0.0976563,
-2.06909,0.0976563,
-2.0752,0.100708,
-2.07977,0.102234,
-2.0813,0.0961304,
-2.08282,0.0961304,
-2.0813,0.0976563,
-2.08282,0.0961304,
-2.08435,0.100708,
-2.08588,0.0930786,
-2.08893,0.0976563,
-2.08893,0.100708,
-2.0874,0.102234,
-2.08588,0.0976563,
-2.0874,0.0976563,
-2.0874,0.0961304,
-2.08435,0.0976563,
-2.0874,0.106812,
-2.08588,0.10376,
-2.08893,0.0961304,
-2.09503,0.0961304,
-2.09961,0.0961304,
-2.10419,0.105286,
-2.11029,0.100708,
-2.11334,0.0976563,
-2.11792,0.100708,
-2.12097,0.0976563,
-2.1225,0.105286,
-2.1286,0.10376,
-2.13013,0.10376,
-2.1347,0.0976563,
-2.13623,0.0976563,
-2.14081,0.102234,
-2.14844,0.10376,
-2.14844,0.0976563,
-2.15149,0.0961304,
-2.15912,0.0930786,
-2.15759,0.102234,
-2.16522,0.100708,
-2.17133,0.0976563,
-2.17896,0.0976563,
-2.18048,0.100708,
-2.18353,0.102234,
-2.18964,0.10376,
-2.19269,0.100708,
-2.2049,0.0961304,
-2.20642,0.0961304,
-2.211,0.102234,
-2.2171,0.0976563,
-2.22626,0.0946045,
-2.23083,0.0946045,
-2.23846,0.0930786,
-2.24915,0.100708,
-2.2583,0.100708,
-2.26593,0.0976563,
-2.27661,0.0961304,
-2.27966,0.0976563,
-2.28729,0.102234,
-2.29797,0.102234,
-2.31018,0.0976563,
-2.32086,0.0961304,
-2.33002,0.0930786,
-2.33917,0.102234,
-2.34528,0.0976563,
-2.3468,0.0961304,
-2.34833,0.0946045,
-2.35596,0.0961304,
-2.35138,0.100708,
-2.35291,0.0976563,
-2.35596,0.0961304,
-2.35596,0.0946045,
-2.35291,0.0946045,
-2.34833,0.102234,
-2.34375,0.105286,
-2.3407,0.0930786,
-2.33307,0.0961304,
-2.32544,0.0976563,
-2.31934,0.0976563,
-2.31018,0.100708,
-2.30103,0.0976563,
-2.29492,0.0961304,
-2.28271,0.0946045,
-2.27814,0.100708,
-2.26593,0.100708,
-2.25677,0.0946045,
-2.2522,0.0961304,
-2.24304,0.0961304,
-2.23389,0.100708,
-2.23389,0.10376,
-2.22931,0.0946045,
-2.22626,0.0946045,
-2.22321,0.0961304,
-2.22015,0.102234,
-2.21863,0.10376,
-2.21405,0.0946045,
-2.21405,0.100708,
-2.211,0.0961304,
-2.20337,0.10376,
-2.19879,0.100708,
-2.20184,0.0976563,
-2.19727,0.102234,
-2.19574,0.0946045,
-2.19269,0.10376,
-2.19421,0.100708,
-2.19421,0.0976563,
-2.19421,0.0976563,
-2.19574,0.0961304,
-2.19727,0.102234,
-2.19574,0.100708,
-2.19879,0.102234,
-2.19879,0.100708,
-2.19879,0.100708,
-2.19879,0.10376,
-2.20337,0.100708,
-2.19879,0.0946045,
-2.19727,0.0961304,
-2.20642,0.0976563,
-2.2049,0.10376,
-2.20947,0.10376,
-2.20795,0.0976563,
-2.20947,0.100708,
-2.20947,0.0976563,
-2.211,0.10376,
-2.21558,0.100708,
-2.21863,0.0961304,
-2.22015,0.0961304,
-2.22321,0.0976563,
-2.22778,0.10376,
-2.22931,0.102234,
-2.23694,0.0976563,
-2.23694,0.0976563,
-2.24457,0.0961304,
-2.24762,0.100708,
-2.24915,0.0976563,
-2.2522,0.100708,
-2.25372,0.0976563,
-2.2522,0.0976563,
-2.25372,0.106812,
-2.2583,0.0976563,
-2.2644,0.100708,
-2.26746,0.0961304,
-2.27051,0.0976563,
-2.27203,0.102234,
-2.27509,0.10376,
-2.27814,0.0976563,
-2.28577,0.100708,
-2.29187,0.0976563,
-2.29645,0.105286,
-2.2934,0.0976563,
-2.30255,0.0961304,
-2.30103,0.100708,
-2.2995,0.0946045,
-2.30713,0.10376,
-2.3056,0.100708,
-2.3056,0.0961304,
-2.30865,0.0976563,
-2.30865,0.100708,
-2.30713,0.10376,
-2.3056,0.0976563,
-2.30255,0.102234,
-2.30103,0.0976563,
-2.30713,0.0976563,
-2.30255,0.102234,
-2.30255,0.0976563,
-2.29797,0.0976563,
-2.29492,0.0976563,
-2.29492,0.100708,
-2.29492,0.106812,
-2.29645,0.100708,
-2.29645,0.0961304,
-2.2934,0.0961304,
-2.29034,0.100708,
-2.28729,0.10376,
-2.28729,0.102234,
-2.28424,0.0976563,
-2.28424,0.100708,
-2.28119,0.102234,
-2.27661,0.102234,
-2.27356,0.100708,
-2.26746,0.100708,
-2.2644,0.102234,
-2.25983,0.100708,
-2.2583,0.105286,
-2.25677,0.10376,
-2.25372,0.0976563,
-2.2522,0.0976563,
-2.24915,0.100708,
-2.24609,0.105286,
-2.23999,0.102234,
-2.23389,0.0961304,
-2.22931,0.100708,
-2.22473,0.100708,
-2.22473,0.10376,
-2.2171,0.102234,
-2.20947,0.102234,
-2.20642,0.10376,
-2.19879,0.105286,
-2.18964,0.10376,
-2.18506,0.100708,
-2.18201,0.0961304,
-2.1759,0.102234,
-2.17438,0.102234,
-2.16522,0.105286,
-2.16064,0.105286,
-2.15607,0.0961304,
-2.15149,0.0976563,
-2.14691,0.10376,
-2.14386,0.102234,
-2.14233,0.10376,
-2.13623,0.0946045,
-2.13623,0.0961304,
-2.1286,0.102234,
-2.12402,0.102234,
-2.12097,0.100708,
-2.12097,0.0976563,
-2.11945,0.102234,
-2.12097,0.102234,
-2.11945,0.100708,
-2.11945,0.0961304,
-2.12097,0.0961304,
-2.11639,0.0976563,
-2.12402,0.100708,
-2.12402,0.100708,
-2.12555,0.102234,
-2.12708,0.0976563,
-2.1286,0.102234,
-2.1347,0.0961304,
-2.13318,0.102234,
-2.13776,0.0976563,
-2.14233,0.0976563,
-2.14386,0.0961304,
-2.14691,0.100708,
-2.15454,0.102234,
-2.15607,0.100708,
-2.16522,0.0961304,
-2.1698,0.100708,
-2.17896,0.0976563,
-2.18353,0.102234,
-2.18811,0.100708,
-2.18964,0.0976563,
-2.19269,0.10376,
-2.19574,0.0946045,
-2.20184,0.102234,
-2.211,0.100708,
-2.211,0.0976563,
-2.21405,0.100708,
-2.21863,0.0961304,
-2.22626,0.100708,
-2.22778,0.0976563,
-2.23236,0.100708,
-2.24304,0.102234,
-2.24762,0.0961304,
-2.25372,0.100708,
-2.25677,0.102234,
-2.25677,0.0961304,
-2.26135,0.102234,
-2.25677,0.0976563,
-2.2583,0.10376,
-2.25525,0.102234,
-2.25372,0.100708,
-2.25067,0.100708,
-2.25067,0.100708,
-2.24457,0.102234,
-2.24152,0.102234,
-2.22778,0.102234,
-2.22015,0.0976563,
-2.21252,0.102234,
-2.20642,0.102234,
-2.19879,0.100708,
-2.19116,0.0976563,
-2.18201,0.100708,
-2.18201,0.100708,
-2.17438,0.10376,
-2.17285,0.100708,
-2.16217,0.0961304,
-2.15454,0.102234,
-2.14996,0.102234,
-2.14233,0.105286,
-2.13776,0.102234,
-2.13013,0.0976563,
-2.1286,0.0976563,
-2.13013,0.0976563,
-2.13318,0.10376,
-2.13318,0.102234,
-2.13318,0.100708,
-2.1347,0.102234,
-2.13776,0.105286,
-2.13928,0.102234,
-2.14081,0.10376,
-2.14081,0.0961304,
-2.13776,0.0961304,
-2.13776,0.102234,
-2.14233,0.100708,
-2.14386,0.10376,
-2.14386,0.0976563,
-2.15149,0.102234,
-2.15454,0.105286,
-2.16064,0.102234,
-2.16522,0.0976563,
-2.1759,0.0946045,
-2.1759,0.0961304,
-2.18201,0.102234,
-2.18353,0.100708,
-2.19269,0.10376,
-2.19574,0.0946045,
-2.20337,0.0961304,
-2.20795,0.102234,
-2.21252,0.102234,
-2.21252,0.100708,
-2.21405,0.0976563,
-2.21863,0.0946045,
-2.21863,0.106812,
-2.21558,0.105286,
-2.22168,0.102234,
-2.22321,0.0961304,
-2.22321,0.0976563,
-2.22778,0.105286,
-2.22778,0.102234,
-2.23694,0.102234,
-2.23694,0.0946045,
-2.23846,0.0976563,
-2.23846,0.105286,
-2.23694,0.102234,
-2.24152,0.100708,
-2.24457,0.0976563,
-2.24152,0.0961304,
-2.23999,0.105286,
-2.24152,0.100708,
-2.24152,0.0961304,
-2.23999,0.0976563,
-2.23694,0.100708,
-2.23236,0.10376,
-2.23236,0.100708,
-2.23236,0.102234,
-2.23083,0.0961304,
-2.23236,0.102234,
-2.22931,0.106812,
-2.22626,0.10376,
-2.22473,0.100708,
-2.22168,0.0976563,
-2.22168,0.0976563,
-2.22015,0.108337,
-2.22168,0.102234,
-2.22168,0.102234,
-2.21863,0.102234,
-2.2171,0.100708,
-2.21863,0.105286,
-2.22321,0.100708,
-2.22168,0.106812,
-2.2171,0.0961304,
-2.21863,0.0976563,
-2.22473,0.102234,
-2.22626,0.100708,
-2.23694,0.10376,
-2.23999,0.0961304,
-2.24304,0.0976563,
-2.24152,0.105286,
-2.24915,0.102234,
-2.25067,0.105286,
-2.25067,0.100708,
-2.25983,0.102234,
-2.26135,0.102234,
-2.26746,0.10376,
-2.27051,0.10376,
-2.27661,0.0961304,
-2.27814,0.0961304,
-2.28119,0.102234,
-2.28424,0.102234,
-2.28424,0.100708,
-2.28729,0.100708,
-2.28119,0.0976563,
-2.28424,0.10376,
-2.28119,0.100708,
-2.27814,0.10376,
-2.27661,0.0976563,
-2.27661,0.0961304,
-2.28119,0.10376,
-2.27814,0.100708,
-2.28119,0.10376,
-2.27814,0.0961304,
-2.27814,0.0976563,
-2.27509,0.102234,
-2.27966,0.100708,
-2.28119,0.102234,
-2.28271,0.0961304,
-2.28271,0.0946045,
-2.28729,0.100708,
-2.28577,0.102234,
-2.29187,0.102234,
-2.29492,0.0961304,
-2.30103,0.0976563,
-2.2995,0.100708,
-2.29797,0.102234,
-2.29645,0.100708,
-2.29492,0.0976563,
-2.29645,0.0976563,
-2.29645,0.102234,
-2.30103,0.100708,
-2.30713,0.10376,
-2.30713,0.100708,
-2.30865,0.0930786,
-2.30865,0.10376,
-2.3056,0.100708,
-2.30865,0.100708,
-2.30865,0.0961304,
-2.31018,0.0961304,
-2.31171,0.102234,
-2.31018,0.10376,
-2.31018,0.102234,
-2.31171,0.0961304,
-2.31628,0.0961304,
-2.31476,0.10376,
-2.31476,0.10376,
-2.31781,0.102234,
-2.31934,0.0961304,
-2.32086,0.0976563,
-2.32544,0.10376,
-2.33002,0.10376,
-2.33307,0.102234,
-2.34375,0.0976563,
-2.34375,0.0976563,
-2.34528,0.10376,
-2.35138,0.106812,
-2.35291,0.100708,
-2.35596,0.100708,
-2.35748,0.0976563,
-2.35596,0.102234,
-2.36053,0.106812,
-2.35748,0.100708,
-2.36053,0.100708,
-2.36206,0.100708,
-2.36359,0.10376,
-2.36359,0.102234,
-2.36816,0.0976563,
-2.36816,0.100708,
-2.37427,0.102234,
-2.37732,0.10376,
-2.37885,0.106812,
-2.38037,0.10376,
-2.37579,0.100708,
-2.37579,0.100708,
-2.37427,0.0976563,
-2.36511,0.105286,
-2.35901,0.102234,
-2.35291,0.0976563,
-2.34375,0.100708,
-2.33459,0.102234,
-2.32849,0.102234,
-2.32086,0.10376,
-2.31628,0.0961304,
-2.30865,0.102234,
-2.30713,0.10376,
-2.30255,0.105286,
-2.29492,0.105286,
-2.29187,0.0976563,
-2.29034,0.100708,
-2.28577,0.0961304,
-2.28577,0.10376,
-2.28271,0.10376,
-2.27661,0.100708,
-2.27509,0.10376,
-2.27356,0.100708,
-2.27051,0.105286,
-2.26746,0.100708,
-2.26593,0.100708,
-2.2644,0.0961304,
-2.2644,0.102234,
-2.25983,0.105286,
-2.26135,0.102234,
-2.26288,0.0946045,
-2.26135,0.100708,
-2.26288,0.0961304,
-2.26593,0.102234,
-2.26746,0.100708,
-2.27203,0.0946045,
-2.27356,0.0976563,
-2.27661,0.102234,
-2.27814,0.10376,
-2.28271,0.102234,
-2.28119,0.0946045,
-2.29187,0.100708,
-2.29492,0.0961304,
-2.29797,0.0976563,
-2.29797,0.100708,
-2.30103,0.0961304,
-2.30255,0.0961304,
-2.30255,0.0976563,
-2.30713,0.100708,
-2.3056,0.10376,
-2.31018,0.100708,
-2.31018,0.100708,
-2.31018,0.0961304,
-2.31323,0.102234,
-2.31628,0.102234,
-2.31628,0.10376,
-2.31934,0.100708,
-2.32391,0.102234,
-2.32544,0.100708,
-2.32849,0.0961304,
-2.33307,0.10376,
-2.33154,0.0915527,
-2.33154,0.0976563,
-2.33459,0.100708,
-2.33917,0.106812,
-2.33459,0.088501,
-2.33459,0.0961304,
-2.33917,0.0961304,
-2.34375,0.105286,
-2.3468,0.102234,
-2.34833,0.0961304,
-2.34985,0.0946045,
-2.35291,0.102234,
-2.35291,0.0961304,
-2.35901,0.108337,
-2.35443,0.0930786,
-2.35901,0.0946045,
-2.36206,0.0976563,
-2.36359,0.109863,
-2.36359,0.100708,
-2.36511,0.100708,
-2.36359,0.0961304,
-2.36816,0.0946045,
-2.37427,0.106812,
-2.37122,0.10376,
-2.37732,0.108337,
-2.36969,0.0946045,
-2.36969,0.0976563,
-2.37427,0.102234,
-2.36664,0.10376,
-2.36664,0.0961304,
-2.36359,0.0961304,
-2.36969,0.106812,
-2.36359,0.102234,
-2.36359,0.105286,
-2.36359,0.100708,
-2.36816,0.0961304,
-2.37122,0.100708,
-2.37579,0.102234,
-2.3819,0.100708,
-2.38342,0.102234,
-2.388,0.0915527,
-2.39105,0.100708,
-2.39258,0.100708,
-2.39563,0.10376,
-2.3941,0.0976563,
-2.39868,0.0961304,
-2.40173,0.102234,
-2.40173,0.10376,
-2.40173,0.100708,
-2.40479,0.0961304,
-2.41241,0.0946045,
-2.41394,0.10376,
-2.41699,0.10376,
-2.41699,0.10376,
-2.42157,0.0930786,
-2.42767,0.0961304,
-2.43378,0.100708,
-2.43378,0.10376,
-2.4353,0.102234,
-2.43683,0.100708,
-2.44446,0.0961304,
-2.44751,0.102234,
-2.44446,0.102234,
-2.44751,0.0976563,
-2.45209,0.0961304,
-2.44904,0.0946045,
-2.45056,0.100708,
-2.45056,0.105286,
-2.45056,0.102234,
-2.45361,0.0961304,
-2.45514,0.0976563,
-2.45514,0.0976563,
-2.45361,0.0976563,
-2.45361,0.100708,
-2.45361,0.0946045,
-2.45667,0.0961304,
-2.46429,0.106812,
-2.45972,0.105286,
-2.45667,0.100708,
-2.46277,0.106812,
-2.45514,0.100708,
-2.46124,0.0976563,
-2.45972,0.0915527,
-2.46735,0.108337,
-2.46277,0.0976563,
-2.46277,0.0976563,
-2.46735,0.0976563,
-2.46582,0.0946045,
-2.47345,0.108337,
-2.47192,0.0976563,
-2.47803,0.0976563,
-2.48413,0.102234,
-2.49023,0.102234,
-2.48871,0.102234,
-2.49176,0.100708,
-2.49329,0.0976563,
-2.49634,0.102234,
-2.49176,0.0961304,
-2.49481,0.0976563,
-2.49481,0.0976563,
-2.49329,0.0946045,
-2.49329,0.100708,
-2.49329,0.10376,
-2.49481,0.0976563,
-2.49176,0.0976563,
-2.49634,0.0961304,
-2.49786,0.102234,
-2.50244,0.102234,
-2.50397,0.100708,
-2.50244,0.0946045,
-2.50397,0.100708,
-2.50702,0.102234,
-2.51465,0.105286,
-2.51465,0.102234,
-2.5177,0.0961304,
-2.51923,0.0946045,
-2.51617,0.102234,
-2.51465,0.10376,
-2.51312,0.105286,
-2.50397,0.0976563,
-2.49939,0.0946045,
-2.49634,0.106812,
-2.49176,0.10376,
-2.47955,0.10376,
-2.4704,0.0976563,
-2.45972,0.0946045,
-2.45209,0.105286,
-2.44293,0.10376,
-2.43073,0.0976563,
-2.41852,0.0961304,
-2.40936,0.0930786,
-2.39716,0.102234,
-2.388,0.10376,
-2.37732,0.102234,
-2.36816,0.0961304,
-2.35901,0.0961304,
-2.35443,0.0961304,
-2.34833,0.10376,
-2.34528,0.102234,
-2.34222,0.0946045,
-2.33612,0.0946045,
-2.33154,0.105286,
-2.33002,0.105286,
-2.32697,0.102234,
-2.32391,0.0946045,
-2.32086,0.0930786,
-2.31628,0.10376,
-2.31628,0.10376,
-2.31628,0.106812,
-2.31476,0.0961304,
-2.31628,0.0915527,
-2.31934,0.105286,
-2.31934,0.10376,
-2.32391,0.102234,
-2.32849,0.0976563,
-2.33002,0.0946045,
-2.33459,0.105286,
-2.33459,0.105286,
-2.34528,0.108337,
-2.3407,0.0976563,
-2.34375,0.0946045,
-2.34528,0.106812,
-2.3468,0.106812,
-2.34833,0.102234,
-2.34985,0.0976563,
-2.35138,0.0976563,
-2.35443,0.106812,
-2.34985,0.105286,
-2.35138,0.108337,
-2.34528,0.102234,
-2.34833,0.102234,
-2.3468,0.111389,
-2.34222,0.10376,
-2.33917,0.102234,
-2.34222,0.100708,
-2.34528,0.0961304,
-2.34833,0.111389,
-2.34833,0.105286,
-2.35291,0.102234,
-2.36053,0.10376,
-2.36206,0.0961304,
-2.35901,0.10376,
-2.37122,0.111389,
-2.37122,0.10376,
-2.37427,0.0976563,
-2.37885,0.10376,
-2.3819,0.102234,
-2.38495,0.10376,
-2.38495,0.10376,
-2.38495,0.0976563,
-2.38647,0.0961304,
-2.38647,0.106812,
-2.388,0.10376,
-2.38647,0.10376,
-2.388,0.0946045,
-2.388,0.0976563,
-2.3941,0.0961304,
-2.39716,0.105286,
-2.39716,0.102234,
-2.40173,0.0976563,
-2.40479,0.0976563,
-2.40479,0.0976563,
-2.40326,0.10376,
-2.40173,0.102234,
-2.40326,0.100708,
-2.39868,0.0976563,
-2.39868,0.10376,
-2.39716,0.10376,
-2.39716,0.105286,
-2.39258,0.0976563,
-2.39563,0.100708,
-2.39258,0.102234,
-2.39105,0.10376,
-2.39258,0.100708,
-2.39105,0.0976563,
-2.39105,0.0976563,
-2.39105,0.105286,
-2.39105,0.105286,
-2.39258,0.100708,
-2.3941,0.0946045,
-2.39258,0.0976563,
-2.39258,0.10376,
-2.39563,0.102234,
-2.39258,0.102234,
-2.39105,0.100708,
-2.38953,0.0946045,
-2.38647,0.10376,
-2.38342,0.10376,
-2.38495,0.10376,
-2.388,0.0946045,
-2.38953,0.0961304,
-2.388,0.102234,
-2.39258,0.105286,
-2.3941,0.10376,
-2.40021,0.0976563,
-2.40173,0.0961304,
-2.40479,0.109863,
-2.41241,0.102234,
-2.41699,0.102234,
-2.41852,0.0961304,
-2.42462,0.100708,
-2.4231,0.106812,
-2.42767,0.102234,
-2.43683,0.10376,
-2.43683,0.100708,
-2.44751,0.0976563,
-2.45056,0.109863,
-2.45667,0.102234,
-2.46124,0.10376,
-2.46735,0.0976563,
-2.47192,0.0976563,
-2.4826,0.106812,
-2.48718,0.10376,
-2.49481,0.10376,
-2.49786,0.0946045,
-2.50397,0.100708,
-2.5116,0.108337,
-2.51312,0.10376,
-2.51465,0.10376,
-2.51465,0.0976563,
-2.50397,0.0946045,
-2.50092,0.108337,
-2.50092,0.106812,
-2.49481,0.102234,
-2.49329,0.0976563,
-2.49786,0.10376,
-2.48871,0.10376,
-2.49023,0.10376,
-2.49329,0.10376,
-2.49939,0.0961304,
-2.50244,0.0961304,
-2.50702,0.109863,
-2.50244,0.10376,
-2.50702,0.102234,
-2.50854,0.0946045,
-2.51465,0.100708,
-2.51465,0.10376,
-2.51617,0.10376,
-2.51617,0.10376,
-2.5177,0.0946045,
-2.5177,0.0946045,
-2.5177,0.100708,
-2.52228,0.100708,
-2.52533,0.102234,
-2.52533,0.0961304,
-2.52075,0.0930786,
-2.52686,0.102234,
-2.52686,0.10376,
-2.52686,0.105286,
-2.52838,0.0930786,
-2.53143,0.0961304,
-2.53448,0.10376,
-2.53143,0.102234,
-2.53143,0.0961304,
-2.52686,0.0961304,
-2.52228,0.0946045,
-2.5177,0.0976563,
-2.5116,0.105286,
-2.50702,0.100708,
-2.50092,0.0946045,
-2.49329,0.100708,
-2.48871,0.102234,
-2.47955,0.10376,
-2.47192,0.102234,
-2.46277,0.0930786,
-2.45361,0.0961304,
-2.44751,0.10376,
-2.43835,0.105286,
-2.42767,0.102234,
-2.41699,0.0961304,
-2.40173,0.0961304,
-2.38647,0.102234,
-2.37122,0.102234,
-2.35596,0.10376,
-2.3468,0.0961304,
-2.33002,0.0961304,
-2.31781,0.108337,
-2.31323,0.106812,
-2.3056,0.102234,
-2.29645,0.0946045,
-2.28729,0.100708,
-2.28424,0.106812,
-2.27509,0.10376,
-2.27051,0.100708,
-2.2644,0.0946045,
-2.2644,0.0946045,
-2.26135,0.106812,
-2.26288,0.10376,
-2.26288,0.0976563,
-2.26135,0.0961304,
-2.2644,0.100708,
-2.26288,0.10376,
-2.26135,0.102234,
-2.26593,0.100708,
-2.27509,0.0961304,
-2.27966,0.102234,
-2.28119,0.105286,
-2.27966,0.105286,
-2.28882,0.105286,
-2.2934,0.0946045,
-2.29645,0.0976563,
-2.30103,0.105286,
-2.30713,0.105286,
-2.31018,0.102234,
-2.31628,0.0961304,
-2.31628,0.100708,
-2.32697,0.106812,
-2.32697,0.106812,
-2.33612,0.102234,
-2.34222,0.0976563,
-2.34833,0.0961304,
-2.34833,0.105286,
-2.35138,0.106812,
-2.35443,0.102234,
-2.35748,0.0976563,
-2.36053,0.100708,
-2.36053,0.106812,
-2.36664,0.10376,
-2.36816,0.10376,
-2.36664,0.0961304,
-2.37427,0.102234,
-2.37579,0.106812,
-2.3819,0.100708,
-2.3819,0.10376,
-2.3819,0.0946045,
-2.38495,0.0961304,
-2.38647,0.102234,
-2.38342,0.100708,
-2.38495,0.10376,
-2.38647,0.0946045,
-2.38953,0.0961304,
-2.388,0.0976563,
-2.38647,0.106812,
-2.388,0.100708,
-2.38647,0.0930786,
-2.38953,0.100708,
-2.38953,0.100708,
-2.38953,0.105286,
-2.38953,0.102234,
-2.388,0.0961304,
-2.38495,0.0976563,
-2.38495,0.100708,
-2.3819,0.10376,
-2.37885,0.100708,
-2.37885,0.0915527,
-2.37732,0.0976563,
-2.37122,0.102234,
-2.37732,0.100708,
-2.38037,0.0976563,
-2.38037,0.0946045,
-2.37732,0.0976563,
-2.37885,0.10376,
-2.38495,0.105286,
-2.38342,0.102234,
-2.3819,0.0930786,
-2.3819,0.0961304,
-2.3819,0.100708,
-2.38037,0.10376,
-2.38342,0.100708,
-2.388,0.0961304,
-2.39258,0.100708,
-2.39563,0.105286,
-2.40173,0.105286,
-2.40326,0.102234,
-2.41089,0.0946045,
-2.41241,0.0976563,
-2.42004,0.10376,
-2.42157,0.105286,
-2.42615,0.102234,
-2.42767,0.0946045,
-2.4353,0.100708,
-2.4353,0.109863,
-2.43988,0.105286,
-2.44598,0.10376,
-2.45361,0.0915527,
-2.45972,0.100708,
-2.4704,0.10376,
-2.47498,0.105286,
-2.48108,0.100708,
-2.4826,0.0915527,
-2.48566,0.102234,
-2.48871,0.106812,
-2.49634,0.10376,
-2.49481,0.102234,
-2.50092,0.0976563,
-2.50549,0.0961304,
-2.50397,0.10376,
-2.50549,0.105286,
-2.51465,0.100708,
-2.5177,0.0946045,
-2.52533,0.100708,
-2.53296,0.10376,
-2.53143,0.106812,
-2.53601,0.100708,
-2.54059,0.0946045,
-2.54822,0.100708,
-2.5528,0.10376,
-2.55737,0.10376,
-2.565,0.100708,
-2.56805,0.0961304,
-2.57568,0.0976563,
-2.57721,0.102234,
-2.58331,0.105286,
-2.58942,0.100708,
-2.59399,0.0976563,
-2.59247,0.102234,
-2.59247,0.102234,
-2.58789,0.105286,
-2.58789,0.105286,
-2.58789,0.0930786,
-2.58484,0.0976563,
-2.58026,0.10376,
-2.57263,0.106812,
-2.56958,0.10376,
-2.56958,0.0946045,
-2.56348,0.0976563,
-2.5589,0.10376,
-2.5528,0.10376,
-2.54669,0.100708,
-2.53754,0.0930786,
-2.53601,0.0976563,
-2.52533,0.100708,
-2.51923,0.106812,
-2.5116,0.0976563,
-2.50244,0.0976563,
-2.50092,0.102234,
-2.49786,0.10376,
-2.49634,0.10376,
-2.48871,0.102234,
-2.48108,0.0946045,
-2.47955,0.100708,
-2.47498,0.102234,
-2.4704,0.10376,
-2.46582,0.10376,
-2.46582,0.0930786,
-2.46277,0.100708,
-2.46124,0.105286,
-2.45514,0.105286,
-2.45056,0.10376,
-2.44904,0.0946045,
-2.44446,0.0976563,
-2.43988,0.102234,
-2.4353,0.10376,
-2.4353,0.100708,
-2.4292,0.0946045,
-2.42767,0.0976563,
-2.42615,0.10376,
-2.42004,0.100708,
-2.42004,0.100708,
-2.41852,0.0976563,
-2.41394,0.102234,
-2.40631,0.100708,
-2.40326,0.105286,
-2.40021,0.10376,
-2.39716,0.0961304,
-2.38953,0.0961304,
-2.38953,0.10376,
-2.38647,0.10376,
-2.38342,0.100708,
-2.38037,0.0961304,
-2.37579,0.0976563,
-2.36816,0.10376,
-2.36206,0.10376,
-2.36053,0.100708,
-2.35291,0.0946045,
-2.35138,0.0976563,
-2.3407,0.100708,
-2.33459,0.10376,
-2.33307,0.100708,
-2.33002,0.0976563,
-2.32849,0.102234,
-2.32697,0.102234,
-2.33154,0.105286,
-2.33307,0.0961304,
-2.33307,0.0946045,
-2.33459,0.10376,
-2.33917,0.105286,
-2.3407,0.105286,
-2.3407,0.10376,
-2.34222,0.0976563,
-2.3407,0.10376,
-2.33917,0.100708,
-2.3407,0.106812,
-2.3407,0.102234,
-2.34833,0.100708,
-2.35138,0.100708,
-2.35291,0.10376,
-2.35901,0.10376,
-2.36206,0.10376,
-2.36359,0.100708,
-2.36053,0.102234,
-2.36511,0.106812,
-2.36816,0.10376,
-2.36969,0.10376,
-2.37732,0.0976563,
-2.38037,0.100708,
-2.38495,0.10376,
-2.39563,0.108337,
-2.40631,0.0961304,
-2.41394,0.0976563,
-2.42004,0.100708,
-2.42615,0.10376,
-2.43988,0.108337,
-2.44598,0.105286,
-2.45667,0.100708,
-2.46429,0.0961304,
-2.46887,0.10376,
-2.47955,0.105286,
-2.48108,0.102234,
-2.48413,0.0961304,
-2.49176,0.0976563,
-2.49786,0.102234,
-2.50092,0.10376,
-2.50092,0.100708,
-2.50397,0.0961304,
-2.50092,0.100708,
-2.49634,0.108337,
-2.49786,0.10376,
-2.49023,0.100708,
-2.48718,0.0961304,
-2.49023,0.0976563,
-2.48566,0.10376,
-2.48108,0.10376,
-2.47192,0.0976563,
-2.46735,0.0946045,
-2.45972,0.102234,
-2.44293,0.100708,
-2.42615,0.10376,
-2.41394,0.100708,
-2.39105,0.0946045,
-2.3819,0.0976563,
-2.36664,0.10376,
-2.36053,0.10376,
-2.34528,0.10376,
-2.33154,0.0930786,
-2.31781,0.0946045,
-2.30255,0.100708,
-2.28729,0.102234,
-2.27509,0.102234,
-2.2522,0.0930786,
-2.23389,0.100708,
-2.21863,0.0976563,
-2.20947,0.102234,
-2.20337,0.102234,
-2.19421,0.0961304,
-2.19269,0.0961304,
-2.20337,0.102234,
-2.20642,0.106812,
-2.21252,0.102234,
-2.2171,0.0961304,
-2.21558,0.0961304,
-2.22321,0.102234,
-2.2171,0.106812,
-2.2171,0.10376,
-2.22321,0.0946045,
-2.22931,0.0961304,
-2.24457,0.106812,
-2.24915,0.10376,
-2.25677,0.102234,
-2.2583,0.0930786,
-2.2644,0.102234,
-2.27051,0.102234,
-2.28424,0.106812,
-2.30255,0.100708,
-2.31781,0.0946045,
-2.33459,0.0976563,
-2.35291,0.100708,
-2.36206,0.102234,
-2.37885,0.102234,
-2.39563,0.0946045,
-2.40479,0.0976563,
-2.41699,0.10376,
-2.42462,0.10376,
-2.43378,0.102234,
-2.44751,0.0930786,
-2.45667,0.10376,
-2.46582,0.102234,
-2.47345,0.100708,
-2.47498,0.0976563,
-2.48108,0.0930786,
-2.48871,0.0976563,
-2.49023,0.100708,
-2.49634,0.10376,
-2.49939,0.100708,
-2.49939,0.0930786,
-2.50092,0.0976563,
-2.50549,0.100708,
-2.50854,0.106812,
-2.50854,0.102234,
-2.5116,0.0930786,
-2.5116,0.0961304,
-2.51617,0.102234,
-2.52228,0.10376,
-2.52533,0.100708,
-2.52686,0.0961304,
-2.52686,0.0930786,
-2.53143,0.0976563,
-2.53296,0.10376,
-2.53296,0.0961304,
-2.53143,0.0946045,
-2.52533,0.0976563,
-2.52686,0.102234,
-2.52686,0.105286,
-2.52686,0.0961304,
-2.51923,0.0930786,
-2.50549,0.0976563,
-2.49634,0.102234,
-2.4826,0.10376,
-2.46735,0.0961304,
-2.45514,0.100708,
-2.44751,0.0976563,
-2.4353,0.100708,
-2.4353,0.102234,
-2.43225,0.0976563,
-2.4292,0.0976563,
-2.42615,0.0976563,
-2.4231,0.102234,
-2.4231,0.10376,
-2.42157,0.0976563,
-2.41852,0.0976563,
-2.41394,0.100708,
-2.40936,0.10376,
-2.40326,0.10376,
-2.40173,0.0976563,
-2.40326,0.100708,
-2.40631,0.0961304,
-2.40631,0.0961304,
-2.40631,0.102234,
-2.41394,0.0961304,
-2.41699,0.0976563,
-2.41394,0.100708,
-2.41394,0.10376,
-2.41547,0.105286,
-2.41547,0.100708,
-2.41699,0.102234,
-2.41699,0.0961304,
-2.41547,0.10376,
-2.41699,0.102234,
-2.41852,0.0961304,
-2.41394,0.100708,
-2.41241,0.0930786,
-2.40936,0.106812,
-2.40936,0.105286,
-2.40479,0.100708,
-2.40326,0.0976563,
-2.40631,0.0961304,
-2.40479,0.105286,
-2.40326,0.10376,
-2.40936,0.0976563,
-2.41089,0.0946045,
-2.41241,0.0961304,
-2.41547,0.102234,
-2.41547,0.10376,
-2.42157,0.0976563,
-2.42767,0.0961304,
-2.43073,0.0961304,
-2.4353,0.105286,
-2.43683,0.102234,
-2.44446,0.0946045,
-2.44598,0.0930786,
-2.45361,0.0976563,
-2.45514,0.10376,
-2.46124,0.102234,
-2.46277,0.0976563,
-2.46429,0.0915527,
-2.46887,0.100708,
-2.47345,0.100708,
-2.47803,0.10376,
-2.48108,0.0946045,
-2.4826,0.0930786,
-2.48108,0.0976563,
-2.4826,0.0976563,
-2.4826,0.102234,
-2.48413,0.0946045,
-2.48871,0.0900269,
-2.49329,0.100708,
-2.49481,0.100708,
-2.50092,0.105286,
-2.49939,0.0930786,
-2.50854,0.0946045,
-2.51312,0.0961304,
-2.52075,0.102234,
-2.53143,0.105286,
-2.53143,0.0976563,
-2.54059,0.0946045,
-2.54669,0.0976563,
-2.54974,0.10376,
-2.55585,0.105286,
-2.56653,0.0976563,
-2.56348,0.0961304,
-2.56958,0.100708,
-2.56958,0.10376,
-2.56958,0.100708,
-2.57111,0.0961304,
-2.56958,0.100708,
-2.57416,0.102234,
-2.56958,0.102234,
-2.57111,0.10376,
-2.57416,0.0961304,
-2.57568,0.100708,
-2.57721,0.100708,
-2.58179,0.100708,
-2.58484,0.102234,
-2.58179,0.0946045,
-2.58179,0.100708,
-2.58331,0.0976563,
-2.58179,0.10376,
-2.58026,0.10376,
-2.57568,0.0946045,
-2.57263,0.100708,
-2.565,0.102234,
-2.565,0.102234,
-2.56348,0.102234,
-2.56195,0.0976563,
-2.5589,0.0961304,
-2.5589,0.100708,
-2.5589,0.102234,
-2.5589,0.105286,
-2.56042,0.0961304,
-2.56042,0.0976563,
-2.56348,0.0976563,
-2.56195,0.105286,
-2.565,0.10376,
-2.57111,0.0976563,
-2.56958,0.0976563,
-2.56958,0.0961304,
-2.57111,0.102234,
-2.57263,0.106812,
-2.57263,0.0961304,
-2.56958,0.0961304,
-2.56805,0.0976563,
-2.56805,0.10376,
-2.565,0.100708,
-2.56653,0.0976563,
-2.565,0.0915527,
-2.56195,0.0961304,
-2.565,0.10376,
-2.56805,0.106812,
-2.57111,0.100708,
-2.57111,0.0946045,
-2.57721,0.0961304,
-2.57568,0.10376,
-2.57721,0.108337,
-2.58026,0.0976563,
-2.57721,0.0915527,
-2.58331,0.0976563,
-2.58484,0.100708,
-2.58942,0.108337,
-2.59094,0.102234,
-2.59094,0.0930786,
-2.59094,0.100708,
-2.59247,0.105286,
-2.58942,0.102234,
-2.59094,0.0946045,
-2.59399,0.0915527,
-2.58636,0.0976563,
-2.58942,0.100708,
-2.58942,0.100708,
-2.58942,0.10376,
-2.59247,0.0946045,
-2.58942,0.100708,
-2.58942,0.102234,
-2.58636,0.10376,
-2.59094,0.0976563,
-2.59094,0.0961304,
-2.59399,0.102234,
-2.59705,0.102234,
-2.59705,0.105286,
-2.59857,0.102234,
-2.59705,0.0961304,
-2.6001,0.0976563,
-2.6001,0.10376,
-2.59705,0.102234,
-2.59705,0.102234,
-2.6001,0.0961304,
-2.6001,0.0976563,
-2.6001,0.106812,
-2.59857,0.10376,
-2.60315,0.100708,
-2.60468,0.0961304,
-2.6001,0.0946045,
-2.6001,0.100708,
-2.6001,0.10376,
-2.60162,0.100708,
-2.59705,0.0946045,
-2.59705,0.0946045,
-2.59705,0.102234,
-2.59247,0.102234,
-2.59247,0.102234,
-2.59705,0.0961304,
-2.59552,0.100708,
-2.59552,0.10376,
-2.59552,0.102234,
-2.59705,0.102234,
-2.59705,0.0976563,
-2.6001,0.0976563,
-2.59857,0.102234,
-2.60162,0.106812,
-2.60468,0.10376,
-2.60315,0.0961304,
-2.60162,0.0961304,
-2.60162,0.105286,
-2.59552,0.106812,
-2.59552,0.102234,
-2.59247,0.0976563,
-2.58331,0.100708,
-2.57416,0.10376,
-2.56348,0.105286,
-2.55737,0.100708,
-2.54059,0.0976563,
-2.53601,0.100708,
-2.5238,0.10376,
-2.5177,0.105286,
-2.5116,0.0976563,
-2.50092,0.0976563,
-2.49634,0.100708,
-2.49023,0.100708,
-2.48718,0.106812,
-2.47803,0.100708,
-2.47192,0.0976563,
-2.46124,0.10376,
-2.45667,0.106812,
-2.45056,0.105286,
-2.44598,0.105286,
-2.44293,0.100708,
-2.43835,0.0961304,
-2.4353,0.10376,
-2.43073,0.106812,
-2.4292,0.10376,
-2.43073,0.100708,
-2.4292,0.0976563,
-2.4292,0.10376,
-2.4292,0.102234,
-2.43378,0.102234,
-2.44293,0.0976563,
-2.43988,0.0976563,
-2.43988,0.102234,
-2.44446,0.105286,
-2.45056,0.102234,
-2.45209,0.0961304,
-2.45819,0.102234,
-2.45972,0.100708,
-2.46124,0.10376,
-2.46124,0.100708,
-2.46582,0.0961304,
-2.46735,0.0961304,
-2.4704,0.10376,
-2.4704,0.106812,
-2.47345,0.102234,
-2.47345,0.0961304,
-2.47498,0.0976563,
-2.47803,0.10376,
-2.48413,0.10376,
-2.4826,0.100708,
-2.48413,0.0946045,
-2.4826,0.0961304,
-2.4826,0.10376,
-2.48566,0.10376,
-2.48718,0.105286,
-2.48718,0.0946045,
-2.49176,0.0976563,
-2.49023,0.100708,
-2.49481,0.10376,
-2.49481,0.102234,
-2.49786,0.0946045,
-2.49786,0.100708,
-2.49939,0.10376,
-2.50092,0.105286,
-2.50397,0.102234,
-2.49939,0.0946045,
-2.50092,0.0976563,
-2.50092,0.102234,
-2.50244,0.106812,
-2.50397,0.0976563,
-2.50397,0.0946045,
-2.50702,0.100708,
-2.50549,0.102234,
-2.50397,0.106812,
-2.50854,0.10376,
-2.50854,0.0946045,
-2.50702,0.100708,
-2.50702,0.105286,
-2.5116,0.10376,
-2.5116,0.100708,
-2.50702,0.0946045,
-2.50549,0.100708,
-2.50854,0.105286,
-2.50702,0.106812,
-2.50854,0.102234,
-2.5116,0.100708,
-2.51465,0.0976563,
-2.51312,0.10376,
-2.51312,0.10376,
-2.51312,0.102234,
-2.51465,0.0976563,
-2.50854,0.0976563,
-2.50702,0.106812,
-2.50854,0.106812,
-2.50549,0.102234,
-2.50397,0.0946045,
-2.50244,0.0976563,
-2.49786,0.10376,
-2.49176,0.105286,
-2.49786,0.102234,
-2.49023,0.100708,
-2.49329,0.100708,
-2.49481,0.10376,
-2.49634,0.106812,
-2.49634,0.10376,
-2.49786,0.100708,
-2.49329,0.102234,
-2.49329,0.102234,
-2.49023,0.10376,
-2.48718,0.10376,
-2.48566,0.0961304,
-2.48718,0.102234,
-2.48566,0.100708,
-2.48413,0.108337,
-2.48108,0.102234,
-2.47955,0.0930786,
-2.47803,0.100708,
-2.47498,0.10376,
-2.47345,0.105286,
-2.47345,0.102234,
-2.47345,0.100708,
-2.47192,0.102234,
-2.47345,0.100708,
-2.47192,0.106812,
-2.47345,0.102234,
-2.47498,0.0961304,
-2.47803,0.102234,
-2.47955,0.102234,
-2.47955,0.10376,
-2.48413,0.102234,
-2.4826,0.0976563,
-2.48413,0.102234,
-2.48108,0.102234,
-2.48108,0.10376,
-2.47955,0.100708,
-2.47498,0.0961304,
-2.4704,0.10376,
-2.46582,0.102234,
-2.46277,0.10376,
-2.45819,0.102234,
-2.45667,0.0961304,
-2.45667,0.100708,
-2.45209,0.105286,
-2.44904,0.105286,
-2.44598,0.10376,
-2.4353,0.100708,
-2.43225,0.0976563,
-2.42615,0.100708,
-2.4231,0.100708,
-2.42157,0.102234,
-2.42157,0.0961304,
-2.42767,0.100708,
-2.43378,0.106812,
-2.4353,0.100708,
-2.43683,0.102234,
-2.44598,0.0976563,
-2.44904,0.10376,
-2.45361,0.10376,
-2.45514,0.10376,
-2.45819,0.102234,
-2.45667,0.0976563,
-2.45819,0.10376,
-2.45819,0.105286,
-2.45819,0.105286,
-2.46124,0.105286,
-2.45819,0.0976563,
-2.45819,0.105286,
-2.45209,0.106812,
-2.44904,0.105286,
-2.43988,0.105286,
-2.43683,0.102234,
-2.43225,0.10376,
-2.43073,0.10376,
-2.4231,0.105286,
-2.4231,0.108337,
-2.41394,0.0976563,
-2.40479,0.102234,
-2.39563,0.105286,
-2.38953,0.106812,
-2.37885,0.106812,
-2.36816,0.0976563,
-2.35596,0.10376,
-2.34528,0.10376,
-2.33307,0.105286,
-2.32239,0.106812,
-2.31934,0.0976563,
-2.31018,0.102234,
-2.30255,0.105286,
-2.29645,0.102234,
-2.29187,0.108337,
-2.28577,0.0930786,
-2.28271,0.10376,
-2.27814,0.102234,
-2.27509,0.106812,
-2.27203,0.10376,
-2.27509,0.0976563,
-2.27051,0.102234,
-2.27814,0.102234,
-2.27509,0.102234,
-2.27814,0.102234,
-2.27509,0.0946045,
-2.27814,0.10376,
-2.28119,0.10376,
-2.28271,0.102234,
-2.28577,0.105286,
-2.29187,0.0976563,
-2.2934,0.10376,
-2.29797,0.10376,
-2.29645,0.105286,
-2.30255,0.10376,
-2.30255,0.0976563,
-2.31018,0.10376,
-2.30865,0.10376,
-2.31628,0.10376,
-2.31628,0.102234,
-2.32086,0.0961304,
-2.32697,0.102234,
-2.32849,0.105286,
-2.33154,0.102234,
-2.33459,0.105286,
-2.33612,0.0976563,
-2.34528,0.10376,
-2.34375,0.105286,
-2.34985,0.100708,
-2.35596,0.10376,
-2.35596,0.0961304,
-2.35596,0.100708,
-2.36359,0.10376,
-2.36359,0.100708,
-2.36359,0.100708,
-2.36359,0.0946045,
-2.36511,0.10376,
-2.36511,0.10376,
-2.36664,0.100708,
-2.36816,0.102234,
-2.36664,0.0961304,
-2.36816,0.10376,
-2.37122,0.102234,
-2.36969,0.100708,
-2.36969,0.102234,
-2.37122,0.0961304,
-2.36816,0.102234,
-2.36664,0.105286,
-2.36511,0.105286,
-2.36511,0.10376,
-2.36053,0.0976563,
-2.35748,0.10376,
-2.35748,0.102234,
-2.35291,0.10376,
-2.35291,0.10376,
-2.35291,0.0961304,
-2.34833,0.102234,
-2.34985,0.105286,
-2.3468,0.105286,
-2.34528,0.102234,
-2.34222,0.0976563,
-2.34222,0.102234,
-2.3407,0.105286,
-2.34528,0.102234,
-2.34985,0.0976563,
-2.3468,0.102234,
-2.34528,0.100708,
-2.34375,0.105286,
-2.34222,0.10376,
-2.34528,0.0976563,
-2.3407,0.0976563,
-2.34375,0.102234,
-2.34375,0.105286,
-2.3468,0.100708,
-2.3468,0.102234,
-2.34833,0.0976563,
-2.34985,0.102234,
-2.35291,0.105286,
-2.35138,0.102234,
-2.35596,0.10376,
-2.35901,0.0961304,
-2.35748,0.100708,
-2.36359,0.105286,
-2.36511,0.100708,
-2.37122,0.105286,
-2.37732,0.100708,
-2.37732,0.102234,
-2.38037,0.102234,
-2.37885,0.100708,
-2.3819,0.0976563,
-2.38037,0.102234,
-2.38342,0.10376,
-2.388,0.10376,
-2.39105,0.100708,
-2.39105,0.102234,
-2.39716,0.0976563,
-2.39563,0.100708,
-2.39716,0.10376,
-2.39868,0.0961304,
-2.40173,0.105286,
-2.40021,0.102234,
-2.40173,0.102234,
-2.39868,0.10376,
-2.39563,0.100708,
-2.38953,0.10376,
-2.38342,0.0976563,
-2.38037,0.102234,
-2.37732,0.105286,
-2.37885,0.0976563,
-2.36969,0.105286,
-2.36816,0.0976563,
-2.36816,0.102234,
-2.36206,0.10376,
-2.35748,0.0976563,
-2.35748,0.10376,
-2.35901,0.100708,
-2.35748,0.100708,
-2.35443,0.100708,
-2.35291,0.102234,
-2.35291,0.100708,
-2.35596,0.0976563,
-2.35596,0.10376,
-2.35596,0.100708,
-2.35901,0.10376,
-2.36053,0.102234,
-2.35901,0.0976563,
-2.36053,0.102234,
-2.36206,0.10376,
-2.36511,0.100708,
-2.35901,0.100708,
-2.35443,0.0961304,
-2.35443,0.0976563,
-2.35291,0.102234,
-2.35596,0.102234,
-2.35748,0.100708,
-2.35901,0.0961304,
-2.35901,0.100708,
-2.36053,0.102234,
-2.36664,0.106812,
-2.36816,0.0976563,
-2.37427,0.0976563,
-2.37885,0.105286,
-2.3819,0.10376,
-2.38953,0.102234,
-2.39563,0.100708,
-2.40326,0.0976563,
-2.40936,0.102234,
-2.41547,0.105286,
-2.42004,0.100708,
-2.42462,0.0946045,
-2.4292,0.100708,
-2.43225,0.10376,
-2.43835,0.105286,
-2.43988,0.105286,
-2.44293,0.0976563,
-2.44293,0.0961304,
-2.4353,0.102234,
-2.43378,0.108337,
-2.42767,0.102234,
-2.42157,0.0976563,
-2.41394,0.100708,
-2.40326,0.100708,
-2.40021,0.105286,
-2.39105,0.102234,
-2.38495,0.0961304,
-2.37732,0.100708,
-2.37122,0.10376,
-2.36969,0.10376,
-2.36511,0.100708,
-2.36359,0.100708,
-2.35901,0.10376,
-2.35901,0.102234,
-2.35748,0.10376,
-2.35443,0.102234,
-2.35291,0.0976563,
-2.35138,0.100708,
-2.35291,0.100708,
-2.35291,0.102234,
-2.35291,0.100708,
-2.35443,0.0961304,
-2.34985,0.0961304,
-2.35138,0.102234,
-2.35291,0.10376,
-2.34985,0.100708,
-2.35138,0.0961304,
-2.35138,0.102234,
-2.35291,0.100708,
-2.35596,0.10376,
-2.35443,0.0976563,
-2.35748,0.100708,
-2.36053,0.0976563,
-2.35901,0.100708,
-2.36206,0.105286,
-2.36053,0.100708,
-2.36359,0.100708,
-2.36359,0.0961304,
-2.36511,0.0976563,
-2.36969,0.102234,
-2.37427,0.100708,
-2.37427,0.100708,
-2.37579,0.0976563,
-2.38037,0.100708,
-2.38495,0.102234,
-2.38495,0.100708,
-2.39258,0.100708,
-2.3941,0.0976563,
-2.39716,0.100708,
-2.40021,0.100708,
-2.39716,0.10376,
-2.40021,0.0976563,
-2.39716,0.0961304,
-2.40173,0.100708,
-2.40173,0.105286,
-2.40173,0.100708,
-2.39868,0.0976563,
-2.40173,0.0976563,
-2.40173,0.10376,
-2.40326,0.102234,
-2.39868,0.100708,
-2.40326,0.100708,
-2.40173,0.0976563,
-2.39868,0.100708,
-2.40021,0.10376,
-2.39868,0.100708,
-2.39868,0.102234,
-2.39563,0.100708,
-2.39258,0.10376,
-2.39563,0.10376,
-2.39258,0.106812,
-2.38495,0.0976563,
-2.38342,0.0930786,
-2.38037,0.102234,
-2.3819,0.102234,
-2.37732,0.102234,
-2.37427,0.10376,
-2.36969,0.0976563,
-2.36511,0.105286,
-2.36664,0.10376,
-2.35901,0.105286,
-2.35901,0.10376,
-2.35596,0.0976563,
-2.35291,0.102234,
-2.34985,0.10376,
-2.34528,0.10376,
-2.34222,0.102234,
-2.33612,0.0961304,
-2.33307,0.102234,
-2.33002,0.106812,
-2.33154,0.10376,
-2.32391,0.102234,
-2.32239,0.100708,
-2.31934,0.102234,
-2.31781,0.10376,
-2.31476,0.102234,
-2.31171,0.10376,
-2.31018,0.0961304,
-2.31018,0.102234,
-2.31018,0.102234,
-2.30713,0.10376,
-2.3056,0.10376,
-2.2995,0.0976563,
-2.29645,0.102234,
-2.29492,0.100708,
-2.29187,0.10376,
-2.28577,0.100708,
-2.27966,0.0946045,
-2.28119,0.102234,
-2.27814,0.102234,
-2.27814,0.10376,
-2.27661,0.100708,
-2.28271,0.0930786,
-2.27814,0.102234,
-2.27814,0.102234,
-2.27966,0.100708,
-2.27966,0.102234,
-2.28271,0.100708,
-2.28424,0.100708,
-2.28424,0.10376,
-2.28271,0.105286,
-2.28424,0.0976563,
-2.28424,0.0915527,
-2.28424,0.102234,
-2.28271,0.10376,
-2.28577,0.102234,
-2.28577,0.102234,
-2.28882,0.0961304,
-2.28882,0.10376,
-2.29187,0.10376,
-2.29492,0.10376,
-2.29797,0.102234,
-2.29645,0.0976563,
-2.29797,0.100708,
-2.29492,0.102234,
-2.29797,0.105286,
-2.29797,0.100708,
-2.29797,0.0946045,
-2.29797,0.100708,
-2.30103,0.10376,
-2.2995,0.105286,
-2.30713,0.100708,
-2.30713,0.0961304,
-2.30713,0.102234,
-2.30255,0.102234,
-2.30713,0.10376,
-2.3056,0.102234,
-2.30713,0.0976563,
-2.31171,0.0976563,
-2.31476,0.105286,
-2.31476,0.105286,
-2.31628,0.102234,
-2.31781,0.100708,
-2.31781,0.10376,
-2.32086,0.102234,
-2.31934,0.105286,
-2.31781,0.100708,
-2.32239,0.0961304,
-2.32544,0.100708,
-2.32544,0.102234,
-2.32391,0.105286,
-2.31934,0.102234,
-2.31934,0.0946045,
-2.32239,0.10376,
-2.32391,0.10376,
-2.32239,0.105286,
-2.32391,0.100708,
-2.32391,0.0961304,
-2.32239,0.100708,
-2.32391,0.105286,
-2.32239,0.106812,
-2.32544,0.100708,
-2.32391,0.0976563,
-2.32086,0.102234,
-2.31628,0.102234,
-2.31628,0.102234,
-2.31628,0.102234,
-2.31323,0.0961304,
-2.31323,0.102234,
-2.30865,0.102234,
-2.29645,0.102234,
-2.29034,0.100708,
-2.28424,0.0976563,
-2.27661,0.100708,
-2.27051,0.100708,
-2.26135,0.100708,
-2.25372,0.100708,
-2.24304,0.0961304,
-2.23694,0.102234,
-2.23236,0.10376,
-2.22626,0.102234,
-2.22473,0.102234,
-2.21863,0.0946045,
-2.21405,0.102234,
-2.20795,0.10376,
-2.2049,0.10376,
-2.19727,0.102234,
-2.19269,0.0961304,
-2.19269,0.100708,
-2.19116,0.10376,
-2.19421,0.102234,
-2.19421,0.102234,
-2.19574,0.0946045,
-2.19727,0.100708,
-2.19879,0.102234,
-2.20337,0.10376,
-2.20642,0.102234,
-2.20642,0.0961304,
-2.20947,0.102234,
-2.21252,0.105286,
-2.2171,0.105286,
-2.2171,0.100708,
-2.21863,0.0961304,
-2.22168,0.100708,
-2.22626,0.10376,
-2.22931,0.106812,
-2.23236,0.0976563,
-2.23846,0.0961304,
-2.24304,0.102234,
-2.24762,0.105286,
-2.24915,0.102234,
-2.25067,0.0961304,
-2.25067,0.0961304,
-2.25372,0.105286,
-2.2583,0.102234,
-2.25983,0.111389,
-2.26288,0.0946045,
-2.26593,0.0915527,
-2.27203,0.100708,
-2.27661,0.10376,
-2.27966,0.106812,
-2.27966,0.0946045,
-2.28271,0.0930786,
-2.28424,0.0976563,
-2.29034,0.102234,
-2.29034,0.105286,
-2.2934,0.0961304,
-2.29492,0.0946045,
-2.29492,0.10376,
-2.2934,0.10376,
-2.29034,0.106812,
-2.2934,0.102234,
-2.28882,0.0961304,
-2.2934,0.10376,
-2.29492,0.102234,
-2.2934,0.105286,
-2.2995,0.0976563,
-2.30103,0.0976563,
-2.31323,0.100708,
-2.31323,0.105286,
-2.31628,0.106812,
-2.31781,0.0961304,
-2.31781,0.0946045,
-2.32086,0.102234,
-2.32086,0.10376,
-2.32239,0.10376,
-2.32391,0.0976563,
-2.32697,0.0961304,
-2.32697,0.0961304,
-2.33002,0.10376,
-2.32697,0.106812,
-2.33002,0.100708,
-2.33002,0.0961304,
-2.33307,0.102234,
-2.33307,0.10376,
-2.33459,0.102234,
-2.33612,0.0946045,
-2.33917,0.0976563,
-2.3407,0.0976563,
-2.34528,0.102234,
-2.3468,0.10376,
-2.34528,0.10376,
-2.34375,0.100708,
-2.34833,0.102234,
-2.34985,0.102234,
-2.3468,0.105286,
-2.35138,0.0946045,
-2.35138,0.0961304,
-2.35748,0.102234,
-2.36359,0.10376,
-2.36816,0.105286,
-2.36969,0.0976563,
-2.37579,0.0961304,
-2.38037,0.100708,
-2.3819,0.102234,
-2.38495,0.10376,
-2.388,0.100708,
-2.38495,0.0961304,
-2.38495,0.0976563,
-2.38495,0.105286,
-2.38495,0.100708,
-2.38647,0.0961304,
-2.38647,0.0946045,
-2.38953,0.0976563,
-2.39105,0.102234,
-2.3941,0.102234,
-2.3941,0.0961304,
-2.39716,0.0961304,
-2.39563,0.100708,
-2.40021,0.10376,
-2.40021,0.100708,
-2.40173,0.0976563,
-2.40173,0.0976563,
-2.40021,0.102234,
-2.39868,0.105286,
-2.39716,0.100708,
-2.40021,0.0930786,
-2.39716,0.0976563,
-2.39868,0.100708,
-2.40479,0.10376,
-2.40326,0.105286,
-2.40936,0.0946045,
-2.40936,0.0961304,
-2.41241,0.100708,
-2.41241,0.10376,
-2.41089,0.102234,
-2.41089,0.0961304,
-2.41089,0.0946045,
-2.40631,0.105286,
-2.41089,0.102234,
-2.41241,0.105286,
-2.41241,0.0961304,
-2.41394,0.0976563,
-2.40936,0.105286,
-2.41241,0.105286,
-2.41089,0.105286,
-2.41547,0.0961304,
-2.41394,0.0976563,
-2.41241,0.10376,
-2.41241,0.105286,
-2.41241,0.105286,
-2.41241,0.0976563,
-2.41241,0.0946045,
-2.41241,0.105286,
-2.41241,0.10376,
-2.40479,0.105286,
-2.40631,0.0961304,
-2.40479,0.0946045,
-2.39868,0.100708,
-2.40173,0.10376,
-2.40021,0.10376,
-2.40021,0.0961304,
-2.40021,0.0915527,
-2.39868,0.0976563,
-2.40173,0.10376,
-2.40021,0.105286,
-2.39868,0.10376,
-2.40021,0.0961304,
-2.39258,0.100708,
-2.39105,0.100708,
-2.38953,0.105286,
-2.38342,0.0976563,
-2.37732,0.0961304,
-2.37427,0.100708,
-2.36359,0.105286,
-2.36053,0.10376,
-2.35443,0.0961304,
-2.34222,0.0930786,
-2.33002,0.100708,
-2.31934,0.102234,
-2.31018,0.102234,
-2.29645,0.100708,
-2.28577,0.0946045,
-2.27661,0.0976563,
-2.2644,0.105286,
-2.25525,0.100708,
-2.25067,0.0930786,
-2.24304,0.0946045,
-2.23236,0.10376,
-2.22778,0.102234,
-2.22473,0.10376,
-2.21863,0.0961304,
-2.21405,0.0946045,
-2.20795,0.100708,
-2.2049,0.105286,
-2.19879,0.10376,
-2.19269,0.0946045,
-2.19116,0.0961304,
-2.18658,0.105286,
-2.18506,0.10376,
-2.18048,0.10376,
-2.18506,0.0946045,
-2.18048,0.0930786,
-2.18048,0.0976563,
-2.17743,0.106812,
-2.17743,0.10376,
-2.17896,0.0946045,
-2.17896,0.0915527,
-2.18048,0.100708,
-2.18048,0.105286,
-2.18201,0.102234,
-2.18353,0.0976563,
-2.18353,0.0961304,
-2.18353,0.0961304,
-2.17896,0.10376,
-2.18048,0.102234,
-2.18048,0.0961304,
-2.17896,0.0961304,
-2.17896,0.0976563,
-2.18048,0.106812,
-2.18048,0.0976563,
-2.17896,0.100708,
-2.17896,0.0946045,
-2.18201,0.102234,
-2.18201,0.108337,
-2.18048,0.102234,
-2.18353,0.0961304,
-2.18658,0.0976563,
-2.18811,0.100708,
-2.18658,0.105286,
-2.18811,0.106812,
-2.19116,0.0946045,
-2.19269,0.0946045,
-2.19574,0.100708,
-2.19727,0.106812,
-2.19879,0.10376,
-2.20337,0.0961304,
-2.20337,0.0961304,
-2.20642,0.100708,
-2.20642,0.10376,
-2.20795,0.105286,
-2.20947,0.0976563,
-2.21405,0.0976563,
-2.21558,0.100708,
-2.21863,0.106812,
-2.22015,0.102234,
-2.22321,0.0946045,
-2.22473,0.100708,
-2.22473,0.100708,
-2.22778,0.105286,
-2.22931,0.10376,
-2.22473,0.0961304,
-2.22168,0.0930786,
-2.22015,0.10376,
-2.22168,0.105286,
-2.21558,0.105286,
-2.21405,0.0930786,
-2.211,0.0961304,
-2.21252,0.0976563,
-2.20947,0.102234,
-2.20947,0.100708,
-2.20795,0.0976563,
-2.2049,0.0946045,
-2.20337,0.102234,
-2.20184,0.10376,
-2.19879,0.10376,
-2.20337,0.100708,
-2.19879,0.0946045,
-2.20184,0.100708,
-2.19879,0.105286,
-2.19574,0.100708,
-2.19574,0.0930786,
-2.19879,0.0961304,
-2.19727,0.0976563,
-2.19574,0.10376,
-2.19574,0.105286,
-2.19574,0.0976563,
-2.19574,0.0946045,
-2.19421,0.100708,
-2.19421,0.10376,
-2.19727,0.10376,
-2.19574,0.0946045,
-2.19879,0.0946045,
-2.20642,0.102234,
-2.20947,0.105286,
-2.211,0.10376,
-2.211,0.0976563,
-2.21405,0.0946045,
-2.21252,0.102234,
-2.21405,0.10376,
-2.21405,0.106812,
-2.21558,0.102234,
-2.2171,0.0961304,
-2.22168,0.0976563,
-2.22473,0.105286,
-2.22473,0.0976563,
-2.22931,0.0961304,
-2.23083,0.0946045,
-2.23389,0.102234,
-2.23999,0.10376,
-2.24304,0.10376,
-2.24304,0.0976563,
-2.24762,0.0961304,
-2.25372,0.0976563,
-2.2522,0.108337,
-2.25372,0.102234,
-2.25372,0.102234,
-2.25525,0.0946045,
-2.25525,0.100708,
-2.2583,0.106812,
-2.25677,0.100708,
-2.25677,0.0976563,
-2.26135,0.0976563,
-2.25983,0.0976563,
-2.26593,0.106812,
-2.27051,0.10376,
-2.27203,0.0961304,
-2.27661,0.0961304,
-2.27356,0.100708,
-2.27661,0.108337,
-2.27814,0.106812,
-2.28424,0.102234,
-2.28729,0.0976563,
-2.29187,0.102234,
-2.29645,0.108337,
-2.30103,0.10376,
-2.30713,0.100708,
-2.30865,0.0930786,
-2.31171,0.102234,
-2.31171,0.102234,
-2.31323,0.10376,
-2.31781,0.100708,
-2.31476,0.0961304,
-2.32086,0.100708,
-2.32086,0.105286,
-2.32391,0.10376,
-2.32544,0.102234,
-2.32697,0.0961304,
-2.33002,0.0976563,
-2.33612,0.10376,
-2.33459,0.0976563,
-2.34375,0.0976563,
-2.3468,0.0946045,
-2.34375,0.102234,
-2.3468,0.105286,
-2.3468,0.102234,
-2.35138,0.0976563,
-2.34985,0.0976563,
-2.35596,0.100708,
-2.35596,0.105286,
-2.35901,0.10376,
-2.35901,0.102234,
-2.35748,0.0946045,
-2.35443,0.102234,
-2.35443,0.105286,
-2.34833,0.100708,
-2.3407,0.100708,
-2.33459,0.0976563,
-2.33002,0.102234,
-2.32391,0.10376,
-2.31628,0.10376,
-2.30865,0.0976563,
-2.29797,0.0946045,
-2.28577,0.0976563,
-2.27661,0.102234,
-2.26746,0.10376,
-2.25983,0.100708,
-2.24915,0.0976563,
-2.23694,0.102234,
-2.22778,0.10376,
-2.21863,0.10376,
-2.21252,0.0976563,
-2.20184,0.0946045,
-2.19421,0.10376,
-2.18811,0.102234,
-2.18811,0.105286,
-2.18506,0.0961304,
-2.18201,0.0946045,
-2.17896,0.0961304,
-2.17896,0.102234,
-2.17743,0.100708,
-2.1759,0.0946045,
-2.17438,0.0961304,
-2.17438,0.100708,
-2.17133,0.105286,
-2.17285,0.0976563,
-2.1759,0.0961304,
-2.17438,0.0976563,
-2.17285,0.105286,
-2.17285,0.10376,
-2.1759,0.10376,
-2.17896,0.100708,
-2.1759,0.100708,
-2.17743,0.100708,
-2.18048,0.0976563,
-2.18506,0.105286,
-2.18506,0.0961304,
-2.18048,0.0976563,
-2.18811,0.10376,
-2.18658,0.10376,
-2.18658,0.10376,
-2.18658,0.0961304,
-2.18811,0.0961304,
-2.18964,0.102234,
-2.18964,0.105286,
-2.19269,0.10376,
-2.19116,0.0976563,
-2.18811,0.0946045,
-2.19116,0.102234,
-2.18811,0.105286,
-2.19269,0.105286,
-2.19421,0.100708,
-2.19269,0.0946045,
-2.19269,0.0976563,
-2.19269,0.102234,
-2.19727,0.105286,
-2.19879,0.10376,
-2.20337,0.0961304,
-2.20642,0.10376,
-2.20947,0.106812,
-2.20947,0.106812,
-2.21252,0.102234,
-2.211,0.0946045,
-2.20947,0.102234,
-2.211,0.106812,
-2.21252,0.102234,
-2.21252,0.100708,
-2.211,0.0976563,
-2.20947,0.100708,
-2.20337,0.106812,
-2.19727,0.10376,
-2.19574,0.0976563,
-2.19421,0.0946045,
-2.19116,0.100708,
-2.18964,0.108337,
-2.18506,0.10376,
-2.18506,0.100708,
-2.18353,0.0946045,
-2.18048,0.102234,
-2.17743,0.108337,
-2.17743,0.10376,
-2.1759,0.0961304,
-2.1698,0.0976563,
-2.17133,0.102234,
-2.17133,0.109863,
-2.17285,0.102234,
-2.17133,0.0976563,
-2.17438,0.0930786,
-2.17285,0.105286,
-2.17285,0.109863,
-2.17438,0.105286,
-2.17743,0.0976563,
-2.17896,0.0946045,
-2.17896,0.100708,
-2.18201,0.108337,
-2.18353,0.102234,
-2.17896,0.0961304,
-2.17743,0.0976563,
-2.17896,0.106812,
-2.18353,0.108337,
-2.18201,0.105286,
-2.18811,0.102234,
-2.18964,0.0946045,
-2.19269,0.105286,
-2.19421,0.106812,
-2.19727,0.102234,
-2.20337,0.100708,
-2.21252,0.0961304,
-2.21405,0.10376,
-2.21252,0.109863,
-2.21405,0.0976563,
-2.21863,0.0976563,
-2.22015,0.0976563,
-2.22168,0.10376,
-2.22015,0.10376,
-2.22321,0.102234,
-2.22626,0.0976563,
-2.22778,0.100708,
-2.23083,0.10376,
-2.23083,0.102234,
-2.22626,0.10376,
-2.22626,0.100708,
-2.22626,0.0976563,
-2.22168,0.105286,
-2.22321,0.0976563,
-2.22473,0.106812,
-2.22168,0.102234,
-2.22168,0.0976563,
-2.2171,0.105286,
-2.21558,0.102234,
-2.21252,0.106812,
-2.21252,0.0976563,
-2.211,0.0961304,
