-2.11792,0.0549316,
-2.12402,0.0564575,
-2.1225,0.0686646,
-2.12555,0.062561,
-2.12708,0.0579834,
-2.12708,0.0564575,
-2.12555,0.0579834,
-2.12402,0.0640869,
-2.12555,0.062561,
-2.1286,0.0579834,
-2.12708,0.0549316,
-2.13013,0.0579834,
-2.12402,0.0640869,
-2.12708,0.0610352,
-2.12402,0.0595093,
-2.12555,0.0518799,
-2.1286,0.0549316,
-2.1286,0.0610352,
-2.1286,0.0610352,
-2.12708,0.0610352,
-2.1286,0.0564575,
-2.1286,0.0564575,
-2.12708,0.062561,
-2.1286,0.0595093,
-2.1286,0.0595093,
-2.13013,0.0534058,
-2.13013,0.0534058,
-2.1286,0.0671387,
-2.1286,0.0610352,
-2.13013,0.0564575,
-2.13318,0.0549316,
-2.13013,0.0534058,
-2.1347,0.0610352,
-2.13318,0.0564575,
-2.1347,0.0579834,
-2.13623,0.0549316,
-2.13928,0.0534058,
-2.13776,0.0595093,
-2.13928,0.0595093,
-2.14081,0.0595093,
-2.14233,0.0534058,
-2.14386,0.0564575,
-2.14691,0.0610352,
-2.14691,0.0610352,
-2.14691,0.0579834,
-2.14386,0.0534058,
-2.13776,0.0564575,
-2.14233,0.0640869,
-2.13776,0.0595093,
-2.13928,0.0579834,
-2.13623,0.0549316,
-2.13623,0.0549316,
-2.13928,0.0610352,
-2.14539,0.0610352,
-2.14233,0.0610352,
-2.14539,0.0564575,
-2.14386,0.0549316,
-2.14844,0.0610352,
-2.14691,0.0579834,
-2.14844,0.0579834,
-2.15149,0.0564575,
-2.15454,0.0564575,
-2.15607,0.0640869,
-2.15302,0.0579834,
-2.15912,0.0610352,
-2.16217,0.0549316,
-2.1637,0.0595093,
-2.1637,0.062561,
-2.1698,0.0595093,
-2.17285,0.0595093,
-2.17438,0.0549316,
-2.18048,0.0579834,
-2.18353,0.0610352,
-2.18811,0.0610352,
-2.18811,0.0595093,
-2.18964,0.0564575,
-2.19116,0.0564575,
-2.19421,0.0610352,
-2.19879,0.062561,
-2.19727,0.0579834,
-2.19727,0.0549316,
-2.19879,0.0564575,
-2.19574,0.0610352,
-2.19727,0.0579834,
-2.19574,0.0595093,
-2.19727,0.0564575,
-2.20184,0.0564575,
-2.20184,0.0610352,
-2.19879,0.0579834,
-2.20184,0.0595093,
-2.20184,0.0564575,
-2.20642,0.0534058,
-2.19879,0.062561,
-2.20184,0.0610352,
-2.19879,0.0610352,
-2.20337,0.0549316,
-2.19879,0.0610352,
-2.20337,0.0610352,
-2.20184,0.0579834,
-2.20184,0.062561,
-2.20795,0.0549316,
-2.21558,0.0579834,
-2.21405,0.0640869,
-2.21558,0.0564575,
-2.22015,0.0595093,
-2.22168,0.0549316,
-2.22473,0.0564575,
-2.22321,0.062561,
-2.22473,0.0595093,
-2.22473,0.0579834,
-2.22626,0.0579834,
-2.22778,0.0564575,
-2.22778,0.062561,
-2.22931,0.062561,
-2.22778,0.0579834,
-2.22931,0.0518799,
-2.22931,0.0564575,
-2.23236,0.0610352,
-2.22778,0.0640869,
-2.22168,0.0595093,
-2.22015,0.0549316,
-2.21252,0.0549316,
-2.20795,0.062561,
-2.19421,0.0595093,
-2.19269,0.062561,
-2.17896,0.0518799,
-2.17133,0.0564575,
-2.1637,0.0671387,
-2.14996,0.0595093,
-2.13623,0.0595093,
-2.12402,0.0549316,
-2.11029,0.0579834,
-2.10114,0.0640869,
-2.0813,0.062561,
-2.07062,0.0595093,
-2.05688,0.0549316,
-2.0462,0.0579834,
-2.03247,0.062561,
-2.02179,0.0610352,
-2.01111,0.062561,
-2.00195,0.0549316,
-1.98822,0.0549316,
-1.98212,0.0640869,
-1.97754,0.0640869,
-1.97144,0.0640869,
-1.96533,0.0564575,
-1.9577,0.0579834,
-1.95465,0.062561,
-1.94244,0.062561,
-1.93634,0.0579834,
-1.93024,0.0564575,
-1.91956,0.0595093,
-1.91803,0.0671387,
-1.9104,0.062561,
-1.90735,0.0610352,
-1.89972,0.0579834,
-1.89819,0.0595093,
-1.88904,0.062561,
-1.88599,0.0610352,
-1.87836,0.0564575,
-1.87225,0.0579834,
-1.87073,0.0595093,
-1.86462,0.0610352,
-1.85394,0.0671387,
-1.85394,0.062561,
-1.84631,0.0534058,
-1.84631,0.0579834,
-1.84021,0.0610352,
-1.84326,0.0610352,
-1.83716,0.0595093,
-1.83411,0.0564575,
-1.83258,0.0549316,
-1.83563,0.062561,
-1.83258,0.0671387,
-1.83563,0.062561,
-1.83105,0.0564575,
-1.82953,0.0564575,
-1.83105,0.062561,
-1.82953,0.0640869,
-1.83258,0.0579834,
-1.83716,0.0534058,
-1.83716,0.0595093,
-1.83563,0.0595093,
-1.83563,0.0671387,
-1.83411,0.0610352,
-1.83411,0.0564575,
-1.83868,0.0549316,
-1.83411,0.0595093,
-1.83868,0.0640869,
-1.83868,0.0610352,
-1.84174,0.0549316,
-1.84631,0.0595093,
-1.84784,0.0640869,
-1.84937,0.0640869,
-1.85242,0.0610352,
-1.85394,0.0579834,
-1.85547,0.0595093,
-1.86157,0.0640869,
-1.8631,0.0640869,
-1.86157,0.0610352,
-1.86157,0.0564575,
-1.86462,0.0595093,
-1.86005,0.0610352,
-1.86005,0.062561,
-1.85394,0.0610352,
-1.85547,0.0595093,
-1.85089,0.0564575,
-1.84784,0.0610352,
-1.84326,0.062561,
-1.84326,0.0595093,
-1.84174,0.0549316,
-1.84174,0.0579834,
-1.84174,0.0595093,
-1.84021,0.0671387,
-1.83105,0.0610352,
-1.83258,0.0549316,
-1.83258,0.0579834,
-1.83563,0.0610352,
-1.83411,0.0640869,
-1.84174,0.0579834,
-1.83868,0.0549316,
-1.84174,0.0579834,
-1.84174,0.0610352,
-1.84479,0.0640869,
-1.84784,0.0610352,
-1.85089,0.0564575,
-1.85394,0.0579834,
-1.85852,0.0610352,
-1.8631,0.0671387,
-1.8631,0.062561,
-1.86615,0.0579834,
-1.86768,0.0549316,
-1.87531,0.0610352,
-1.87531,0.0671387,
-1.87836,0.0595093,
-1.88141,0.0564575,
-1.88293,0.0579834,
-1.89056,0.0610352,
-1.89667,0.0640869,
-1.90125,0.0610352,
-1.89972,0.0564575,
-1.90125,0.0534058,
-1.90125,0.0610352,
-1.90582,0.0640869,
-1.90582,0.0640869,
-1.90735,0.0549316,
-1.90887,0.0564575,
-1.90887,0.0610352,
-1.9104,0.0640869,
-1.90887,0.0610352,
-1.90582,0.0549316,
-1.90735,0.0595093,
-1.91193,0.0595093,
-1.91345,0.0640869,
-1.91956,0.0610352,
-1.91803,0.0534058,
-1.92413,0.0564575,
-1.92871,0.0595093,
-1.93176,0.0610352,
-1.93176,0.062561,
-1.93329,0.0518799,
-1.93939,0.0564575,
-1.93787,0.0595093,
-1.94092,0.062561,
-1.95007,0.0579834,
-1.95313,0.0579834,
-1.9577,0.0564575,
-1.96228,0.0595093,
-1.96228,0.0610352,
-1.96838,0.0610352,
-1.97601,0.0564575,
-1.98212,0.0564575,
-1.98364,0.0564575,
-1.98669,0.062561,
-1.99127,0.0579834,
-1.9928,0.0564575,
-2.00653,0.0579834,
-2.01416,0.0579834,
-2.01569,0.0595093,
-2.02179,0.0595093,
-2.02637,0.0549316,
-2.03552,0.0350952,
-2.04315,0.0595093,
-2.0462,0.0610352,
-2.04926,0.0595093,
-2.05078,0.0564575,
-2.05536,0.0549316,
-2.06757,0.0579834,
-2.06909,0.062561,
-2.07214,0.0610352,
-2.07672,0.0564575,
-2.07672,0.0549316,
-2.08282,0.0595093,
-2.08435,0.0595093,
-2.09198,0.0595093,
-2.09961,0.0549316,
-2.10266,0.0549316,
-2.10266,0.0564575,
-2.10114,0.0640869,
-2.10266,0.0595093,
-2.10724,0.0534058,
-2.10724,0.0564575,
-2.11029,0.0595093,
-2.11029,0.0595093,
-2.10724,0.0579834,
-2.10266,0.0579834,
-2.09656,0.0595093,
-2.0874,0.0610352,
-2.07977,0.062561,
-2.0752,0.0610352,
-2.06909,0.0534058,
-2.05536,0.0534058,
-2.04773,0.062561,
-2.0401,0.0610352,
-2.02789,0.0610352,
-2.01721,0.0564575,
-2.00958,0.0549316,
-2.00348,0.0610352,
-1.99127,0.0610352,
-1.97906,0.0610352,
-1.96838,0.0564575,
-1.96381,0.0549316,
-1.9516,0.062561,
-1.94244,0.062561,
-1.93481,0.0579834,
-1.92413,0.0549316,
-1.91498,0.0518799,
-1.9104,0.062561,
-1.90582,0.0640869,
-1.90125,0.0595093,
-1.89514,0.0534058,
-1.89362,0.0534058,
-1.88599,0.0595093,
-1.88293,0.0671387,
-1.87836,0.0610352,
-1.87531,0.0579834,
-1.8692,0.0518799,
-1.8692,0.0640869,
-1.86462,0.0671387,
-1.86462,0.0610352,
-1.86157,0.0564575,
-1.86005,0.0549316,
-1.85852,0.0610352,
-1.85394,0.0640869,
-1.84937,0.0610352,
-1.84631,0.0564575,
-1.84174,0.0534058,
-1.84174,0.062561,
-1.83563,0.0640869,
-1.83716,0.0579834,
-1.83411,0.0549316,
-1.83258,0.0534058,
-1.83258,0.0595093,
-1.82953,0.0610352,
-1.82495,0.0595093,
-1.82495,0.0534058,
-1.8219,0.050354,
-1.82037,0.0579834,
-1.82037,0.062561,
-1.8158,0.0579834,
-1.81732,0.0549316,
-1.82037,0.0534058,
-1.8219,0.0595093,
-1.82037,0.0640869,
-1.81885,0.0595093,
-1.82037,0.0549316,
-1.81732,0.0518799,
-1.81732,0.062561,
-1.81885,0.062561,
-1.8219,0.0579834,
-1.82037,0.0549316,
-1.8219,0.050354,
-1.82037,0.0671387,
-1.81885,0.062561,
-1.82495,0.0595093,
-1.82495,0.0564575,
-1.828,0.0549316,
-1.82648,0.062561,
-1.83105,0.0610352,
-1.83105,0.0595093,
-1.83411,0.0549316,
-1.83563,0.0534058,
-1.83258,0.0610352,
-1.83563,0.0640869,
-1.83563,0.0595093,
-1.83716,0.0564575,
-1.83868,0.0579834,
-1.83716,0.0595093,
-1.83563,0.0640869,
-1.83105,0.0595093,
-1.82953,0.0549316,
-1.82648,0.0518799,
-1.82648,0.0595093,
-1.82953,0.0640869,
-1.828,0.062561,
-1.83105,0.0579834,
-1.83411,0.050354,
-1.83258,0.0595093,
-1.83716,0.0671387,
-1.83868,0.0595093,
-1.83411,0.0549316,
-1.83563,0.0549316,
-1.83716,0.0579834,
-1.83411,0.0686646,
-1.83105,0.0610352,
-1.82495,0.0579834,
-1.82495,0.0549316,
-1.8219,0.062561,
-1.82037,0.0671387,
-1.82037,0.0595093,
-1.82037,0.0564575,
-1.82037,0.0549316,
-1.81885,0.0595093,
-1.8219,0.0671387,
-1.8219,0.062561,
-1.82495,0.0564575,
-1.81885,0.0564575,
-1.82037,0.0595093,
-1.81732,0.0671387,
-1.82037,0.0610352,
-1.8219,0.0579834,
-1.82495,0.0534058,
-1.82037,0.0595093,
-1.82037,0.0671387,
-1.82037,0.0610352,
-1.82648,0.0549316,
-1.82648,0.0564575,
-1.828,0.0579834,
-1.828,0.062561,
-1.83105,0.0579834,
-1.83258,0.0564575,
-1.83716,0.0564575,
-1.83716,0.0610352,
-1.84174,0.062561,
-1.84326,0.0595093,
-1.85089,0.0579834,
-1.84479,0.0549316,
-1.85089,0.0579834,
-1.85242,0.0640869,
-1.84937,0.0610352,
-1.85394,0.0564575,
-1.85547,0.0595093,
-1.85547,0.0610352,
-1.85242,0.0671387,
-1.85394,0.0595093,
-1.85547,0.0564575,
-1.86005,0.0549316,
-1.86157,0.0564575,
-1.86005,0.0610352,
-1.86157,0.0579834,
-1.86157,0.0564575,
-1.86462,0.0549316,
-1.8692,0.0579834,
-1.87378,0.0671387,
-1.87378,0.0579834,
-1.87531,0.0564575,
-1.87836,0.0579834,
-1.88293,0.0595093,
-1.88751,0.062561,
-1.88293,0.0595093,
-1.88904,0.0579834,
-1.89667,0.0549316,
-1.90277,0.0610352,
-1.90735,0.0640869,
-1.9104,0.0610352,
-1.91193,0.0564575,
-1.9165,0.0564575,
-1.91956,0.0579834,
-1.92413,0.0640869,
-1.92719,0.0595093,
-1.93329,0.0549316,
-1.93329,0.0579834,
-1.93787,0.062561,
-1.9455,0.0640869,
-1.9516,0.062561,
-1.95465,0.0549316,
-1.96381,0.0564575,
-1.96991,0.0671387,
-1.97296,0.0686646,
-1.98364,0.062561,
-1.98517,0.0579834,
-1.99127,0.0579834,
-1.99585,0.062561,
-2.00195,0.0640869,
-2.00195,0.062561,
-2.00806,0.0579834,
-2.00806,0.0564575,
-2.00195,0.0640869,
-1.99585,0.0640869,
-1.9928,0.0595093,
-1.98517,0.0564575,
-1.97754,0.0579834,
-1.96686,0.0640869,
-1.95618,0.0671387,
-1.95007,0.062561,
-1.93329,0.0579834,
-1.92261,0.0564575,
-1.90887,0.0640869,
-1.90277,0.0640869,
-1.88599,0.0610352,
-1.87225,0.0579834,
-1.86005,0.0534058,
-1.85242,0.0671387,
-1.83868,0.062561,
-1.828,0.062561,
-1.8158,0.0549316,
-1.80511,0.0549316,
-1.79749,0.0671387,
-1.7868,0.0640869,
-1.7746,0.0595093,
-1.76544,0.0549316,
-1.75781,0.0579834,
-1.74561,0.062561,
-1.7395,0.0671387,
-1.73187,0.0610352,
-1.72424,0.0534058,
-1.71509,0.0564575,
-1.71051,0.0671387,
-1.70288,0.0640869,
-1.69983,0.062561,
-1.68915,0.0534058,
-1.68762,0.0534058,
-1.67542,0.0671387,
-1.67389,0.0640869,
-1.67084,0.062561,
-1.66626,0.0549316,
-1.66473,0.0549316,
-1.66321,0.0640869,
-1.6571,0.0640869,
-1.64948,0.0610352,
-1.64642,0.0534058,
-1.64337,0.0549316,
-1.64337,0.0701904,
-1.64032,0.0640869,
-1.63879,0.0610352,
-1.63727,0.0534058,
-1.63574,0.0518799,
-1.63269,0.062561,
-1.63116,0.0640869,
-1.63116,0.0595093,
-1.62659,0.0518799,
-1.62659,0.0518799,
-1.62964,0.062561,
-1.62964,0.0640869,
-1.62506,0.0610352,
-1.62811,0.0564575,
-1.62506,0.0534058,
-1.62201,0.0686646,
-1.62506,0.062561,
-1.62048,0.0610352,
-1.61896,0.0549316,
-1.61743,0.0518799,
-1.61743,0.0640869,
-1.61438,0.0610352,
-1.61896,0.0595093,
-1.61896,0.0534058,
-1.61896,0.050354,
-1.62048,0.0671387,
-1.62201,0.062561,
-1.62506,0.0595093,
-1.62506,0.0564575,
-1.62659,0.0534058,
-1.62811,0.0640869,
-1.62354,0.0671387,
-1.62506,0.062561,
-1.62659,0.0564575,
-1.62811,0.0549316,
-1.62964,0.0686646,
-1.63269,0.0671387,
-1.62964,0.0595093,
-1.62964,0.0534058,
-1.62659,0.0534058,
-1.62506,0.0671387,
-1.62811,0.062561,
-1.62964,0.0610352,
-1.62811,0.0549316,
-1.63269,0.0564575,
-1.63269,0.0671387,
-1.63269,0.0640869,
-1.63727,0.062561,
-1.63727,0.0549316,
-1.63727,0.0534058,
-1.63574,0.062561,
-1.63574,0.0686646,
-1.63574,0.0610352,
-1.64032,0.0549316,
-1.6449,0.0549316,
-1.64795,0.062561,
-1.64642,0.0671387,
-1.64948,0.0640869,
-1.65405,0.0564575,
-1.65863,0.0564575,
-1.66321,0.062561,
-1.66779,0.0686646,
-1.67084,0.0595093,
-1.67236,0.0579834,
-1.67694,0.0518799,
-1.68152,0.0595093,
-1.67847,0.0686646,
-1.68152,0.0610352,
-1.6861,0.0579834,
-1.68762,0.0564575,
-1.6861,0.0564575,
-1.6861,0.0671387,
-1.6922,0.0579834,
-1.68762,0.0549316,
-1.6922,0.0564575,
-1.6922,0.0610352,
-1.6922,0.062561,
-1.6983,0.0595093,
-1.70135,0.0549316,
-1.70593,0.050354,
-1.70746,0.0595093,
-1.70593,0.0671387,
-1.71356,0.0610352,
-1.71356,0.0564575,
-1.71509,0.0549316,
-1.72424,0.062561,
-1.73035,0.062561,
-1.73492,0.0640869,
-1.74103,0.0564575,
-1.74866,0.0534058,
-1.75476,0.062561,
-1.75934,0.0686646,
-1.76392,0.0610352,
-1.76392,0.0518799,
-1.76544,0.0549316,
-1.76697,0.0610352,
-1.76849,0.0671387,
-1.7746,0.0610352,
-1.77765,0.0549316,
-1.77917,0.0518799,
-1.78528,0.0671387,
-1.79291,0.0640869,
-1.79291,0.0595093,
-1.80054,0.0595093,
-1.80359,0.0549316,
-1.80817,0.0610352,
-1.81122,0.0671387,
-1.81427,0.0595093,
-1.82495,0.0549316,
-1.83105,0.0564575,
-1.83868,0.0610352,
-1.84021,0.0671387,
-1.84631,0.0610352,
-1.84937,0.0564575,
-1.85089,0.0549316,
-1.86157,0.0686646,
-1.8631,0.0640869,
-1.86462,0.062561,
-1.87225,0.0579834,
-1.87531,0.0549316,
-1.87531,0.0701904,
-1.87988,0.0671387,
-1.88599,0.062561,
-1.88599,0.0564575,
-1.89362,0.0579834,
-1.89514,0.0686646,
-1.89667,0.0671387,
-1.89819,0.062561,
-1.90582,0.0564575,
-1.90735,0.0564575,
-1.9104,0.0686646,
-1.91956,0.0671387,
-1.91956,0.0671387,
-1.92261,0.0579834,
-1.92871,0.0564575,
-1.93634,0.0732422,
-1.93787,0.0686646,
-1.93939,0.062561,
-1.94244,0.0595093,
-1.9455,0.0564575,
-1.94702,0.0701904,
-1.95007,0.0671387,
-1.9516,0.0595093,
-1.95465,0.0549316,
-1.95923,0.0534058,
-1.95923,0.0686646,
-1.96228,0.0671387,
-1.95923,0.0610352,
-1.95923,0.0549316,
-1.95465,0.0564575,
-1.95465,0.0701904,
-1.94702,0.0640869,
-1.94397,0.0610352,
-1.93634,0.0564575,
-1.92413,0.0518799,
-1.9165,0.0671387,
-1.90277,0.0640869,
-1.89362,0.0595093,
-1.88293,0.0564575,
-1.87531,0.0564575,
-1.8631,0.0701904,
-1.85394,0.0686646,
-1.84326,0.0579834,
-1.83105,0.0534058,
-1.8219,0.0534058,
-1.80817,0.0701904,
-1.80054,0.0610352,
-1.79291,0.0595093,
-1.78528,0.0534058,
-1.77612,0.0534058,
-1.77155,0.0640869,
-1.76697,0.0671387,
-1.76392,0.0595093,
-1.75781,0.050354,
-1.75171,0.0564575,
-1.74713,0.0701904,
-1.74103,0.062561,
-1.74255,0.0595093,
-1.73645,0.0518799,
-1.7334,0.0518799,
-1.73035,0.0686646,
-1.72577,0.0640869,
-1.72424,0.0610352,
-1.72272,0.0549316,
-1.71814,0.0549316,
-1.71661,0.0686646,
-1.71356,0.062561,
-1.71204,0.0595093,
-1.71509,0.0564575,
-1.71814,0.050354,
-1.71356,0.0701904,
-1.71509,0.062561,
-1.71356,0.0595093,
-1.71204,0.0534058,
-1.71051,0.0579834,
-1.71051,0.0671387,
-1.70746,0.062561,
-1.70441,0.062561,
-1.70288,0.0534058,
-1.69983,0.0549316,
-1.70135,0.062561,
-1.70288,0.0640869,
-1.70288,0.0610352,
-1.70135,0.0549316,
-1.70593,0.0534058,
-1.70288,0.062561,
-1.70898,0.0671387,
-1.71051,0.0595093,
-1.71509,0.0518799,
-1.71661,0.0564575,
-1.71814,0.0701904,
-1.72119,0.0640869,
-1.72424,0.062561,
-1.72424,0.0534058,
-1.73187,0.0579834,
-1.73492,0.062561,
-1.74103,0.0686646,
-1.74103,0.0595093,
-1.74561,0.0534058,
-1.74561,0.0564575,
-1.75018,0.062561,
-1.75018,0.0640869,
-1.75171,0.0610352,
-1.75171,0.0534058,
-1.75476,0.0579834,
-1.75629,0.0610352,
-1.75018,0.0640869,
-1.75781,0.0610352,
-1.75476,0.0549316,
-1.75476,0.0579834,
-1.75171,0.0640869,
-1.75018,0.062561,
-1.75171,0.0595093,
-1.74866,0.0518799,
-1.75018,0.0564575,
-1.75018,0.0610352,
-1.74866,0.062561,
-1.74866,0.0610352,
-1.74408,0.050354,
-1.74408,0.0549316,
-1.74561,0.0640869,
-1.74255,0.0671387,
-1.74255,0.0579834,
-1.74255,0.0518799,
-1.74103,0.0518799,
-1.73798,0.0610352,
-1.73645,0.062561,
-1.73645,0.0579834,
-1.7334,0.0534058,
-1.7334,0.0564575,
-1.73492,0.062561,
-1.73187,0.0640869,
-1.73035,0.062561,
-1.73187,0.0534058,
-1.7334,0.0549316,
-1.7334,0.0610352,
-1.73492,0.0640869,
-1.73798,0.0610352,
-1.74103,0.0518799,
-1.74408,0.0595093,
-1.74561,0.0610352,
-1.74713,0.0686646,
-1.74713,0.0610352,
-1.75018,0.0549316,
-1.75018,0.0579834,
-1.75629,0.062561,
-1.75629,0.0671387,
-1.75476,0.0595093,
-1.75629,0.0534058,
-1.75476,0.0579834,
-1.75476,0.0671387,
-1.75629,0.0671387,
-1.75781,0.0595093,
-1.75934,0.0518799,
-1.76544,0.0595093,
-1.77002,0.062561,
-1.77612,0.0686646,
-1.77612,0.062561,
-1.77765,0.0534058,
-1.7868,0.0549316,
-1.79138,0.0686646,
-1.79901,0.0671387,
-1.80206,0.062561,
-1.80664,0.0518799,
-1.80969,0.0564575,
-1.81732,0.0610352,
-1.8158,0.0671387,
-1.81885,0.0595093,
-1.82495,0.0549316,
-1.82495,0.0579834,
-1.82953,0.0671387,
-1.83258,0.0640869,
-1.83716,0.0579834,
-1.84174,0.0518799,
-1.85089,0.0564575,
-1.86005,0.0671387,
-1.86462,0.0686646,
-1.87073,0.0595093,
-1.87836,0.0564575,
-1.87683,0.0579834,
-1.88599,0.0701904,
-1.88751,0.0640869,
-1.89362,0.0595093,
-1.89514,0.0549316,
-1.89667,0.0564575,
-1.90125,0.0671387,
-1.90582,0.0671387,
-1.91193,0.062561,
-1.91498,0.0518799,
-1.91956,0.0579834,
-1.92871,0.0671387,
-1.93176,0.0671387,
-1.93787,0.0640869,
-1.94092,0.0534058,
-1.94702,0.0549316,
-1.94855,0.0640869,
-1.95313,0.0686646,
-1.9577,0.0595093,
-1.96838,0.0488281,
-1.96991,0.0564575,
-1.97754,0.0701904,
-1.98212,0.0701904,
-1.98975,0.0610352,
-2.00043,0.0534058,
-2.005,0.0579834,
-2.00806,0.062561,
-2.01263,0.0671387,
-2.01721,0.0640869,
-2.01721,0.050354,
-2.01721,0.0564575,
-2.02179,0.0686646,
-2.02484,0.0686646,
-2.02484,0.062561,
-2.03247,0.050354,
-2.03705,0.0549316,
-2.0401,0.0640869,
-2.04468,0.0701904,
-2.04315,0.0610352,
-2.04468,0.0534058,
-2.04926,0.0564575,
-2.0462,0.0640869,
-2.0462,0.0686646,
-2.04315,0.0610352,
-2.0401,0.0473022,
-2.03247,0.0564575,
-2.03094,0.0701904,
-2.02637,0.0686646,
-2.01721,0.0610352,
-2.01721,0.0518799,
-2.01416,0.0564575,
-2.00958,0.0671387,
-2.00653,0.0671387,
-2.00348,0.0610352,
-1.99585,0.0518799,
-1.98822,0.0534058,
-1.98212,0.0640869,
-1.97754,0.0686646,
-1.97144,0.0610352,
-1.96838,0.0518799,
-1.96228,0.0549316,
-1.95618,0.0701904,
-1.95007,0.062561,
-1.9455,0.0610352,
-1.9455,0.0518799,
-1.94092,0.0579834,
-1.94092,0.0686646,
-1.93634,0.0671387,
-1.93481,0.062561,
-1.93176,0.0534058,
-1.93024,0.0564575,
-1.93481,0.0640869,
-1.93481,0.0671387,
-1.93634,0.0595093,
-1.93634,0.0549316,
-1.93787,0.0564575,
-1.93329,0.0671387,
-1.93329,0.062561,
-1.93634,0.0640869,
-1.94092,0.0534058,
-1.94092,0.0610352,
-1.94397,0.0640869,
-1.94092,0.0701904,
-1.94397,0.0610352,
-1.94397,0.0518799,
-1.9455,0.0564575,
-1.94855,0.0640869,
-1.95007,0.0671387,
-1.95007,0.0610352,
-1.95465,0.0549316,
-1.9577,0.0610352,
-1.95618,0.0610352,
-1.95618,0.0640869,
-1.96381,0.0595093,
-1.96838,0.0518799,
-1.96838,0.0549316,
-1.97449,0.0610352,
-1.97754,0.0671387,
-1.97906,0.0610352,
-1.98059,0.0518799,
-1.98517,0.0564575,
-1.98822,0.0610352,
-1.99127,0.0671387,
-1.99738,0.062561,
-2.00043,0.0488281,
-2.00348,0.0564575,
-2.00958,0.0595093,
-2.01416,0.0701904,
-2.01874,0.062561,
-2.02332,0.0488281,
-2.02484,0.0595093,
-2.03247,0.062561,
-2.034,0.062561,
-2.03705,0.0579834,
-2.04315,0.0488281,
-2.0462,0.0564575,
-2.04773,0.0671387,
-2.05078,0.0671387,
-2.05536,0.0595093,
-2.05688,0.050354,
-2.05231,0.0579834,
-2.05688,0.062561,
-2.05536,0.062561,
-2.05078,0.0595093,
-2.05078,0.0518799,
-2.05383,0.0549316,
-2.05078,0.0640869,
-2.04926,0.0640869,
-2.05078,0.062561,
-2.05688,0.050354,
-2.05841,0.0518799,
-2.06146,0.0640869,
-2.06757,0.0671387,
-2.06909,0.0610352,
-2.06757,0.0534058,
-2.06909,0.0579834,
-2.06909,0.0640869,
-2.07214,0.0701904,
-2.07367,0.0579834,
-2.07214,0.0518799,
-2.07214,0.0579834,
-2.0752,0.0671387,
-2.07977,0.0686646,
-2.0813,0.0579834,
-2.08282,0.0488281,
-2.08435,0.0579834,
-2.09198,0.0610352,
-2.09045,0.0671387,
-2.09351,0.0595093,
-2.09198,0.0488281,
-2.09961,0.0579834,
-2.10266,0.0686646,
-2.10114,0.062561,
-2.10571,0.062561,
-2.10724,0.050354,
-2.10876,0.0564575,
-2.11487,0.062561,
-2.11945,0.0671387,
-2.12402,0.0610352,
-2.1286,0.0488281,
-2.13318,0.0549316,
-2.14233,0.062561,
-2.14539,0.0671387,
-2.15454,0.0610352,
-2.15759,0.0534058,
-2.1637,0.0579834,
-2.16827,0.0610352,
-2.16827,0.0671387,
-2.17438,0.0595093,
-2.1759,0.050354,
-2.18048,0.0564575,
-2.18506,0.0640869,
-2.18964,0.0671387,
-2.19269,0.0595093,
-2.19421,0.0534058,
-2.19727,0.0595093,
-2.20337,0.0671387,
-2.20642,0.0640869,
-2.20947,0.0610352,
-2.20947,0.050354,
-2.21558,0.0564575,
-2.21405,0.062561,
-2.22168,0.0640869,
-2.22015,0.0595093,
-2.22473,0.0473022,
-2.22626,0.0564575,
-2.23083,0.062561,
-2.23236,0.0640869,
-2.23694,0.0579834,
-2.23694,0.0473022,
-2.24304,0.0564575,
-2.24609,0.0579834,
-2.2522,0.0640869,
-2.25525,0.0564575,
-2.25983,0.050354,
-2.26593,0.0595093,
-2.26746,0.062561,
-2.27051,0.0671387,
-2.27661,0.0610352,
-2.27661,0.0518799,
-2.28271,0.0549316,
-2.27814,0.0610352,
-2.28424,0.062561,
-2.28729,0.0595093,
-2.29187,0.050354,
-2.29645,0.0564575,
-2.30255,0.0610352,
-2.3056,0.062561,
-2.31171,0.0595093,
-2.31628,0.050354,
-2.31934,0.0549316,
-2.32849,0.0595093,
-2.33459,0.062561,
-2.3407,0.0595093,
-2.3468,0.0518799,
-2.35138,0.0564575,
-2.35291,0.0610352,
-2.35901,0.062561,
-2.36359,0.0610352,
-2.36969,0.050354,
-2.37732,0.0564575,
-2.38037,0.0610352,
-2.388,0.0640869,
-2.39868,0.0610352,
-2.39868,0.0518799,
-2.40479,0.0610352,
-2.40936,0.062561,
-2.41089,0.0640869,
-2.41852,0.0595093,
-2.41699,0.050354,
-2.42157,0.0595093,
-2.42004,0.062561,
-2.42157,0.0640869,
-2.41699,0.0595093,
-2.41241,0.050354,
-2.40631,0.0564575,
-2.40173,0.062561,
-2.39563,0.0610352,
-2.3941,0.0595093,
-2.38495,0.0518799,
-2.37885,0.0595093,
-2.36359,0.0595093,
-2.36053,0.0640869,
-2.35138,0.0595093,
-2.3468,0.0534058,
-2.33307,0.0564575,
-2.32544,0.062561,
-2.31781,0.0671387,
-2.31171,0.0595093,
-2.30255,0.050354,
-2.2995,0.0579834,
-2.29034,0.062561,
-2.28882,0.0640869,
-2.28119,0.062561,
-2.27356,0.0518799,
-2.27203,0.0579834,
-2.2644,0.0579834,
-2.2583,0.0640869,
-2.25525,0.0595093,
-2.25525,0.050354,
-2.25372,0.0595093,
-2.25067,0.0595093,
-2.24915,0.0686646,
-2.24915,0.0579834,
-2.24457,0.050354,
-2.23999,0.0579834,
-2.24457,0.0610352,
-2.23999,0.0671387,
-2.23999,0.0595093,
-2.23846,0.0518799,
-2.23846,0.0610352,
-2.23236,0.0640869,
-2.23846,0.062561,
-2.24152,0.0610352,
-2.24152,0.050354,
-2.23694,0.0595093,
-2.23389,0.0686646,
-2.23999,0.062561,
-2.23846,0.0595093,
-2.23694,0.0473022,
-2.23999,0.0579834,
-2.23694,0.062561,
-2.23846,0.0640869,
-2.23846,0.0579834,
-2.23999,0.0488281,
-2.23846,0.0564575,
-2.23846,0.0640869,
-2.23846,0.0671387,
-2.23999,0.0579834,
-2.24609,0.0457764,
-2.24915,0.0564575,
-2.2522,0.062561,
-2.25525,0.0640869,
-2.2583,0.062561,
-2.25983,0.050354,
-2.26135,0.0564575,
-2.26593,0.062561,
-2.26593,0.0610352,
-2.27509,0.0595093,
-2.28119,0.050354,
-2.28119,0.0579834,
-2.28424,0.0595093,
-2.28577,0.062561,
-2.28577,0.0610352,
-2.28577,0.050354,
-2.29034,0.0579834,
-2.28729,0.0686646,
-2.28729,0.0671387,
-2.29034,0.0595093,
-2.29187,0.0488281,
-2.2934,0.0610352,
-2.29034,0.0610352,
-2.29492,0.0671387,
-2.2995,0.0595093,
-2.2934,0.0488281,
-2.29187,0.0610352,
-2.29492,0.062561,
-2.29187,0.0671387,
-2.28577,0.0610352,
-2.28577,0.050354,
-2.28577,0.0579834,
-2.29034,0.0686646,
-2.28882,0.0671387,
-2.29187,0.0610352,
-2.29492,0.0518799,
-2.29645,0.0595093,
-2.2995,0.0640869,
-2.30713,0.0671387,
-2.31018,0.0595093,
-2.31323,0.0534058,
-2.31628,0.0595093,
-2.31628,0.0595093,
-2.31934,0.0671387,
-2.32239,0.062561,
-2.31934,0.050354,
-2.32239,0.0610352,
-2.32391,0.0640869,
-2.32544,0.062561,
-2.32239,0.0579834,
-2.32544,0.0473022,
-2.33307,0.0579834,
-2.34222,0.0671387,
-2.34375,0.0701904,
-2.35138,0.0610352,
-2.35291,0.0518799,
-2.36053,0.0579834,
-2.36664,0.0610352,
-2.37427,0.0686646,
-2.37885,0.0595093,
-2.38342,0.0518799,
-2.39258,0.0610352,
-2.39105,0.0610352,
-2.39563,0.0671387,
-2.40021,0.0610352,
-2.40631,0.0488281,
-2.41241,0.0564575,
-2.41547,0.0610352,
-2.42004,0.0640869,
-2.42615,0.0610352,
-2.4292,0.0534058,
-2.43683,0.0579834,
-2.43835,0.0610352,
-2.44751,0.0640869,
-2.45361,0.0610352,
-2.45514,0.0488281,
-2.45819,0.0579834,
-2.46124,0.0610352,
-2.46277,0.0640869,
-2.46887,0.0579834,
-2.47192,0.050354,
-2.47803,0.0579834,
-2.4826,0.0595093,
-2.4826,0.062561,
-2.49023,0.062561,
-2.49176,0.0534058,
-2.49786,0.0579834,
-2.50244,0.0610352,
-2.50702,0.062561,
-2.51465,0.0579834,
-2.51465,0.0518799,
-2.5177,0.0595093,
-2.51923,0.0610352,
-2.51923,0.0671387,
-2.5177,0.0610352,
-2.51465,0.0534058,
-2.51465,0.0564575,
-2.5116,0.062561,
-2.5116,0.0640869,
-2.51312,0.0610352,
-2.51312,0.0534058,
-2.51617,0.0564575,
-2.52075,0.0595093,
-2.51923,0.0671387,
-2.52075,0.0610352,
-2.51923,0.0534058,
-2.5238,0.0564575,
-2.52228,0.0610352,
-2.52533,0.0640869,
-2.52686,0.0610352,
-2.52533,0.0564575,
-2.52991,0.0595093,
-2.53296,0.0671387,
-2.53906,0.0640869,
-2.54211,0.0595093,
-2.54822,0.0564575,
-2.54822,0.0595093,
-2.55432,0.0640869,
-2.55585,0.0640869,
-2.56042,0.0595093,
-2.56348,0.0564575,
-2.57416,0.0595093,
-2.57416,0.0671387,
-2.58026,0.0640869,
-2.58484,0.062561,
-2.58636,0.0595093,
-2.59247,0.0579834,
-2.59552,0.062561,
-2.59857,0.0671387,
-2.6001,0.0579834,
-2.6062,0.0549316,
-2.60925,0.0595093,
-2.61078,0.0610352,
-2.61993,0.0640869,
-2.62451,0.0595093,
-2.62756,0.0579834,
-2.62756,0.0595093,
-2.62909,0.0671387,
-2.62909,0.0610352,
-2.63062,0.0595093,
-2.62451,0.0534058,
-2.62299,0.0564575,
-2.61688,0.0640869,
-2.60925,0.062561,
-2.60162,0.0595093,
-2.59399,0.0549316,
-2.58484,0.0549316,
-2.57416,0.0640869,
-2.56348,0.0640869,
-2.55127,0.0610352,
-2.53906,0.0549316,
-2.5238,0.0579834,
-2.5177,0.0610352,
-2.50092,0.0610352,
-2.49481,0.0595093,
-2.48108,0.0549316,
-2.47345,0.0549316,
-2.46887,0.0640869,
-2.46124,0.0640869,
-2.45667,0.0595093,
-2.45056,0.0579834,
-2.44751,0.0579834,
-2.44293,0.0640869,
-2.43835,0.0610352,
-2.43988,0.0595093,
-2.43988,0.0549316,
-2.43835,0.0534058,
-2.43683,0.0671387,
-2.43988,0.062561,
-2.44293,0.0595093,
-2.44446,0.0564575,
-2.44598,0.0579834,
-2.45056,0.062561,
-2.45514,0.062561,
-2.45667,0.0564575,
-2.45972,0.0549316,
-2.45972,0.0579834,
-2.45819,0.062561,
-2.45972,0.0686646,
-2.46124,0.0579834,
-2.46429,0.0579834,
-2.46429,0.0579834,
-2.46429,0.0640869,
-2.46582,0.062561,
-2.46277,0.0564575,
-2.46277,0.0518799,
-2.46429,0.0579834,
-2.46582,0.062561,
-2.46277,0.062561,
-2.46277,0.0579834,
-2.46124,0.0534058,
-2.46124,0.0564575,
-2.45972,0.0640869,
-2.45972,0.062561,
-2.45972,0.0579834,
-2.46124,0.0549316,
-2.45972,0.0595093,
-2.45667,0.0640869,
-2.45667,0.0610352,
-2.45667,0.0610352,
-2.45819,0.0549316,
-2.45972,0.0579834,
-2.45972,0.062561,
-2.46124,0.0610352,
-2.46429,0.0595093,
-2.46124,0.0518799,
-2.46582,0.0564575,
-2.46735,0.0640869,
-2.46887,0.062561,
-2.46735,0.0579834,
-2.47345,0.0549316,
-2.47498,0.0595093,
-2.47955,0.0671387,
-2.47498,0.0640869,
-2.47803,0.0579834,
-2.47955,0.0534058,
-2.47803,0.0595093,
-2.48108,0.0610352,
-2.4826,0.0640869,
-2.4826,0.0579834,
-2.48108,0.0579834,
-2.48108,0.0595093,
-2.47955,0.0640869,
-2.47498,0.0640869,
-2.47955,0.0595093,
-2.47498,0.0564575,
-2.47192,0.0610352,
-2.47192,0.0640869,
-2.47498,0.0640869,
-2.47803,0.0579834,
-2.47498,0.0549316,
-2.47498,0.0534058,
-2.48108,0.062561,
-2.47955,0.0610352,
-2.47803,0.0595093,
-2.47498,0.0564575,
-2.47955,0.0564575,
-2.47803,0.0671387,
-2.47803,0.062561,
-2.48413,0.0579834,
-2.48566,0.0518799,
-2.49176,0.0564575,
-2.49023,0.062561,
-2.49481,0.0610352,
-2.49329,0.0610352,
-2.49329,0.0518799,
-2.49023,0.0564575,
-2.49176,0.0610352,
-2.49023,0.062561,
-2.49329,0.0595093,
-2.49481,0.0518799,
-2.49634,0.0579834,
-2.49786,0.0579834,
-2.50244,0.0595093,
-2.49786,0.0564575,
-2.50244,0.0488281,
-2.50549,0.0564575,
-2.51312,0.0610352,
-2.51312,0.0671387,
-2.51617,0.0595093,
-2.52228,0.0518799,
-2.52075,0.0579834,
-2.5177,0.062561,
-2.51617,0.0640869,
-2.51923,0.0595093,
-2.5238,0.0518799,
-2.52533,0.0595093,
-2.52533,0.062561,
-2.52991,0.0671387,
-2.52991,0.0610352,
-2.52991,0.0534058,
-2.52991,0.0564575,
-2.52838,0.062561,
-2.53143,0.0671387,
-2.53296,0.0610352,
-2.53143,0.0534058,
-2.53143,0.0595093,
-2.53448,0.0671387,
-2.53448,0.0671387,
-2.53601,0.0610352,
-2.53448,0.0518799,
-2.53448,0.0610352,
-2.53601,0.0610352,
-2.53754,0.0671387,
-2.54364,0.062561,
-2.54974,0.0518799,
-2.54974,0.0579834,
-2.55127,0.0640869,
-2.55585,0.0671387,
-2.5589,0.0579834,
-2.56042,0.0518799,
-2.56805,0.0579834,
-2.57111,0.0640869,
-2.56653,0.0701904,
-2.57416,0.0595093,
-2.57416,0.0518799,
-2.58026,0.0579834,
-2.58026,0.0640869,
-2.58636,0.0640869,
-2.58789,0.0595093,
-2.59247,0.0534058,
-2.59247,0.0579834,
-2.59399,0.062561,
-2.59552,0.0671387,
-2.59552,0.0595093,
-2.59552,0.0534058,
-2.60468,0.0610352,
-2.61078,0.0610352,
-2.61078,0.0686646,
-2.6123,0.0595093,
-2.61078,0.0549316,
-2.60773,0.0579834,
-2.6062,0.0595093,
-2.60468,0.0671387,
-2.60315,0.0595093,
-2.6062,0.0518799,
-2.6062,0.0579834,
-2.61688,0.0610352,
-2.62299,0.0640869,
-2.62299,0.0610352,
-2.62451,0.0534058,
-2.62604,0.0549316,
-2.62909,0.0671387,
-2.62756,0.0640869,
-2.62909,0.0595093,
-2.63214,0.0518799,
-2.63062,0.0579834,
-2.63519,0.0610352,
-2.63672,0.062561,
-2.63672,0.062561,
-2.63672,0.0518799,
-2.63977,0.0564575,
-2.63519,0.0595093,
-2.63367,0.062561,
-2.63367,0.0579834,
-2.63367,0.0518799,
-2.63062,0.0579834,
-2.62756,0.0595093,
-2.62299,0.0640869,
-2.6123,0.062561,
-2.60162,0.0518799,
-2.59094,0.0564575,
-2.58484,0.062561,
-2.57263,0.0686646,
-2.56348,0.0595093,
-2.55585,0.050354,
-2.54974,0.0610352,
-2.54822,0.0595093,
-2.54211,0.0610352,
-2.54059,0.0595093,
-2.53448,0.0518799,
-2.53296,0.0595093,
-2.52686,0.0610352,
-2.5238,0.062561,
-2.52228,0.0579834,
-2.5177,0.050354,
-2.51465,0.0564575,
-2.5177,0.062561,
-2.51465,0.062561,
-2.5177,0.0579834,
-2.51617,0.0518799,
-2.51617,0.0579834,
-2.5177,0.062561,
-2.51617,0.0671387,
-2.52075,0.0595093,
-2.52228,0.0518799,
-2.52228,0.0579834,
-2.52228,0.0640869,
-2.52533,0.0640869,
-2.52686,0.0595093,
-2.52533,0.0473022,
-2.5238,0.0564575,
-2.52533,0.0610352,
-2.52533,0.062561,
-2.52228,0.0595093,
-2.52075,0.0518799,
-2.52228,0.0595093,
-2.52228,0.0610352,
-2.52228,0.062561,
-2.52533,0.0595093,
-2.52533,0.050354,
-2.52991,0.0549316,
-2.53143,0.062561,
-2.53296,0.062561,
-2.54211,0.0579834,
-2.54211,0.0473022,
-2.54974,0.0595093,
-2.55127,0.0610352,
-2.5528,0.0610352,
-2.5589,0.0595093,
-2.56195,0.0534058,
-2.56348,0.0564575,
-2.57111,0.0610352,
-2.56958,0.062561,
-2.57721,0.0579834,
-2.57721,0.0518799,
-2.58179,0.0579834,
-2.58789,0.0640869,
-2.58789,0.0640869,
-2.59094,0.0564575,
-2.59094,0.0488281,
-2.59094,0.0564575,
-2.58789,0.062561,
-2.58942,0.062561,
-2.59399,0.0579834,
-2.59399,0.050354,
-2.59552,0.0579834,
-2.59857,0.0610352,
-2.6001,0.062561,
-2.59705,0.0564575,
-2.59705,0.0473022,
-2.59552,0.0549316,
-2.59399,0.0610352,
-2.59399,0.0640869,
-2.59857,0.0564575,
-2.59705,0.050354,
-2.59857,0.0549316,
-2.60162,0.0595093,
-2.60315,0.0640869,
-2.60315,0.0564575,
-2.6001,0.0534058,
-2.6001,0.0549316,
-2.59705,0.0640869,
-2.59705,0.0610352,
-2.59552,0.0564575,
-2.59247,0.050354,
-2.59247,0.0564575,
-2.59247,0.0579834,
-2.59399,0.0595093,
-2.59094,0.0579834,
-2.58789,0.0473022,
-2.58942,0.0579834,
-2.58789,0.062561,
-2.59094,0.0595093,
-2.59247,0.0549316,
-2.59705,0.050354,
-2.59857,0.0595093,
-2.60315,0.0640869,
-2.60315,0.0671387,
-2.60925,0.0564575,
-2.61078,0.050354,
-2.62146,0.0579834,
-2.62146,0.062561,
-2.62299,0.062561,
-2.62909,0.0610352,
-2.63214,0.0518799,
-2.63519,0.0579834,
-2.63824,0.0595093,
-2.6413,0.0671387,
-2.63824,0.0579834,
-2.6413,0.0473022,
-2.64587,0.0595093,
-2.65045,0.0610352,
-2.65656,0.062561,
-2.66266,0.0564575,
-2.66113,0.0488281,
-2.66724,0.0579834,
-2.66876,0.0610352,
-2.67029,0.062561,
-2.67487,0.0595093,
-2.68402,0.0488281,
-2.68097,0.0610352,
-2.69012,0.062561,
-2.6947,0.0610352,
-2.69775,0.0595093,
-2.70386,0.050354,
-2.70996,0.0579834,
-2.70996,0.0595093,
-2.71912,0.0671387,
-2.72217,0.0549316,
-2.72369,0.0457764,
-2.72827,0.0595093,
-2.73132,0.062561,
-2.73895,0.0671387,
-2.742,0.0579834,
-2.74658,0.0473022,
-2.75574,0.0579834,
-2.76337,0.062561,
-2.771,0.062561,
-2.77557,0.0549316,
-2.78015,0.0442505,
-2.78931,0.0579834,
-2.79388,0.062561,
-2.79236,0.0610352,
-2.79694,0.0549316,
-2.79846,0.0488281,
-2.80151,0.0564575,
-2.80304,0.0610352,
-2.80457,0.062561,
-2.80762,0.0564575,
-2.81067,0.0427246,
-2.81219,0.0564575,
-2.81372,0.0640869,
-2.81525,0.062561,
-2.82288,0.0564575,
-2.8244,0.0457764,
-2.83051,0.0595093,
-2.83203,0.0610352,
-2.83661,0.0640869,
-2.84424,0.0579834,
-2.84882,0.0473022,
-2.86102,0.0564575,
-2.8656,0.0640869,
-2.8717,0.062561,
-2.87781,0.0564575,
-2.88086,0.0457764,
-2.88544,0.0579834,
-2.89154,0.0640869,
-2.89459,0.0610352,
-2.89764,0.0564575,
-2.90527,0.0473022,
-2.91138,0.0579834,
-2.91901,0.0595093,
-2.92511,0.062561,
-2.93427,0.0579834,
-2.94037,0.0488281,
-2.94647,0.0549316,
-2.9541,0.0610352,
-2.95868,0.0640869,
-2.96173,0.0595093,
-2.96326,0.0473022,
-2.96173,0.0579834,
-2.96326,0.0579834,
-2.95563,0.0640869,
-2.9541,0.0549316,
-2.948,0.0442505,
-2.94037,0.0579834,
-2.93884,0.0640869,
-2.93121,0.0671387,
-2.92053,0.0579834,
-2.91138,0.0488281,
-2.89459,0.0579834,
-2.87933,0.0671387,
-2.8717,0.062561,
-2.86102,0.0579834,
-2.84729,0.0488281,
-2.83966,0.0534058,
-2.83051,0.0579834,
-2.81677,0.0640869,
-2.81219,0.0579834,
-2.80151,0.0473022,
-2.79083,0.0579834,
-2.78778,0.0595093,
-2.78168,0.0640869,
-2.7771,0.0579834,
-2.7771,0.0488281,
-2.771,0.0595093,
-2.76947,0.0640869,
-2.76794,0.0640869,
-2.76489,0.0564575,
-2.76184,0.0518799,
-2.76184,0.0595093,
-2.76031,0.062561,
-2.76031,0.062561,
-2.75879,0.0564575,
-2.75726,0.0473022,
-2.75726,0.0595093,
-2.75269,0.0579834,
-2.74963,0.0686646,
-2.75269,0.0579834,
-2.75269,0.0473022,
-2.74811,0.0595093,
-2.75269,0.0610352,
-2.74811,0.0640869,
-2.74963,0.0610352,
-2.75574,0.0473022,
-2.74963,0.0610352,
-2.75269,0.062561,
-2.74963,0.0610352,
-2.74963,0.0564575,
-2.75269,0.0488281,
-2.74811,0.0579834,
-2.74811,0.0595093,
-2.75421,0.0671387,
-2.75269,0.0579834,
-2.74963,0.0488281,
-2.74963,0.0595093,
-2.75269,0.0640869,
-2.74811,0.0671387,
-2.74811,0.0579834,
-2.74811,0.0473022,
-2.74506,0.0595093,
-2.742,0.0595093,
-2.74048,0.062561,
-2.74048,0.0564575,
-2.742,0.0549316,
-2.74353,0.0579834,
-2.74506,0.0640869,
-2.74506,0.0640869,
-2.74658,0.0579834,
-2.74506,0.050354,
-2.74506,0.0549316,
-2.74353,0.062561,
-2.742,0.0640869,
-2.74048,0.0564575,
-2.742,0.0534058,
-2.73895,0.0564575,
-2.73438,0.0640869,
-2.73285,0.062561,
-2.73438,0.0564575,
-2.72675,0.0518799,
-2.72217,0.0549316,
-2.71759,0.062561,
-2.71454,0.0640869,
-2.71149,0.0595093,
-2.70844,0.0549316,
-2.70691,0.0610352,
-2.70081,0.0610352,
-2.70233,0.0640869,
-2.70233,0.0579834,
-2.69623,0.0518799,
-2.6947,0.0595093,
-2.6947,0.0595093,
-2.69318,0.0640869,
-2.69165,0.0579834,
-2.6886,0.0534058,
-2.68707,0.0579834,
-2.68555,0.0610352,
-2.67792,0.0671387,
-2.67792,0.0564575,
-2.67639,0.0579834,
-2.67487,0.0610352,
-2.67181,0.062561,
-2.67029,0.0671387,
-2.67029,0.0549316,
-2.66571,0.0564575,
-2.66571,0.0610352,
-2.66724,0.062561,
-2.66876,0.062561,
-2.67181,0.0564575,
-2.67181,0.0564575,
-2.67334,0.0610352,
-2.67181,0.0595093,
-2.67334,0.0671387,
-2.67639,0.0579834,
-2.67792,0.0549316,
-2.67334,0.0595093,
-2.67181,0.062561,
-2.67181,0.062561,
-2.67639,0.0549316,
-2.67181,0.0549316,
-2.67487,0.0564575,
-2.67792,0.0610352,
-2.67944,0.062561,
-2.68097,0.0564575,
-2.67639,0.0595093,
-2.67487,0.0579834,
-2.67334,0.0686646,
-2.67792,0.0640869,
-2.67639,0.0564575,
-2.67487,0.0549316,
-2.67181,0.0579834,
-2.67487,0.062561,
-2.67181,0.0671387,
-2.67181,0.0564575,
-2.67487,0.0564575,
-2.67334,0.0564575,
-2.67181,0.0595093,
-2.67181,0.062561,
-2.67487,0.0534058,
-2.67334,0.0534058,
-2.67487,0.0549316,
-2.67487,0.0610352,
-2.67334,0.062561,
-2.67334,0.0549316,
-2.67487,0.0564575,
-2.67639,0.0564575,
-2.67639,0.0610352,
-2.67792,0.0610352,
-2.68402,0.0534058,
-2.68555,0.0564575,
-2.6886,0.0549316,
-2.69165,0.0640869,
-2.6947,0.0610352,
-2.69775,0.0579834,
-2.70233,0.0564575,
-2.70691,0.0549316,
-2.70996,0.0595093,
-2.71301,0.0610352,
-2.71759,0.0549316,
-2.71912,0.0564575,
-2.71912,0.0518799,
-2.72217,0.0640869,
-2.72217,0.0640869,
-2.72369,0.0549316,
-2.72064,0.0579834,
-2.71912,0.0534058,
-2.71454,0.0610352,
-2.71454,0.062561,
-2.71912,0.0579834,
-2.71759,0.0595093,
-2.71912,0.0534058,
-2.72675,0.062561,
-2.72675,0.0640869,
-2.72827,0.0518799,
-2.72827,0.0595093,
-2.73285,0.0579834,
-2.73438,0.062561,
-2.73743,0.0671387,
-2.742,0.0579834,
-2.74048,0.0564575,
-2.74353,0.0549316,
-2.74506,0.0610352,
-2.74963,0.062561,
-2.75269,0.0564575,
-2.74963,0.0579834,
-2.75269,0.0534058,
-2.75421,0.0640869,
-2.74963,0.062561,
-2.74658,0.0564575,
-2.74658,0.0579834,
-2.74353,0.0579834,
-2.74048,0.0595093,
-2.74048,0.0610352,
-2.73743,0.0564575,
-2.7298,0.0534058,
-2.71912,0.0549316,
-2.71301,0.0595093,
-2.70538,0.0640869,
-2.70538,0.0549316,
-2.70081,0.0579834,
-2.69165,0.0579834,
-2.69012,0.0640869,
-2.68097,0.062561,
-2.67487,0.0549316,
-2.66571,0.0564575,
-2.65656,0.0564575,
-2.6535,0.0610352,
-2.6413,0.0640869,
-2.63977,0.0549316,
-2.62756,0.0564575,
-2.61993,0.0564575,
-2.60468,0.0640869,
-2.59857,0.0640869,
-2.59552,0.0534058,
-2.59094,0.0564575,
-2.58484,0.0534058,
-2.57721,0.0610352,
-2.57568,0.0671387,
-2.57263,0.0534058,
-2.57416,0.0564575,
-2.57263,0.0534058,
-2.56805,0.0610352,
-2.56958,0.0640869,
-2.56805,0.0518799,
-2.56653,0.0518799,
-2.56653,0.0549316,
-2.56653,0.0610352,
-2.565,0.0595093,
-2.56348,0.0534058,
-2.5589,0.0549316,
-2.5589,0.0534058,
-2.56195,0.0595093,
-2.56042,0.0640869,
-2.56042,0.0549316,
-2.5589,0.0549316,
-2.56042,0.0549316,
-2.55585,0.0610352,
-2.55432,0.0640869,
-2.55127,0.0564575,
-2.54822,0.0518799,
-2.54364,0.0549316,
-2.54211,0.0610352,
-2.53906,0.0610352,
-2.53601,0.0518799,
-2.53601,0.0579834,
-2.53448,0.0549316,
-2.53448,0.0595093,
-2.53448,0.0610352,
-2.53296,0.0518799,
-2.53296,0.0534058,
-2.53448,0.0564575,
-2.53601,0.0595093,
-2.53754,0.0640869,
-2.53906,0.0534058,
-2.54059,0.0534058,
-2.53906,0.0518799,
-2.54211,0.062561,
-2.54974,0.062561,
-2.5528,0.0534058,
-2.5528,0.0518799,
-2.56042,0.0579834,
-2.56042,0.0610352,
-2.565,0.0640869,
-2.56805,0.0534058,
-2.56195,0.050354,
-2.56042,0.0549316,
-2.55585,0.0610352,
-2.55432,0.062561,
-2.55127,0.050354,
-2.54822,0.0534058,
-2.54364,0.0564575,
-2.54822,0.062561,
-2.54669,0.0686646,
-2.54364,0.0518799,
-2.53906,0.0534058,
-2.53601,0.0564575,
-2.53601,0.0595093,
-2.52838,0.062561,
-2.52533,0.0564575,
-2.52533,0.0549316,
-2.51923,0.0549316,
-2.5116,0.062561,
-2.50549,0.0640869,
-2.50092,0.050354,
-2.49939,0.050354,
-2.49939,0.0579834,
-2.49176,0.0640869,
-2.48871,0.062561,
-2.48566,0.0549316,
-2.4826,0.0518799,
-2.47803,0.0564575,
-2.47345,0.0610352,
-2.47192,0.062561,
-2.47192,0.0534058,
-2.47192,0.0488281,
-2.46582,0.0579834,
-2.46735,0.0579834,
-2.4704,0.062561,
-2.47192,0.0534058,
-2.4704,0.0473022,
-2.47192,0.0549316,
-2.47345,0.0610352,
-2.47345,0.0595093,
-2.47955,0.0518799,
-2.47803,0.0518799,
-2.48108,0.0549316,
-2.4826,0.0579834,
-2.48413,0.062561,
-2.49329,0.050354,
-2.49176,0.0488281,
-2.49176,0.0564575,
-2.49329,0.062561,
-2.49786,0.0610352,
-2.49939,0.0534058,
-2.50397,0.0473022,
-2.50244,0.0564575,
-2.50397,0.062561,
-2.5116,0.0610352,
-2.5177,0.0518799,
-2.51923,0.0473022,
-2.51923,0.0534058,
-2.52533,0.0595093,
-2.52533,0.062561,
-2.52686,0.050354,
-2.52838,0.0488281,
-2.53296,0.0549316,
-2.53296,0.0595093,
-2.53906,0.062561,
-2.53906,0.050354,
-2.54364,0.050354,
-2.54364,0.0564575,
-2.54211,0.0610352,
-2.54364,0.0671387,
-2.54669,0.0518799,
-2.54364,0.0518799,
-2.54059,0.0534058,
-2.53448,0.0640869,
-2.52991,0.0671387,
-2.52991,0.0518799,
-2.52838,0.0518799,
-2.52533,0.0534058,
-2.52838,0.0564575,
-2.5238,0.062561,
-2.52228,0.0564575,
-2.51923,0.050354,
-2.51923,0.0579834,
-2.51923,0.0595093,
-2.51617,0.0640869,
-2.52075,0.0534058,
-2.52228,0.050354,
-2.52533,0.0549316,
-2.5238,0.0610352,
-2.52228,0.0671387,
-2.5238,0.0518799,
-2.52533,0.0473022,
-2.52991,0.0549316,
-2.52686,0.0610352,
-2.52838,0.0671387,
-2.53296,0.050354,
-2.52991,0.0488281,
-2.53448,0.0534058,
-2.53296,0.0595093,
-2.53143,0.062561,
-2.53601,0.0549316,
-2.53601,0.0473022,
-2.53448,0.0534058,
-2.53601,0.0579834,
-2.53754,0.0610352,
-2.53906,0.0488281,
-2.54059,0.050354,
-2.54211,0.0534058,
-2.54669,0.0595093,
-2.54822,0.0671387,
-2.5528,0.0549316,
-2.55432,0.0518799,
-2.55585,0.0534058,
-2.55432,0.0610352,
-2.55127,0.0640869,
-2.55127,0.050354,
-2.54669,0.0473022,
-2.53906,0.0564575,
-2.53448,0.062561,
-2.52838,0.0640869,
-2.51923,0.050354,
-2.5116,0.0473022,
-2.49939,0.0534058,
-2.49329,0.0579834,
-2.48718,0.062561,
-2.4826,0.0518799,
-2.4704,0.0457764,
-2.45972,0.0549316,
-2.44751,0.0610352,
-2.43835,0.0640869,
-2.4292,0.0534058,
-2.42157,0.0473022,
-2.41852,0.0564575,
-2.41241,0.0564575,
-2.40631,0.062561,
-2.40936,0.050354,
-2.39716,0.0488281,
-2.3941,0.0549316,
-2.39105,0.0610352,
-2.388,0.0610352,
-2.38647,0.0534058,
-2.38342,0.0473022,
-2.37885,0.0534058,
-2.3819,0.0579834,
-2.37732,0.0640869,
-2.38037,0.0473022,
-2.37885,0.0427246,
-2.38342,0.0549316,
-2.38342,0.0595093,
-2.38342,0.0640869,
-2.38342,0.0518799,
-2.38342,0.0457764,
-2.38342,0.0579834,
-2.3819,0.0595093,
-2.3819,0.062561,
-2.3819,0.050354,
-2.3819,0.0488281,
-2.38342,0.0564575,
-2.38037,0.062561,
-2.3819,0.062561,
-2.38342,0.0534058,
-2.38037,0.0488281,
-2.3819,0.0564575,
-2.38342,0.0595093,
-2.38953,0.0671387,
-2.39258,0.0488281,
-2.39105,0.0488281,
-2.39105,0.0595093,
-2.39563,0.0595093,
-2.39105,0.0640869,
-2.39563,0.0534058,
-2.39563,0.050354,
-2.3941,0.0564575,
-2.40021,0.0671387,
-2.39868,0.0640869,
-2.40326,0.0534058,
-2.40173,0.0473022,
-2.40936,0.0564575,
-2.41394,0.0579834,
-2.41699,0.0640869,
-2.41699,0.0518799,
-2.42004,0.0473022,
-2.42004,0.0579834,
-2.43225,0.0610352,
-2.4292,0.0671387,
-2.43835,0.050354,
-2.43835,0.050354,
-2.44751,0.0595093,
-2.44904,0.0595093,
-2.45819,0.0610352,
-2.46124,0.0518799,
-2.46429,0.050354,
-2.46735,0.0518799,
-2.47192,0.0595093,
-2.47498,0.062561,
-2.47955,0.0534058,
-2.47955,0.0488281,
-2.48108,0.0579834,
-2.48108,0.0595093,
-2.4826,0.0640869,
-2.48566,0.050354,
-2.48413,0.0473022,
-2.47955,0.0534058,
-2.48566,0.0595093,
-2.47498,0.0640869,
-2.48108,0.050354,
-2.47803,0.0488281,
-2.47345,0.0579834,
-2.47345,0.0610352,
-2.47192,0.0640869,
-2.47345,0.0534058,
-2.46887,0.0457764,
-2.4704,0.0579834,
-2.46429,0.0640869,
-2.4704,0.062561,
-2.47498,0.050354,
-2.47803,0.0488281,
-2.48413,0.0579834,
-2.48566,0.0579834,
-2.48718,0.062561,
-2.49176,0.0518799,
-2.49481,0.0473022,
-2.50092,0.0534058,
-2.50244,0.0595093,
-2.50092,0.062561,
-2.50397,0.0518799,
-2.50854,0.0473022,
-2.50702,0.0564575,
-2.50854,0.0610352,
-2.51312,0.0610352,
-2.51617,0.050354,
-2.5177,0.050354,
-2.5177,0.0579834,
-2.5238,0.0595093,
-2.52228,0.0610352,
-2.52991,0.0488281,
-2.52686,0.0518799,
-2.52533,0.0534058,
-2.52228,0.0610352,
-2.52075,0.0640869,
-2.52228,0.050354,
-2.52075,0.0518799,
-2.52075,0.0564575,
-2.52075,0.0595093,
-2.51617,0.0640869,
-2.50854,0.0549316,
-2.50854,0.050354,
-2.50702,0.0595093,
-2.5116,0.0640869,
-2.51312,0.0640869,
-2.51465,0.0534058,
-2.50854,0.0518799,
-2.51465,0.0579834,
-2.51617,0.0610352,
-2.51923,0.062561,
-2.52533,0.0534058,
-2.52075,0.050354,
-2.52228,0.0549316,
-2.5177,0.0610352,
-2.51923,0.0640869,
-2.5238,0.0534058,
-2.52228,0.0518799,
-2.52228,0.0595093,
-2.52838,0.0610352,
-2.52991,0.0671387,
-2.52991,0.0518799,
-2.52838,0.0488281,
-2.52686,0.0549316,
-2.52533,0.0610352,
-2.53296,0.0640869,
-2.53448,0.0518799,
-2.53601,0.050354,
-2.54059,0.0579834,
-2.54059,0.0595093,
-2.54669,0.0671387,
-2.54822,0.0488281,
-2.54974,0.0518799,
-2.54669,0.0595093,
-2.54822,0.0595093,
-2.54364,0.0640869,
-2.54669,0.0534058,
-2.54364,0.050354,
-2.54059,0.0564575,
-2.54059,0.0610352,
-2.53906,0.0610352,
-2.53906,0.0488281,
-2.53906,0.0488281,
-2.53754,0.0579834,
-2.53754,0.0610352,
-2.53906,0.0671387,
-2.53601,0.050354,
-2.53906,0.050354,
-2.53601,0.0549316,
-2.53601,0.0610352,
-2.52991,0.062561,
-2.52991,0.0518799,
-2.52228,0.0488281,
-2.52075,0.0595093,
-2.5177,0.0610352,
-2.5116,0.0610352,
-2.50244,0.050354,
-2.49481,0.0488281,
-2.49481,0.0564575,
-2.48413,0.0610352,
-2.47498,0.0640869,
-2.46582,0.050354,
-2.45667,0.050354,
-2.44598,0.0549316,
-2.43073,0.0579834,
-2.42462,0.0610352,
-2.41394,0.0488281,
-2.40479,0.0518799,
-2.39716,0.0549316,
-2.38953,0.0610352,
-2.38037,0.0640869,
-2.37122,0.0488281,
-2.35901,0.050354,
-2.35138,0.0564575,
-2.34528,0.062561,
-2.33612,0.062561,
-2.33154,0.0518799,
-2.32391,0.050354,
-2.32239,0.0579834,
-2.31781,0.0610352,
-2.31171,0.062561,
-2.31018,0.0534058,
-2.31018,0.0518799,
-2.3056,0.0564575,
-2.30103,0.0610352,
-2.3056,0.0671387,
-2.30255,0.050354,
-2.30255,0.0518799,
-2.30103,0.0595093,
-2.29797,0.0595093,
-2.29492,0.062561,
-2.29492,0.0518799,
-2.2934,0.0534058,
-2.29034,0.062561,
-2.29034,0.062561,
-2.28729,0.0610352,
-2.28729,0.0518799,
-2.28577,0.050354,
-2.28271,0.0595093,
-2.27966,0.0640869,
-2.27814,0.0640869,
-2.27203,0.0518799,
-2.27051,0.0518799,
-2.2644,0.0595093,
-2.26288,0.062561,
-2.25677,0.062561,
-2.25983,0.050354,
-2.2522,0.0534058,
-2.2522,0.0549316,
-2.24762,0.0595093,
-2.24609,0.0640869,
-2.24152,0.0518799,
-2.23999,0.0518799,
-2.23694,0.0610352,
-2.23389,0.062561,
-2.23694,0.0640869,
-2.23999,0.0518799,
-2.23389,0.050354,
-2.23999,0.0564575,
-2.23694,0.0610352,
-2.24152,0.0671387,
-2.23846,0.0488281,
-2.23694,0.0534058,
-2.23999,0.0549316,
-2.23694,0.062561,
-2.23083,0.062561,
-2.23236,0.0488281,
-2.23083,0.0534058,
-2.23389,0.0595093,
-2.23083,0.0579834,
-2.23236,0.0640869,
-2.23846,0.0488281,
-2.23846,0.050354,
-2.23694,0.0549316,
-2.23694,0.0549316,
-2.23846,0.0640869,
-2.23694,0.0518799,
-2.23694,0.0518799,
-2.23236,0.0564575,
-2.23846,0.0595093,
-2.23694,0.062561,
-2.23389,0.0488281,
-2.23236,0.0518799,
-2.23083,0.0549316,
-2.22931,0.062561,
-2.23083,0.062561,
-2.23083,0.0488281,
-2.23389,0.0534058,
-2.23083,0.0579834,
-2.23083,0.0579834,
-2.23236,0.062561,
-2.23389,0.0518799,
-2.23083,0.0534058,
-2.23694,0.0564575,
-2.23846,0.0564575,
-2.24304,0.0640869,
-2.24762,0.050354,
-2.24915,0.050354,
-2.25067,0.0579834,
-2.24915,0.062561,
-2.25677,0.0671387,
-2.25525,0.0488281,
-2.25983,0.0518799,
-2.25677,0.0534058,
-2.2583,0.0595093,
-2.25983,0.0671387,
-2.26288,0.0534058,
-2.2583,0.0534058,
-2.26288,0.0564575,
-2.26288,0.062561,
-2.26593,0.062561,
-2.26746,0.050354,
-2.26593,0.0534058,
-2.26746,0.0595093,
-2.26746,0.062561,
-2.27051,0.0610352,
-2.27051,0.0518799,
-2.26593,0.0518799,
-2.26746,0.0549316,
-2.27051,0.0610352,
-2.27356,0.0610352,
-2.27509,0.0518799,
-2.27966,0.0518799,
-2.28119,0.0564575,
-2.29034,0.0686646,
-2.29492,0.062561,
-2.29645,0.050354,
-2.3056,0.0534058,
-2.30255,0.0549316,
-2.31171,0.0610352,
-2.31476,0.0640869,
-2.31934,0.0534058,
-2.32086,0.0549316,
-2.32086,0.0549316,
-2.32391,0.062561,
-2.32391,0.0671387,
-2.32849,0.0518799,
-2.32849,0.0534058,
-2.32697,0.0534058,
-2.32697,0.0610352,
-2.32239,0.0671387,
-2.31934,0.0518799,
-2.32086,0.0564575,
-2.32086,0.0564575,
-2.31934,0.062561,
-2.32239,0.0640869,
-2.32086,0.0473022,
-2.32086,0.0549316,
-2.31628,0.0534058,
-2.31934,0.062561,
-2.31781,0.0610352,
-2.32086,0.0518799,
-2.31934,0.0549316,
-2.31934,0.0564575,
-2.31781,0.062561,
-2.31781,0.0640869,
-2.31781,0.050354,
-2.32086,0.0549316,
-2.32086,0.0534058,
-2.32391,0.0595093,
-2.32697,0.062561,
-2.32544,0.0488281,
-2.32697,0.0518799,
-2.32544,0.0549316,
-2.32544,0.062561,
-2.32391,0.062561,
-2.32391,0.050354,
-2.33002,0.0564575,
-2.33154,0.0579834,
-2.33002,0.062561,
-2.33002,0.0610352,
-2.33307,0.0488281,
-2.33459,0.0579834,
-2.33307,0.0579834,
-2.33002,0.062561,
-2.32544,0.0610352,
-2.32086,0.0518799,
-2.31476,0.0549316,
-2.30713,0.0595093,
-2.2995,0.0640869,
-2.28729,0.0640869,
-2.27966,0.0488281,
-2.26746,0.0549316,
-2.26135,0.0549316,
-2.25067,0.0610352,
-2.24304,0.0640869,
-2.22778,0.050354,
-2.21405,0.0564575,
-2.20337,0.0579834,
-2.18811,0.0610352,
-2.17438,0.062561,
-2.16522,0.0518799,
-2.15149,0.0564575,
-2.13776,0.0579834,
-2.12708,0.062561,
-2.11182,0.062561,
-2.09961,0.0534058,
-2.0874,0.0549316,
-2.07672,0.0564575,
-2.06451,0.0640869,
-2.05383,0.0610352,
-2.04315,0.050354,
-2.034,0.0579834,
-2.03247,0.0564575,
-2.02789,0.0595093,
-2.02179,0.0640869,
-2.01874,0.0518799,
-2.01416,0.0549316,
-2.01111,0.0595093,
-2.005,0.0640869,
-2.00348,0.0671387,
-1.99738,0.0518799,
-2.00195,0.0579834,
-2.00043,0.0564575,
-1.98975,0.062561,
-1.99127,0.062561,
-1.9928,0.0534058,
-1.99127,0.0579834,
-1.98975,0.0564575,
-1.99127,0.0671387,
-1.99127,0.0640869,
-1.9989,0.0549316,
-1.99738,0.0534058,
-1.9989,0.0595093,
-1.99585,0.0671387,
-1.99585,0.062561,
-1.9928,0.0534058,
-1.9928,0.0564575,
-1.9928,0.0564575,
-1.99127,0.0640869,
-1.99127,0.062561,
-1.99585,0.050354,
-1.99738,0.0549316,
-1.99585,0.0549316,
-1.99738,0.0610352,
-1.99738,0.0640869,
-1.9989,0.050354,
-1.99127,0.0549316,
-1.99738,0.0534058,
-1.9928,0.0595093,
-1.99738,0.0640869,
-2.00195,0.0518799,
-2.00043,0.0564575,
-1.99585,0.0564575,
-1.9928,0.0610352,
-1.9928,0.062561,
-1.99127,0.0488281,
-1.98975,0.0518799,
-1.98517,0.0549316,
-1.98669,0.0610352,
-1.98822,0.0640869,
-1.98669,0.0488281,
-1.98517,0.0549316,
-1.98517,0.0549316,
-1.98364,0.062561,
-1.98364,0.0610352,
-1.98364,0.050354,
-1.98059,0.0564575,
-1.98364,0.0534058,
-1.98364,0.062561,
-1.98059,0.062561,
-1.97754,0.0488281,
-1.97754,0.0518799,
-1.97754,0.0564575,
-1.97754,0.0595093,
-1.97601,0.0610352,
-1.97601,0.050354,
-1.97754,0.0534058,
-1.97906,0.0534058,
-1.97906,0.0610352,
-1.98059,0.062561,
-1.98212,0.0488281,
-1.97906,0.0534058,
-1.98364,0.0564575,
-1.98364,0.0595093,
-1.98212,0.062561,
-1.98517,0.0518799,
-1.99127,0.0564575,
-1.98975,0.0564575,
-1.98822,0.062561,
-1.99127,0.0671387,
-1.98669,0.0518799,
-1.98364,0.0564575,
-1.98212,0.0549316,
-1.98517,0.0610352,
-1.98669,0.062561,
-1.9928,0.0518799,
-1.99127,0.0549316,
-1.9928,0.050354,
-1.9989,0.0595093,
-1.9989,0.0640869,
-2.00043,0.0534058,
-1.9989,0.0534058,
-2.00195,0.0549316,
-2.005,0.062561,
-2.00348,0.062561,
-2.00806,0.0518799,
-2.00653,0.0534058,
-2.01111,0.0579834,
-2.00806,0.0610352,
-2.00958,0.0640869,
-2.01111,0.050354,
-2.01111,0.0534058,
-2.01111,0.0534058,
-2.00958,0.0610352,
-2.005,0.062561,
-2.00653,0.050354,
-2.00043,0.0534058,
-2.00195,0.050354,
-2.00348,0.0610352,
-2.005,0.062561,
-2.00653,0.0518799,
-2.00348,0.0534058,
-2.005,0.0534058,
-2.00348,0.0610352,
-2.005,0.0640869,
-2.00348,0.0488281,
-2.00348,0.0549316,
-2.00043,0.050354,
-1.9989,0.0579834,
-1.99585,0.062561,
-1.9989,0.0488281,
-1.9989,0.0534058,
-2.00043,0.0518799,
-2.005,0.0579834,
-2.005,0.062561,
-2.00958,0.050354,
-2.01569,0.0534058,
-2.01874,0.0549316,
-2.01874,0.0610352,
-2.02026,0.062561,
-2.01874,0.050354,
-2.02332,0.0518799,
-2.02179,0.0518799,
-2.03094,0.0595093,
-2.02484,0.062561,
-2.02484,0.0518799,
-2.03094,0.0488281,
-2.02637,0.0549316,
-2.03247,0.0579834,
-2.03094,0.062561,
-2.03552,0.0518799,
-2.0401,0.050354,
-2.0401,0.0518799,
-2.04315,0.062561,
-2.04773,0.0610352,
-2.04926,0.0488281,
-2.05231,0.0534058,
-2.05383,0.0549316,
-2.05994,0.0595093,
-2.06451,0.0610352,
-2.06604,0.0534058,
-2.06909,0.050354,
-2.06909,0.0518799,
-2.06604,0.062561,
-2.07214,0.062561,
-2.07367,0.050354,
-2.07214,0.050354,
-2.07214,0.0549316,
-2.06604,0.062561,
-2.06146,0.062561,
-2.05231,0.0534058,
-2.04163,0.050354,
-2.034,0.0518799,
-2.02179,0.062561,
-2.01111,0.062561,
-2.00043,0.0534058,
-1.98822,0.050354,
-1.97449,0.0534058,
-1.95923,0.062561,
-1.9516,0.062561,
-1.93787,0.0549316,
-1.93176,0.050354,
-1.92261,0.0518799,
-1.91345,0.0579834,
-1.9043,0.0640869,
-1.90125,0.050354,
-1.89362,0.050354,
-1.88599,0.050354,
-1.88141,0.062561,
-1.87531,0.0610352,
-1.86768,0.0518799,
-1.86462,0.0488281,
-1.86005,0.0534058,
-1.85394,0.0610352,
-1.85089,0.0640869,
-1.85547,0.0518799,
-1.85394,0.0518799,
-1.85394,0.0549316,
-1.85242,0.0595093,
-1.85242,0.0640869,
-1.85394,0.050354,
-1.85242,0.050354,
-1.85242,0.0564575,
-1.85089,0.062561,
-1.85242,0.0610352,
-1.85089,0.0518799,
-1.84784,0.050354,
-1.85089,0.0518799,
-1.84631,0.0610352,
-1.85089,0.0610352,
-1.85242,0.0534058,
-1.85394,0.050354,
-1.85394,0.0534058,
-1.85242,0.0595093,
-1.85089,0.0610352,
-1.85547,0.050354,
-1.85547,0.0518799,
-1.85852,0.0518799,
-1.85852,0.0610352,
-1.86462,0.0640869,
-1.86462,0.0518799,
-1.86462,0.0473022,
-1.86462,0.0518799,
-1.86462,0.0610352,
-1.86615,0.0640869,
-1.86768,0.0549316,
-1.87378,0.0488281,
-1.8692,0.0534058,
-1.87225,0.0595093,
-1.87531,0.0610352,
-1.87531,0.0549316,
-1.87836,0.0518799,
-1.88293,0.0488281,
-1.88599,0.062561,
-1.88751,0.0610352,
-1.88904,0.0518799,
-1.89362,0.0488281,
-1.89362,0.0518799,
-1.89362,0.0595093,
-1.89514,0.062561,
-1.89667,0.0534058,
-1.89667,0.0518799,
-1.89972,0.0534058,
-1.89819,0.0595093,
-1.89667,0.062561,
-1.89819,0.0518799,
-1.89667,0.050354,
-1.88751,0.0518799,
-1.88751,0.0610352,
-1.88446,0.0610352,
-1.88446,0.0534058,
-1.88446,0.050354,
-1.88599,0.050354,
-1.88751,0.062561,
-1.88904,0.062561,
-1.89056,0.0549316,
-1.89056,0.050354,
-1.88751,0.050354,
-1.88751,0.0595093,
-1.88599,0.062561,
-1.88904,0.0549316,
-1.89056,0.0534058,
-1.89667,0.0549316,
-1.90125,0.062561,
-1.90582,0.0640869,
-1.9104,0.0549316,
-1.90887,0.0518799,
-1.9104,0.0549316,
-1.91498,0.0579834,
-1.91803,0.062561,
-1.91803,0.0534058,
-1.92108,0.050354,
-1.92261,0.0534058,
-1.92413,0.0610352,
-1.92719,0.0640869,
-1.93329,0.0534058,
-1.93024,0.0518799,
-1.93481,0.0534058,
-1.93176,0.0640869,
-1.93634,0.0640869,
-1.93634,0.0534058,
-1.93634,0.0518799,
-1.93787,0.0564575,
-1.93481,0.0610352,
-1.93329,0.062561,
-1.93481,0.0534058,
-1.93939,0.0534058,
-1.93481,0.0534058,
-1.93329,0.062561,
-1.93787,0.0640869,
-1.94092,0.0534058,
-1.94702,0.0518799,
-1.94855,0.0534058,
-1.95007,0.062561,
-1.95465,0.062561,
-1.9577,0.0534058,
-1.96533,0.0488281,
-1.96991,0.050354,
-1.97296,0.0610352,
-1.97449,0.0610352,
-1.97754,0.0534058,
-1.98212,0.0488281,
-1.98059,0.0518799,
-1.98364,0.0595093,
-1.98822,0.0610352,
-1.99127,0.0534058,
-1.98975,0.0518799,
-1.99585,0.0549316,
-1.9989,0.0595093,
-2.00348,0.062561,
-2.00806,0.0518799,
-2.00958,0.0473022,
-2.01263,0.0518799,
-2.01569,0.0579834,
-2.01721,0.0640869,
-2.02026,0.0534058,
-2.02484,0.0488281,
-2.02637,0.0534058,
-2.02484,0.0610352,
-2.02637,0.0610352,
-2.03247,0.050354,
-2.03094,0.0488281,
-2.034,0.0549316,
-2.03552,0.0640869,
-2.03552,0.0610352,
-2.0401,0.0518799,
-2.03705,0.0534058,
-2.03552,0.0534058,
-2.03705,0.0595093,
-2.03857,0.0671387,
-2.04315,0.0534058,
-2.0401,0.0488281,
-2.04468,0.0534058,
-2.04773,0.0595093,
-2.04468,0.0610352,
-2.05078,0.0549316,
-2.04926,0.0518799,
-2.05383,0.0549316,
-2.05841,0.0595093,
-2.05841,0.0640869,
-2.05841,0.0549316,
-2.05841,0.0534058,
-2.05688,0.0549316,
-2.05383,0.0640869,
-2.05231,0.0640869,
-2.05536,0.0488281,
-2.05078,0.0473022,
-2.0462,0.0549316,
-2.0401,0.062561,
-2.03247,0.0610352,
-2.02332,0.0549316,
-2.01416,0.050354,
-2.005,0.0549316,
-1.9928,0.0595093,
-1.98212,0.0640869,
-1.96991,0.0518799,
-1.95618,0.050354,
-1.94092,0.0549316,
-1.92719,0.0595093,
-1.9165,0.062561,
-1.90582,0.0549316,
-1.89819,0.050354,
-1.88751,0.0564575,
-1.87836,0.0610352,
-1.86768,0.062561,
-1.8631,0.0534058,
-1.85089,0.0488281,
-1.84479,0.0564575,
-1.84021,0.062561,
-1.83258,0.0610352,
-1.82953,0.0549316,
-1.81732,0.0534058,
-1.81274,0.0564575,
-1.80359,0.0579834,
-1.80511,0.0610352,
-1.80054,0.0564575,
-1.79596,0.0518799,
-1.79291,0.0534058,
-1.78986,0.062561,
-1.78375,0.0640869,
-1.78375,0.0549316,
-1.77917,0.050354,
-1.77612,0.0518799,
-1.77307,0.062561,
-1.77002,0.0610352,
-1.76849,0.0518799,
-1.76239,0.050354,
-1.75629,0.050354,
-1.75018,0.0595093,
-1.74408,0.0640869,
-1.74103,0.0518799,
-1.73035,0.0518799,
-1.73035,0.0549316,
-1.72729,0.0610352,
-1.72577,0.0671387,
-1.72729,0.0534058,
-1.72424,0.050354,
-1.72424,0.0534058,
-1.72424,0.0595093,
-1.72272,0.062561,
-1.72729,0.0518799,
-1.73035,0.0518799,
-1.73035,0.0518799,
-1.73492,0.0640869,
-1.73645,0.0610352,
-1.74103,0.0534058,
-1.74408,0.050354,
-1.74713,0.0534058,
-1.75171,0.0595093,
-1.75171,0.062561,
-1.75629,0.0549316,
-1.75476,0.0518799,
-1.75629,0.0518799,
-1.75629,0.0610352,
-1.75781,0.062561,
-1.75934,0.0534058,
-1.75629,0.0518799,
-1.75476,0.0518799,
-1.75476,0.0610352,
-1.75629,0.0640869,
-1.75629,0.0549316,
-1.75629,0.0518799,
-1.75476,0.0534058,
-1.75018,0.0640869,
-1.75476,0.0671387,
-1.75171,0.0564575,
-1.75018,0.050354,
-1.74866,0.0549316,
-1.74408,0.0610352,
-1.74255,0.0640869,
-1.74255,0.0564575,
-1.7395,0.0518799,
-1.73798,0.0549316,
-1.73492,0.062561,
-1.72882,0.0610352,
-1.72424,0.0549316,
-1.72119,0.0473022,
-1.72424,0.0549316,
-1.72272,0.0595093,
-1.72577,0.0671387,
-1.72577,0.0518799,
-1.72577,0.0518799,
-1.72729,0.0549316,
-1.73187,0.0610352,
-1.73035,0.062561,
-1.73035,0.0534058,
-1.73492,0.0518799,
-1.73645,0.0518799,
-1.7395,0.0595093,
-1.74103,0.062561,
-1.7395,0.0518799,
-1.74103,0.0518799,
-1.74255,0.0534058,
-1.74408,0.0595093,
-1.74255,0.062561,
-1.74103,0.0564575,
-1.73645,0.0534058,
-1.73798,0.0534058,
-1.73798,0.0610352,
-1.73798,0.0640869,
-1.74408,0.0518799,
-1.74561,0.0488281,
-1.74255,0.0534058,
-1.74713,0.0610352,
-1.74713,0.0640869,
-1.74866,0.0549316,
-1.75476,0.0534058,
-1.75476,0.0549316,
-1.75171,0.0595093,
-1.75476,0.062561,
-1.75476,0.0549316,
-1.75781,0.050354,
-1.75934,0.0518799,
-1.75781,0.0595093,
-1.76392,0.0671387,
-1.76697,0.0518799,
-1.77155,0.050354,
-1.77002,0.0564575,
-1.76849,0.0595093,
-1.76849,0.0640869,
-1.77307,0.0518799,
-1.76849,0.0518799,
-1.77002,0.0518799,
-1.77002,0.0610352,
-1.7746,0.0640869,
-1.77917,0.0518799,
-1.78375,0.050354,
-1.7868,0.0549316,
-1.79443,0.062561,
-1.79749,0.062561,
-1.80054,0.0518799,
-1.80664,0.0518799,
-1.80817,0.0549316,
-1.81274,0.062561,
-1.81885,0.0640869,
-1.82648,0.0534058,
-1.83105,0.0534058,
-1.83563,0.0534058,
-1.84174,0.0671387,
-1.84174,0.0640869,
-1.84479,0.0534058,
-1.84479,0.0534058,
-1.84784,0.0549316,
-1.85242,0.062561,
-1.85242,0.0640869,
-1.85394,0.0549316,
-1.85394,0.050354,
-1.85547,0.0595093,
-1.86005,0.0595093,
-1.86157,0.0671387,
-1.86157,0.0549316,
-1.8631,0.0518799,
-1.86768,0.0549316,
-1.87073,0.062561,
-1.87073,0.0640869,
-1.87683,0.0549316,
-1.88599,0.0564575,
-1.88904,0.0534058,
-1.89056,0.062561,
-1.89362,0.0640869,
-1.89972,0.0549316,
-1.90277,0.0518799,
-1.90277,0.0564575,
-1.9043,0.0686646,
-1.90735,0.0640869,
-1.90887,0.0579834,
-1.91193,0.0534058,
-1.91193,0.0564575,
-1.9104,0.0610352,
-1.9043,0.0610352,
-1.89667,0.0564575,
-1.88904,0.050354,
-1.87988,0.0564575,
-1.87073,0.0610352,
-1.85852,0.0610352,
-1.84937,0.0549316,
-1.83563,0.0518799,
-1.8158,0.0534058,
-1.80664,0.0610352,
-1.7868,0.0610352,
-1.77307,0.0534058,
-1.75629,0.050354,
-1.74408,0.0564575,
-1.73035,0.0640869,
-1.71661,0.0595093,
-1.70441,0.0534058,
-1.69525,0.0549316,
-1.6861,0.0549316,
-1.67999,0.0640869,
-1.67084,0.0640869,
-1.66321,0.0534058,
-1.6571,0.0518799,
-1.64795,0.0564575,
-1.64795,0.0610352,
-1.64337,0.062561,
-1.63727,0.0518799,
-1.63269,0.0518799,
-1.62811,0.0534058,
-1.62811,0.0610352,
-1.62659,0.0640869,
-1.62506,0.050354,
-1.61743,0.0518799,
-1.61743,0.050354,
-1.61285,0.062561,
-1.60828,0.0595093,
-1.60522,0.0534058,
-1.60217,0.050354,
-1.5976,0.0549316,
-1.59302,0.0595093,
-1.59149,0.062561,
-1.58844,0.0534058,
-1.58081,0.0518799,
-1.57471,0.0549316,
-1.57471,0.062561,
-1.5686,0.062561,
-1.57166,0.0534058,
-1.5686,0.0518799,
-1.5625,0.0549316,
-1.55792,0.0610352,
-1.55487,0.0640869,
-1.55334,0.0549316,
-1.54572,0.0534058,
-1.54419,0.0534058,
-1.54419,0.0595093,
-1.54266,0.0640869,
-1.53961,0.0534058,
-1.54114,0.050354,
-1.53656,0.050354,
-1.53961,0.062561,
-1.53656,0.062561,
-1.54114,0.0579834,
-1.53656,0.0534058,
-1.53809,0.0534058,
-1.54114,0.0610352,
-1.54572,0.0640869,
-1.54572,0.0549316,
-1.54877,0.050354,
-1.54877,0.0564575,
-1.55182,0.062561,
-1.55334,0.0640869,
-1.55487,0.0534058,
-1.55487,0.0534058,
-1.55334,0.0549316,
-1.55182,0.0595093,
-1.55029,0.0610352,
-1.54572,0.0564575,
-1.54572,0.0518799,
-1.54572,0.0549316,
-1.54877,0.062561,
-1.54877,0.062561,
-1.54877,0.0549316,
-1.54572,0.050354,
-1.54114,0.0564575,
-1.53809,0.062561,
-1.53809,0.062561,
-1.53961,0.0534058,
-1.53503,0.050354,
-1.53046,0.0534058,
-1.53046,0.0595093,
-1.52893,0.0640869,
-1.5274,0.0549316,
-1.52435,0.0488281,
-1.52283,0.0549316,
-1.51825,0.062561,
-1.51062,0.0671387,
-1.50909,0.0518799,
-1.50757,0.0518799,
-1.50604,0.0549316,
-1.50604,0.0595093,
-1.50452,0.062561,
-1.50757,0.0549316,
-1.50909,0.0518799,
-1.50604,0.0549316,
-1.50604,0.0595093,
-1.50299,0.062561,
-1.50757,0.050354,
-1.50757,0.050354,
-1.50757,0.0549316,
-1.51062,0.0610352,
-1.51062,0.062561,
-1.5152,0.0473022,
-1.51672,0.050354,
-1.5213,0.0518799,
-1.51825,0.0610352,
-1.51825,0.0610352,
-1.5213,0.0534058,
-1.52435,0.050354,
-1.53046,0.0518799,
-1.5274,0.0595093,
-1.52588,0.062561,
-1.52893,0.0518799,
-1.53198,0.050354,
-1.53046,0.0534058,
-1.52893,0.0579834,
-1.53351,0.0640869,
-1.53809,0.0549316,
-1.53809,0.050354,
-1.53961,0.0549316,
-1.54266,0.0595093,
-1.54419,0.0640869,
-1.55182,0.0564575,
-1.55334,0.0534058,
-1.55487,0.0549316,
-1.5564,0.0595093,
-1.5564,0.062561,
-1.56555,0.0534058,
-1.57013,0.0534058,
-1.57318,0.0518799,
-1.57623,0.0640869,
-1.58081,0.062561,
-1.59149,0.0518799,
-1.58844,0.0518799,
-1.59454,0.0518799,
-1.59454,0.0579834,
-1.60065,0.0610352,
-1.6037,0.0518799,
-1.60217,0.0564575,
-1.6098,0.0549316,
-1.60828,0.0640869,
-1.61743,0.0671387,
-1.62506,0.0518799,
-1.62659,0.0534058,
-1.63422,0.0549316,
-1.63422,0.0595093,
-1.63574,0.0610352,
-1.63879,0.0549316,
-1.64185,0.050354,
-1.64185,0.0549316,
-1.64642,0.0595093,
-1.64948,0.062561,
-1.65558,0.050354,
-1.66016,0.0518799,
-1.66168,0.0564575,
-1.66626,0.062561,
-1.66779,0.062561,
-1.67389,0.0549316,
-1.67542,0.0518799,
-1.67694,0.0534058,
-1.67999,0.0610352,
-1.6861,0.0640869,
-1.6922,0.0534058,
-1.69373,0.0549316,
-1.69373,0.0579834,
-1.69983,0.0610352,
-1.6983,0.062561,
-1.70288,0.0549316,
-1.70135,0.0518799,
-1.70746,0.0549316,
-1.70441,0.0579834,
-1.70898,0.062561,
-1.70593,0.0534058,
-1.70593,0.050354,
-1.69983,0.0549316,
-1.69983,0.0595093,
-1.69678,0.0640869,
-1.68915,0.0534058,
-1.6861,0.0534058,
-1.67542,0.0534058,
-1.66626,0.0595093,
-1.65558,0.062561,
-1.64337,0.0534058,
-1.62811,0.0534058,
-1.61438,0.0549316,
-1.60065,0.0610352,
-1.58539,0.0610352,
-1.57166,0.0534058,
-1.5625,0.050354,
-1.55029,0.0534058,
-1.53503,0.0640869,
-1.5274,0.0610352,
-1.51672,0.0534058,
-1.50452,0.050354,
-1.49841,0.050354,
-1.48926,0.0610352,
-1.48315,0.0640869,
-1.47095,0.0518799,
-1.4679,0.0518799,
-1.46179,0.0549316,
-1.45416,0.0610352,
-1.44653,0.062561,
-1.44653,0.0518799,
-1.43585,0.0518799,
-1.43127,0.0534058,
-1.42212,0.0610352,
-1.41602,0.062561,
-1.41449,0.0534058,
-1.40381,0.0534058,
-1.39923,0.0518799,
-1.39618,0.0610352,
-1.3916,0.0640869,
-1.38702,0.0518799,
-1.3855,0.0518799,
-1.37329,0.0549316,
-1.36719,0.0610352,
-1.36719,0.0640869,
-1.36719,0.0534058,
-1.36414,0.0564575,
-1.35498,0.0549316,
-1.35345,0.062561,
-1.3504,0.0671387,
-1.34888,0.0549316,
-1.34735,0.050354,
-1.34583,0.0518799,
-1.34277,0.0610352,
-1.33972,0.062561,
-1.34277,0.0549316,
-1.33972,0.050354,
-1.33972,0.0564575,
-1.34277,0.0595093,
-1.34583,0.0640869,
-1.3443,0.0549316,
-1.34277,0.0518799,
-1.3443,0.0518799,
-1.3504,0.062561,
-1.34888,0.0686646,
-1.35193,0.0518799,
-1.35345,0.0534058,
-1.35193,0.0518799,
-1.35345,0.062561,
-1.35345,0.0671387,
-1.35345,0.0564575,
-1.35345,0.0488281,
-1.35651,0.0564575,
-1.36108,0.062561,
-1.36108,0.0640869,
-1.35803,0.0564575,
-1.35956,0.0488281,
-1.36414,0.0549316,
-1.36261,0.0595093,
-1.36566,0.0640869,
-1.36566,0.0518799,
-1.36566,0.0518799,
-1.36566,0.0579834,
-1.36566,0.0595093,
-1.36566,0.062561,
-1.37024,0.0534058,
-1.36719,0.0488281,
-1.36719,0.0534058,
-1.37024,0.0610352,
-1.37024,0.0640869,
-1.36566,0.0534058,
-1.36871,0.0534058,
-1.36719,0.0564575,
-1.37024,0.0610352,
-1.36414,0.062561,
-1.35956,0.0534058,
-1.35651,0.0488281,
-1.35803,0.0518799,
-1.35498,0.0595093,
-1.35651,0.0610352,
-1.35956,0.0549316,
-1.35345,0.050354,
-1.35803,0.0534058,
-1.35956,0.0579834,
-1.36414,0.0671387,
-1.36871,0.0518799,
-1.36414,0.0488281,
-1.36566,0.0534058,
-1.36871,0.0595093,
-1.36414,0.0671387,
-1.36871,0.0518799,
-1.37482,0.0488281,
-1.37939,0.050354,
-1.37939,0.0610352,
-1.38092,0.0640869,
-1.38092,0.0518799,
-1.3855,0.0534058,
-1.39008,0.0518799,
-1.39313,0.0610352,
-1.39618,0.062561,
-1.40076,0.0534058,
-1.40076,0.0518799,
-1.40228,0.0534058,
-1.40686,0.062561,
-1.40839,0.062561,
-1.41296,0.0564575,
-1.41602,0.0518799,
-1.42212,0.0518799,
-1.42365,0.062561,
-1.4267,0.0671387,
-1.43127,0.0534058,
-1.4389,0.050354,
-1.44348,0.0518799,
-1.44806,0.0640869,
-1.45569,0.062561,
-1.45874,0.0518799,
-1.46332,0.0518799,
-1.4679,0.0549316,
-1.46942,0.0610352,
-1.46942,0.0640869,
-1.47552,0.0534058,
-1.47552,0.050354,
-1.47705,0.0518799,
-1.48163,0.0610352,
-1.48621,0.062561,
-1.49231,0.0534058,
-1.49536,0.0518799,
-1.50146,0.050354,
-1.50452,0.062561,
-1.50909,0.062561,
-1.51672,0.050354,
-1.52435,0.0518799,
-1.52893,0.0534058,
-1.53046,0.0610352,
-1.53503,0.062561,
-1.54114,0.0534058,
-1.54419,0.0518799,
-1.55182,0.0534058,
-1.55792,0.0610352,
-1.5625,0.0640869,
-1.5625,0.050354,
-1.5686,0.0473022,
-1.57166,0.0534058,
-1.57623,0.0610352,
-1.58539,0.0640869,
-1.59302,0.050354,
-1.59912,0.050354,
-1.59912,0.0534058,
-1.60675,0.0610352,
-1.60675,0.0610352,
-1.61743,0.0549316,
-1.61896,0.0534058,
-1.62811,0.0549316,
-1.63269,0.0579834,
-1.64337,0.0640869,
-1.64795,0.0534058,
-1.65558,0.0534058,
-1.66016,0.0549316,
-1.66626,0.0610352,
-1.66779,0.0640869,
-1.67236,0.0534058,
-1.67236,0.0518799,
-1.67389,0.0534058,
-1.67236,0.0595093,
-1.67084,0.0640869,
-1.66779,0.0534058,
-1.66321,0.0518799,
-1.65863,0.0488281,
-1.64948,0.0610352,
-1.64337,0.0595093,
-1.63574,0.0473022,
-1.62354,0.0534058,
-1.61285,0.0534058,
-1.60217,0.0610352,
-1.58844,0.0640869,
-1.57471,0.0518799,
-1.5625,0.050354,
-1.54877,0.0534058,
-1.53198,0.0610352,
-1.51672,0.0610352,
-1.50452,0.0534058,
-1.49231,0.0518799,
-1.47705,0.0534058,
-1.46332,0.0640869,
-1.45416,0.0640869,
-1.44348,0.0549316,
-1.4267,0.050354,
-1.41907,0.0534058,
-1.40533,0.0595093,
-1.39618,0.062561,
-1.39008,0.0534058,
-1.37787,0.0518799,
-1.36566,0.0534058,
-1.35498,0.0610352,
-1.34888,0.062561,
-1.34277,0.0534058,
-1.33667,0.050354,
-1.33057,0.0549316,
-1.32751,0.062561,
-1.32141,0.062561,
-1.31836,0.0534058,
-1.31378,0.0549316,
-1.3092,0.0518799,
-1.30157,0.0595093,
-1.297,0.062561,
-1.29547,0.0488281,
-1.28784,0.050354,
-1.28479,0.0549316,
-1.28174,0.0640869,
-1.27716,0.0640869,
-1.27563,0.0518799,
-1.27106,0.0534058,
-1.26648,0.0549316,
-1.26495,0.062561,
-1.2619,0.0640869,
-1.25885,0.0518799,
-1.25732,0.0488281,
-1.25427,0.0534058,
-1.25427,0.0610352,
-1.2558,0.0610352,
-1.2558,0.0534058,
-1.25427,0.0534058,
-1.25275,0.0549316,
-1.25427,0.0610352,
-1.25427,0.0640869,
-1.25732,0.0518799,
-1.25885,0.0488281,
-1.2558,0.0549316,
-1.2619,0.0610352,
-1.25885,0.0671387,
-1.25885,0.0534058,
-1.25732,0.050354,
-1.25885,0.0534058,
-1.25427,0.0640869,
-1.25732,0.0610352,
-1.25732,0.050354,
-1.2558,0.0518799,
-1.25885,0.0518799,
-1.25732,0.0610352,
-1.26343,0.062561,
-1.26343,0.0488281,
-1.26648,0.0549316,
-1.26343,0.0488281,
-1.26343,0.0610352,
-1.26495,0.062561,
-1.25885,0.0518799,
-1.26343,0.0534058,
-1.25885,0.0534058,
-1.25732,0.0640869,
-1.2558,0.0686646,
-1.25427,0.0518799,
-1.25275,0.0549316,
-1.25275,0.0549316,
-1.25275,0.0595093,
-1.25122,0.0640869,
-1.24817,0.0518799,
-1.25122,0.0518799,
-1.24817,0.0549316,
-1.24969,0.0610352,
-1.25122,0.0640869,
-1.25122,0.050354,
-1.25427,0.050354,
-1.25732,0.0564575,
-1.2619,0.062561,
-1.26495,0.0610352,
-1.2619,0.0518799,
-1.26343,0.050354,
-1.26495,0.0549316,
-1.26953,0.062561,
-1.27106,0.0610352,
-1.27716,0.0564575,
-1.28174,0.0549316,
-1.28632,0.0549316,
-1.28937,0.0640869,
-1.29547,0.0640869,
-1.30157,0.0518799,
-1.30463,0.0549316,
-1.31073,0.0564575,
-1.31378,0.0671387,
-1.31836,0.062561,
-1.31989,0.0518799,
-1.32599,0.0564575,
-1.32904,0.0549316,
-1.33209,0.062561,
-1.33057,0.062561,
-1.33514,0.0549316,
-1.33667,0.0534058,
-1.33362,0.0564575,
-1.3382,0.0640869,
-1.3443,0.0671387,
-1.34583,0.0534058,
-1.34583,0.0534058,
-1.34735,0.0549316,
-1.3504,0.062561,
-1.34735,0.062561,
-1.35651,0.0518799,
-1.36108,0.0534058,
-1.36108,0.0534058,
-1.36566,0.0610352,
-1.36719,0.0671387,
-1.37177,0.0549316,
-1.37482,0.0564575,
-1.37177,0.0549316,
-1.37787,0.062561,
-1.38092,0.062561,
-1.38855,0.0518799,
-1.38855,0.0564575,
-1.39313,0.0579834,
-1.39313,0.0686646,
-1.40076,0.0610352,
-1.40533,0.0518799,
-1.41144,0.0549316,
-1.41602,0.0549316,
-1.41754,0.0610352,
-1.42059,0.062561,
-1.42365,0.0488281,
-1.42517,0.0549316,
-1.42822,0.0564575,
-1.42822,0.0610352,
-1.42975,0.0671387,
-1.43585,0.0518799,
-1.43738,0.0564575,
-1.44196,0.0549316,
-1.44653,0.0610352,
-1.44958,0.062561,
-1.45569,0.0488281,
-1.45569,0.0518799,
-1.46179,0.0534058,
-1.46332,0.0686646,
-1.4679,0.0640869,
-1.474,0.0518799,
-1.48468,0.0549316,
-1.48163,0.0488281,
-1.49078,0.0579834,
-1.49536,0.062561,
-1.50299,0.050354,
-1.50452,0.0534058,
-1.50452,0.0534058,
-1.51062,0.0640869,
-1.51672,0.0640869,
-1.52283,0.050354,
-1.5274,0.0534058,
-1.52893,0.0564575,
-1.53351,0.062561,
-1.53961,0.0610352,
-1.54114,0.0473022,
-1.54419,0.0549316,
-1.54572,0.0534058,
-1.54266,0.062561,
-1.54114,0.0640869,
-1.53809,0.0488281,
-1.53503,0.0549316,
-1.52893,0.0534058,
-1.52435,0.0610352,
-1.5152,0.0671387,
-1.50146,0.0518799,
-1.48773,0.0549316,
-1.47095,0.0549316,
-1.45264,0.062561,
-1.4328,0.0640869,
-1.42212,0.0534058,
-1.40228,0.0564575,
-1.39008,0.0610352,
-1.37177,0.0671387,
-1.35803,0.062561,
-1.34583,0.0534058,
-1.33362,0.0549316,
-1.32141,0.0564575,
-1.3031,0.0686646,
-1.29547,0.0640869,
-1.28632,0.0518799,
-1.27716,0.0549316,
-1.26648,0.0564575,
-1.25885,0.062561,
-1.25275,0.062561,
-1.24512,0.0534058,
-1.23596,0.0579834,
-1.22986,0.0549316,
-1.22528,0.062561,
-1.21918,0.0640869,
-1.2146,0.0549316,
-1.20697,0.0534058,
-1.20087,0.0564575,
-1.19934,0.0610352,
-1.19629,0.0671387,
-1.19629,0.050354,
-1.19171,0.0564575,
-1.19476,0.0549316,
-1.19324,0.0595093,
-1.19629,0.0640869,
-1.19324,0.0534058,
-1.19324,0.0549316,
-1.19171,0.0534058,
-1.18866,0.0640869,
-1.18561,0.0610352,
-1.19019,0.0488281,
-1.19019,0.0534058,
-1.19324,0.0549316,
-1.19171,0.062561,
-1.19476,0.0610352,
-1.19324,0.0473022,
-1.18866,0.0534058,
-1.19171,0.0534058,
-1.19476,0.0610352,
-1.19171,0.0610352,
-1.19171,0.0518799,
-1.19171,0.0564575,
-1.19171,0.0549316,
-1.19476,0.0595093,
-1.19934,0.0640869,
-1.19629,0.0473022,
-1.19934,0.0518799,
-1.19781,0.0549316,
-1.19781,0.062561,
-1.20087,0.062561,
-1.19629,0.050354,
-1.19629,0.0534058,
-1.19781,0.0564575,
-1.19934,0.0610352,
-1.19629,0.062561,
-1.19781,0.0488281,
-1.19934,0.0518799,
-1.19781,0.0534058,
-1.19476,0.0610352,
-1.19476,0.0595093,
-1.19476,0.0518799,
-1.19629,0.0564575,
-1.19324,0.0579834,
-1.19476,0.0579834,
-1.19324,0.0610352,
-1.19476,0.0518799,
-1.19324,0.0549316,
-1.19324,0.050354,
-1.18866,0.0610352,
-1.19019,0.0671387,
-1.18866,0.0534058,
-1.18866,0.0549316,
-1.18561,0.0518799,
-1.18866,0.0595093,
-1.18713,0.062561,
-1.18866,0.050354,
-1.18713,0.0549316,
-1.18866,0.0564575,
-1.18713,0.0686646,
-1.18561,0.0610352,
-1.18256,0.0518799,
-1.1795,0.0549316,
-1.1795,0.0549316,
-1.1795,0.062561,
-1.18103,0.0640869,
-1.18256,0.0488281,
-1.18561,0.0564575,
-1.18866,0.0564575,
-1.19171,0.062561,
-1.19629,0.062561,
-1.19629,0.050354,
-1.20087,0.0549316,
-1.20239,0.0579834,
-1.20544,0.062561,
-1.2146,0.062561,
-1.21918,0.0488281,
-1.22223,0.0549316,
-1.23291,0.0549316,
-1.23596,0.0671387,
-1.24512,0.0671387,
-1.25122,0.0518799,
-1.2558,0.0534058,
-1.2619,0.0549316,
-1.26495,0.0640869,
-1.27106,0.0640869,
-1.27716,0.0488281,
-1.27563,0.0534058,
-1.27869,0.0564575,
-1.28174,0.0595093,
-1.28784,0.0640869,
-1.29242,0.050354,
-1.29395,0.0564575,
-1.29852,0.0549316,
-1.29852,0.062561,
-1.30157,0.062561,
-1.30615,0.0488281,
-1.31226,0.0534058,
-1.31836,0.0534058,
-1.31836,0.062561,
-1.32599,0.062561,
-1.33362,0.050354,
-1.33514,0.0549316,
-1.3382,0.0564575,
-1.3382,0.062561,
-1.3382,0.062561,
-1.34277,0.0473022,
-1.34277,0.0518799,
-1.34888,0.0564575,
-1.35345,0.062561,
-1.35651,0.062561,
-1.35651,0.0518799,
-1.36261,0.0549316,
-1.37024,0.0564575,
-1.37939,0.062561,
-1.38702,0.0610352,
-1.39771,0.050354,
-1.40686,0.0549316,
-1.41754,0.0564575,
-1.42059,0.0610352,
-1.42975,0.0640869,
-1.43738,0.0488281,
-1.44348,0.0534058,
-1.45264,0.0564575,
-1.45721,0.062561,
-1.4679,0.0671387,
-1.474,0.0518799,
-1.48163,0.0518799,
-1.48163,0.0549316,
-1.48926,0.0579834,
-1.49231,0.062561,
-1.49841,0.0518799,
-1.49689,0.0534058,
-1.50299,0.0564575,
-1.51062,0.062561,
-1.5152,0.0640869,
-1.51978,0.0549316,
-1.52435,0.0564575,
-1.52588,0.0610352,
-1.52893,0.062561,
-1.52893,0.062561,
-1.53351,0.0518799,
-1.53961,0.050354,
-1.53961,0.0595093,
-1.54266,0.0640869,
-1.54877,0.0640869,
-1.55334,0.0518799,
-1.55487,0.0518799,
-1.55487,0.0579834,
-1.55792,0.0610352,
-1.5625,0.0671387,
-1.55945,0.0549316,
-1.55334,0.0534058,
-1.55334,0.0564575,
-1.54266,0.0671387,
-1.53961,0.062561,
-1.53656,0.0534058,
-1.5274,0.0534058,
-1.5152,0.0595093,
-1.50604,0.0671387,
-1.49384,0.0640869,
-1.48468,0.0549316,
-1.46942,0.0549316,
-1.45874,0.0564575,
-1.44806,0.062561,
-1.4328,0.062561,
-1.42212,0.0534058,
-1.40686,0.0534058,
-1.39618,0.0564575,
-1.38855,0.062561,
-1.37787,0.0640869,
-1.36871,0.0518799,
-1.35956,0.0549316,
-1.35345,0.0579834,
-1.34888,0.062561,
-1.3382,0.062561,
-1.33514,0.050354,
-1.32599,0.050354,
-1.31989,0.0579834,
-1.31378,0.062561,
-1.31073,0.0671387,
-1.3031,0.050354,
-1.297,0.0518799,
-1.29547,0.0579834,
-1.29089,0.0610352,
-1.28479,0.062561,
-1.27716,0.0534058,
-1.27106,0.0518799,
-1.26801,0.0564575,
-1.26495,0.0610352,
-1.26038,0.0671387,
-1.25732,0.0488281,
-1.25732,0.050354,
-1.25732,0.0549316,
-1.25275,0.0579834,
-1.25427,0.0640869,
-1.25732,0.0534058,
-1.25427,0.0518799,
-1.2558,0.0564575,
-1.25732,0.0595093,
-1.2558,0.0595093,
-1.25885,0.0534058,
-1.26495,0.050354,
-1.2619,0.0595093,
-1.2619,0.0595093,
-1.26648,0.0610352,
-1.26495,0.050354,
-1.27106,0.050354,
-1.27106,0.0579834,
-1.27716,0.0610352,
-1.27869,0.062561,
-1.28326,0.050354,
-1.28632,0.0534058,
-1.28632,0.0579834,
-1.28784,0.0595093,
-1.28784,0.0640869,
-1.28632,0.050354,
-1.28479,0.0457764,
-1.28174,0.0549316,
-1.28479,0.0564575,
-1.28021,0.0640869,
-1.28479,0.050354,
-1.28479,0.050354,
-1.28632,0.0564575,
-1.28326,0.0595093,
-1.28479,0.062561,
-1.28784,0.050354,
-1.28937,0.0518799,
-1.29089,0.0579834,
-1.29395,0.062561,
-1.29242,0.062561,
-1.29089,0.0518799,
-1.29089,0.0488281,
-1.28937,0.0564575,
-1.28632,0.062561,
-1.28632,0.0640869,
-1.28632,0.0518799,
-1.28479,0.050354,
-1.27869,0.0549316,
-1.28021,0.0610352,
-1.27869,0.0640869,
-1.28174,0.0518799,
-1.28021,0.050354,
-1.28174,0.0549316,
-1.27869,0.0595093,
-1.28021,0.062561,
-1.28174,0.0488281,
-1.27869,0.0518799,
-1.28021,0.0564575,
-1.28021,0.0610352,
-1.27869,0.062561,
-1.27716,0.0518799,
-1.27411,0.0488281,
-1.27869,0.0534058,
-1.28021,0.062561,
-1.28632,0.0640869,
-1.28784,0.050354,
-1.29089,0.050354,
-1.29089,0.0549316,
-1.29852,0.0610352,
-1.30005,0.0671387,
-1.30615,0.0518799,
-1.3092,0.0473022,
-1.31378,0.0549316,
-1.32294,0.0579834,
-1.32294,0.0671387,
-1.33362,0.050354,
-1.3382,0.0518799,
-1.34277,0.0579834,
-1.34735,0.0610352,
-1.35193,0.062561,
-1.35651,0.0518799,
-1.36261,0.0457764,
-1.37024,0.0549316,
-1.37482,0.0595093,
-1.38092,0.0610352,
-1.38397,0.0518799,
-1.38245,0.0473022,
-1.38397,0.0579834,
-1.39008,0.0595093,
-1.39313,0.0640869,
-1.39923,0.050354,
-1.40076,0.0457764,
-1.40381,0.0518799,
-1.41144,0.0564575,
-1.41754,0.062561,
-1.42212,0.0518799,
-1.42365,0.0427246,
-1.42975,0.0549316,
-1.43127,0.0610352,
-1.43585,0.062561,
-1.44196,0.050354,
-1.44653,0.0457764,
-1.45264,0.0534058,
-1.45874,0.0610352,
-1.46637,0.062561,
-1.47552,0.0473022,
-1.48163,0.0457764,
-1.49078,0.0534058,
-1.49384,0.0579834,
-1.49994,0.0610352,
-1.50452,0.050354,
-1.50909,0.0457764,
-1.5213,0.0549316,
-1.52588,0.0610352,
-1.53046,0.062561,
-1.53961,0.050354,
-1.55182,0.0457764,
-1.55334,0.0518799,
-1.5625,0.0610352,
-1.57013,0.0610352,
-1.57623,0.0518799,
-1.58386,0.0473022,
-1.58844,0.0549316,
-1.59454,0.0610352,
-1.60065,0.0671387,
-1.6098,0.0518799,
-1.62048,0.0473022,
-1.62506,0.0549316,
-1.62811,0.0595093,
-1.63574,0.0610352,
-1.63879,0.050354,
-1.64337,0.0457764,
-1.64948,0.0564575,
-1.66016,0.0610352,
-1.67084,0.0610352,
-1.67694,0.0534058,
-1.68304,0.0473022,
-1.69067,0.0564575,
-1.69525,0.062561,
-1.70746,0.0671387,
-1.70898,0.0534058,
-1.71204,0.0488281,
-1.71356,0.0549316,
-1.71051,0.0595093,
-1.70898,0.0640869,
-1.71204,0.050354,
-1.70898,0.0457764,
-1.70441,0.0549316,
-1.70288,0.062561,
-1.69373,0.0640869,
-1.68915,0.0534058,
-1.67542,0.0473022,
-1.66931,0.0549316,
-1.66321,0.0595093,
-1.64795,0.0595093,
-1.64032,0.0518799,
-1.62811,0.050354,
-1.61133,0.0473022,
-1.60065,0.0595093,
-1.58997,0.0610352,
-1.57776,0.0518799,
-1.56708,0.0473022,
-1.55792,0.0549316,
-1.54572,0.0595093,
-1.53656,0.062561,
-1.53046,0.0518799,
-1.52435,0.0488281,
-1.51672,0.050354,
-1.50909,0.0640869,
-1.50452,0.0640869,
-1.49841,0.0518799,
-1.49689,0.0457764,
-1.49231,0.0564575,
-1.48773,0.0595093,
-1.48926,0.062561,
-1.48621,0.050354,
-1.48621,0.0473022,
-1.48621,0.050354,
-1.48163,0.0549316,
-1.48315,0.0640869,
-1.48163,0.050354,
-1.48468,0.0457764,
-1.48468,0.0534058,
-1.48621,0.0595093,
-1.48621,0.0610352,
-1.48926,0.0534058,
-1.48621,0.0488281,
-1.48773,0.0534058,
-1.48926,0.0610352,
-1.49231,0.0640869,
-1.49078,0.0534058,
-1.49078,0.050354,
-1.49231,0.0549316,
-1.49078,0.062561,
-1.49078,0.0640869,
-1.48926,0.050354,
-1.48621,0.050354,
-1.48468,0.0534058,
-1.48468,0.062561,
-1.48468,0.0640869,
-1.48468,0.0534058,
-1.48621,0.050354,
-1.48468,0.0534058,
-1.48468,0.062561,
-1.48621,0.062561,
-1.49078,0.0534058,
-1.49384,0.050354,
-1.49689,0.0549316,
-1.50299,0.0595093,
-1.50604,0.0671387,
-1.51215,0.0534058,
-1.50909,0.0488281,
-1.5152,0.0549316,
-1.5152,0.0671387,
-1.5213,0.0610352,
-1.52588,0.0518799,
-1.52893,0.0518799,
-1.53198,0.0549316,
-1.53656,0.0640869,
-1.53046,0.0640869,
-1.52893,0.0534058,
-1.53198,0.050354,
-1.53198,0.0579834,
-1.52893,0.0610352,
-1.52588,0.062561,
-1.52588,0.0534058,
-1.5274,0.0534058,
-1.52588,0.0534058,
-1.52588,0.0610352,
-1.52435,0.0671387,
-1.52435,0.0534058,
-1.52283,0.0518799,
-1.5213,0.0564575,
-1.52588,0.0610352,
-1.52435,0.0640869,
-1.53198,0.0549316,
-1.52893,0.050354,
-1.52893,0.0549316,
-1.53046,0.062561,
-1.53198,0.0640869,
-1.53351,0.0518799,
-1.53198,0.0549316,
-1.53198,0.0564575,
-1.53351,0.0610352,
-1.53351,0.0610352,
-1.53656,0.0518799,
-1.53656,0.0534058,
-1.53656,0.0518799,
-1.53656,0.062561,
-1.54114,0.0610352,
-1.54572,0.0549316,
-1.55334,0.050354,
-1.55487,0.0534058,
-1.56097,0.0595093,
-1.56403,0.062561,
-1.57013,0.0534058,
-1.57623,0.0518799,
-1.58539,0.0549316,
-1.59149,0.062561,
-1.5976,0.0671387,
-1.60522,0.0534058,
-1.60675,0.0518799,
-1.61438,0.0534058,
-1.62354,0.0610352,
-1.63116,0.062561,
-1.63574,0.0518799,
-1.64337,0.0595093,
-1.64948,0.0534058,
-1.6571,0.0640869,
-1.66779,0.0610352,
-1.67389,0.0549316,
-1.68304,0.0549316,
-1.69678,0.0518799,
-1.70593,0.0640869,
-1.71204,0.0671387,
-1.72729,0.0549316,
-1.73035,0.0549316,
-1.73492,0.0549316,
-1.74408,0.0595093,
-1.75171,0.0610352,
-1.75781,0.0549316,
-1.75934,0.0518799,
-1.76697,0.0564575,
-1.7746,0.0610352,
-1.77612,0.062561,
-1.78528,0.0564575,
-1.79596,0.0579834,
-1.80206,0.0579834,
-1.80969,0.0671387,
-1.81732,0.062561,
-1.828,0.0518799,
-1.83411,0.0564575,
-1.84174,0.0564575,
-1.85089,0.0640869,
-1.85547,0.0640869,
-1.86615,0.0549316,
-1.87225,0.0564575,
-1.87836,0.0579834,
-1.88446,0.0610352,
-1.88751,0.0640869,
-1.89819,0.0549316,
-1.90125,0.0564575,
-1.9104,0.0549316,
-1.9165,0.062561,
-1.92108,0.0640869,
-1.93481,0.0564575,
-1.94092,0.0549316,
-1.94855,0.0564575,
-1.95465,0.0595093,
-1.96533,0.062561,
-1.97449,0.0549316,
-1.98212,0.0564575,
-1.98517,0.0564575,
-1.99585,0.0595093,
-2.00348,0.062561,
-2.00653,0.0534058,
-2.01111,0.0564575,
-2.01721,0.0564575,
-2.02179,0.062561,
-2.02484,0.0610352,
-2.03552,0.0518799,
-2.04163,0.0518799,
-2.04773,0.0534058,
-2.05231,0.0610352,
-2.05536,0.062561,
-2.05841,0.0549316,
-2.05994,0.0549316,
-2.06451,0.0579834,
-2.06451,0.062561,
-2.06604,0.0640869,
-2.05536,0.0549316,
-2.05231,0.0549316,
-2.04315,0.0534058,
-2.034,0.0595093,
-2.02179,0.0610352,
-2.00958,0.0549316,
-2.00043,0.0518799,
-1.98669,0.0549316,
-1.97449,0.0610352,
-1.96381,0.0610352,
-1.95007,0.0518799,
-1.93787,0.0518799,
-1.92108,0.0534058,
-1.90887,0.0640869,
-1.89667,0.0579834,
-1.88904,0.0534058,
-1.87683,0.0534058,
-1.8692,0.0534058,
-1.85242,0.0610352,
-1.84021,0.0595093,
-1.83258,0.0518799,
-1.82037,0.0549316,
-1.80817,0.0549316,
-1.80206,0.0610352,
-1.79749,0.0610352,
-1.79138,0.050354,
-1.78375,0.0564575,
-1.7807,0.0534058,
-1.77765,0.062561,
-1.77307,0.062561,
-1.77155,0.0534058,
-1.76697,0.0549316,
-1.76239,0.0549316,
-1.76086,0.0610352,
-1.75934,0.062561,
-1.76086,0.0549316,
-1.76086,0.0549316,
-1.75629,0.0564575,
-1.75629,0.0686646,
-1.75629,0.062561,
-1.76239,0.0564575,
-1.76086,0.0579834,
-1.75934,0.0564575,
-1.75629,0.062561,
-1.75171,0.062561,
-1.75171,0.0534058,
-1.74408,0.0595093,
-1.74408,0.0549316,
-1.74255,0.0610352,
-1.74255,0.0595093,
-1.7395,0.0534058,
-1.7395,0.0534058,
-1.73492,0.0564575,
-1.73645,0.0610352,
-1.73798,0.062561,
-1.7395,0.0549316,
-1.74561,0.0534058,
-1.74408,0.0564575,
-1.74713,0.0640869,
-1.74713,0.0610352,
-1.74713,0.0549316,
-1.75018,0.0549316,
-1.74408,0.0534058,
-1.75171,0.0671387,
-1.75781,0.0610352,
-1.76086,0.0534058,
-1.75781,0.0579834,
-1.75934,0.0534058,
-1.75629,0.0640869,
-1.75476,0.062561,
-1.75018,0.0518799,
-1.75018,0.0564575,
-1.74713,0.0549316,
-1.74713,0.062561,
-1.74561,0.062561,
-1.74255,0.0549316,
-1.7395,0.0564575,
-1.7395,0.0534058,
-1.7395,0.062561,
-1.73798,0.062561,
-1.73798,0.0518799,
-1.73798,0.0579834,
-1.74103,0.0549316,
-1.7395,0.0595093,
-1.7395,0.062561,
-1.74408,0.0534058,
-1.74408,0.0564575,
-1.74255,0.0579834,
-1.74103,0.0595093,
-1.74561,0.0640869,
-1.74866,0.0488281,
-1.75018,0.0579834,
-1.75629,0.0564575,
-1.75629,0.062561,
-1.75781,0.0610352,
-1.75629,0.0518799,
-1.75781,0.0564575,
-1.75476,0.0549316,
-1.75629,0.0595093,
-1.75629,0.062561,
-1.75476,0.0534058,
-1.75934,0.0579834,
-1.76086,0.0579834,
-1.76544,0.0595093,
-1.76849,0.0610352,
-1.7746,0.0564575,
-1.7807,0.0564575,
-1.78528,0.0595093,
-1.78986,0.0610352,
-1.79443,0.0595093,
-1.80206,0.0534058,
-1.80817,0.0579834,
-1.81274,0.0564575,
-1.81427,0.0610352,
-1.82037,0.0610352,
-1.828,0.0518799,
-1.83258,0.0564575,
-1.83716,0.0564575,
-1.84326,0.0610352,
-1.84784,0.0640869,
-1.85852,0.0549316,
-1.8631,0.0595093,
-1.87225,0.0579834,
-1.87988,0.0640869,
-1.88599,0.0640869,
-1.89362,0.0534058,
-1.89667,0.0579834,
-1.9043,0.0549316,
-1.90887,0.0595093,
-1.9165,0.0640869,
-1.92413,0.0549316,
-1.93024,0.0564575,
-1.93634,0.0564575,
-1.94397,0.0610352,
-1.9516,0.0686646,
-1.95618,0.0534058,
-1.95923,0.0595093,
-1.96991,0.0564575,
-1.97449,0.0595093,
-1.98059,0.0640869,
-1.98669,0.0564575,
-1.99127,0.0549316,
-1.99738,0.0564575,
-2.00653,0.0579834,
-2.01263,0.0671387,
-2.01569,0.0579834,
-2.02179,0.0595093,
-2.03247,0.0595093,
-2.04163,0.0595093,
-2.0462,0.062561,
-2.05688,0.0534058,
-2.06909,0.0564575,
-2.07672,0.0579834,
-2.08588,0.0640869,
-2.09503,0.062561,
-2.11029,0.0534058,
-2.11334,0.0549316,
-2.12555,0.0549316,
-2.13318,0.062561,
-2.13928,0.0640869,
-2.14844,0.0534058,
-2.15607,0.0579834,
-2.1698,0.0579834,
-2.17438,0.0610352,
-2.18353,0.062561,
-2.18964,0.0549316,
-2.19727,0.0549316,
-2.20795,0.0549316,
-2.21405,0.0640869,
-2.23083,0.0610352,
-2.23999,0.0534058,
-2.24762,0.0549316,
-2.2522,0.0564575,
-2.25983,0.0640869,
-2.27051,0.062561,
-2.27814,0.0534058,
-2.28577,0.0534058,
-2.29187,0.0549316,
-2.2995,0.062561,
-2.30865,0.0640869,
-2.31171,0.0549316,
-2.31781,0.0534058,
-2.32086,0.0549316,
-2.32697,0.0610352,
-2.32849,0.062561,
-2.33307,0.0534058,
-2.33002,0.0564575,
-2.32849,0.0579834,
-2.32239,0.0610352,
-2.31628,0.062561,
-2.30865,0.0534058,
-2.30103,0.0579834,
-2.29187,0.0564575,
-2.27966,0.062561,
-2.26746,0.062561,
-2.2583,0.0534058,
-2.24152,0.0534058,
-2.23389,0.0579834,
-2.22015,0.0610352,
-2.211,0.0610352,
-2.20337,0.0549316,
-2.19421,0.0549316,
-2.18506,0.0579834,
-2.17896,0.062561,
-2.17133,0.0640869,
-2.16217,0.0549316,
-2.15454,0.0534058,
-2.14844,0.0579834,
-2.13776,0.062561,
-2.13623,0.0610352,
-2.12555,0.0549316,
-2.11945,0.0579834,
-2.11639,0.0579834,
-2.11334,0.0579834,
-2.11334,0.0686646,
-2.10876,0.0549316,
-2.10724,0.0534058,
-2.10724,0.0595093,
-2.10571,0.0640869,
-2.10571,0.062561,
-2.10571,0.0534058,
-2.10419,0.0564575,
-2.10114,0.0564575,
-2.09503,0.0595093,
-2.09656,0.0640869,
-2.09351,0.0564575,
-2.09045,0.0549316,
-2.09198,0.0579834,
-2.09503,0.0595093,
-2.09503,0.0671387,
-2.10114,0.0564575,
-2.10114,0.0564575,
-2.10724,0.0579834,
-2.11029,0.0595093,
-2.11334,0.0640869,
-2.11639,0.0564575,
-2.1225,0.0534058,
-2.12555,0.0564575,
-2.13013,0.062561,
-2.1347,0.0610352,
-2.13776,0.0534058,
-2.14081,0.0518799,
-2.14539,0.0595093,
-2.14539,0.0595093,
-2.14844,0.062561,
-2.14996,0.0564575,
-2.14996,0.0579834,
-2.15607,0.0595093,
-2.15302,0.062561,
-2.15454,0.0640869,
-2.15759,0.0534058,
-2.16064,0.0518799,
-2.16217,0.0549316,
-2.16217,0.062561,
-2.16217,0.0640869,
-2.1637,0.0564575,
-2.16217,0.0534058,
-2.16827,0.0564575,
-2.16217,0.0579834,
-2.1637,0.0610352,
-2.16827,0.0534058,
-2.1698,0.0549316,
-2.1698,0.0564575,
-2.1637,0.0579834,
-2.1698,0.062561,
-2.16827,0.050354,
-2.16827,0.0518799,
-2.16522,0.0564575,
-2.1637,0.0595093,
-2.16827,0.062561,
-2.1698,0.0579834,
-2.17285,0.050354,
-2.17438,0.0549316,
-2.17285,0.0579834,
-2.17133,0.062561,
-2.1759,0.0518799,
-2.17743,0.0488281,
-2.17743,0.0564575,
-2.18201,0.062561,
-2.18048,0.062561,
-2.18353,0.0534058,
-2.18506,0.0534058,
-2.18811,0.0549316,
-2.18506,0.062561,
-2.19116,0.0640869,
-2.19574,0.0549316,
-2.19421,0.0534058,
-2.20337,0.0549316,
-2.20184,0.0610352,
-2.20642,0.062561,
-2.20795,0.0549316,
-2.20947,0.0549316,
-2.20795,0.0549316,
-2.2171,0.062561,
-2.22168,0.062561,
-2.22321,0.0534058,
-2.22931,0.050354,
-2.23846,0.0564575,
-2.24304,0.0579834,
-2.24609,0.0671387,
-2.25372,0.0564575,
-2.2583,0.050354,
-2.26135,0.0595093,
-2.26746,0.0595093,
-2.27509,0.0686646,
-2.27966,0.0534058,
-2.28577,0.0564575,
-2.29034,0.0534058,
-2.2934,0.062561,
-2.29797,0.0640869,
-2.30255,0.0579834,
-2.30865,0.0549316,
-2.31018,0.0564575,
-2.31323,0.0671387,
-2.31781,0.0671387,
-2.32086,0.0564575,
-2.32544,0.050354,
-2.33154,0.0595093,
-2.33307,0.062561,
-2.3407,0.0686646,
-2.34375,0.0549316,
-2.34222,0.0534058,
-2.34528,0.0595093,
-2.34833,0.0640869,
-2.35291,0.062561,
-2.35443,0.0534058,
-2.35901,0.0488281,
-2.36511,0.0579834,
-2.36969,0.0610352,
-2.37732,0.0671387,
-2.38037,0.0564575,
-2.38342,0.0518799,
-2.388,0.0564575,
-2.3941,0.0595093,
-2.40326,0.0610352,
-2.40936,0.0579834,
-2.41699,0.0518799,
-2.42157,0.0564575,
-2.4231,0.0610352,
-2.43225,0.0610352,
-2.43378,0.0564575,
-2.43988,0.050354,
-2.44446,0.0564575,
-2.45056,0.0595093,
-2.46124,0.0610352,
-2.46277,0.0549316,
-2.46735,0.0457764,
-2.47192,0.0579834,
-2.47345,0.0579834,
-2.47955,0.0640869,
-2.48413,0.0534058,
-2.48871,0.0518799,
-2.49634,0.0534058,
-2.49786,0.0640869,
-2.50092,0.0610352,
-2.50549,0.0564575,
-2.50854,0.050354,
-2.51465,0.0564575,
-2.51312,0.062561,
-2.51923,0.0640869,
-2.52533,0.0534058,
-2.52838,0.0518799,
-2.53296,0.0579834,
-2.53143,0.0595093,
-2.53601,0.0640869,
-2.53296,0.0534058,
-2.53296,0.050354,
-2.53601,0.0564575,
-2.53448,0.0640869,
-2.53143,0.062561,
-2.52838,0.0564575,
-2.51923,0.0518799,
-2.51312,0.0579834,
-2.50244,0.0640869,
-2.49481,0.0640869,
-2.48566,0.0579834,
-2.47955,0.0518799,
-2.46887,0.0579834,
-2.45972,0.062561,
-2.44751,0.0686646,
-2.43988,0.0579834,
-2.43073,0.0534058,
-2.42004,0.0564575,
-2.41547,0.0640869,
-2.40326,0.0640869,
-2.39716,0.0534058,
-2.39258,0.0518799,
-2.38342,0.0610352,
-2.3819,0.0595093,
-2.37732,0.062561,
-2.37427,0.0579834,
-2.37122,0.050354,
-2.36816,0.0610352,
-2.36511,0.0610352,
-2.36511,0.062561,
-2.36053,0.0595093,
-2.35748,0.050354,
-2.35901,0.0579834,
-2.35443,0.0640869,
-2.35596,0.0640869,
-2.35596,0.0564575,
-2.35138,0.0518799,
-2.35138,0.0549316,
-2.35138,0.062561,
-2.3468,0.0640869,
-2.34833,0.0549316,
-2.34528,0.0488281,
-2.34222,0.0579834,
-2.34375,0.062561,
-2.34222,0.0640869,
-2.34222,0.0549316,
-2.33612,0.050354,
-2.3407,0.0579834,
-2.33917,0.0610352,
-2.33612,0.0640869,
-2.33612,0.0549316,
-2.33612,0.0488281,
-2.33612,0.0564575,
-2.33612,0.0640869,
-2.33612,0.0640869,
-2.33917,0.0549316,
-2.33612,0.0534058,
-2.33612,0.0610352,
-2.33917,0.0610352,
-2.34222,0.0640869,
-2.3468,0.0534058,
-2.3468,0.0473022,
-2.35291,0.0534058,
-2.35138,0.062561,
-2.35596,0.0640869,
-2.35901,0.0564575,
-2.36206,0.050354,
-2.36511,0.0564575,
-2.36359,0.062561,
-2.37122,0.0610352,
-2.37122,0.0549316,
-2.37732,0.050354,
-2.37732,0.0534058,
-2.3819,0.0610352,
-2.3819,0.0640869,
-2.3819,0.0549316,
-2.37885,0.0488281,
-2.37579,0.0579834,
-2.37732,0.062561,
-2.37579,0.0640869,
-2.37732,0.0564575,
-2.38342,0.0488281,
-2.38495,0.0549316,
-2.38342,0.062561,
-2.38342,0.062561,
-2.388,0.0564575,
-2.38953,0.0488281,
-2.38647,0.0549316,
-2.3819,0.0595093,
-2.3819,0.0640869,
-2.37885,0.0564575,
-2.37732,0.0473022,
-2.37579,0.0549316,
-2.37732,0.0640869,
-2.37732,0.0671387,
-2.37885,0.0549316,
-2.37885,0.0488281,
-2.37885,0.0564575,
-2.3819,0.0610352,
-2.38342,0.0640869,
-2.38495,0.0564575,
-2.388,0.0473022,
-2.388,0.0564575,
-2.388,0.062561,
-2.388,0.0640869,
-2.3941,0.0549316,
-2.39258,0.0473022,
-2.39105,0.0564575,
-2.39105,0.0595093,
-2.39563,0.0640869,
-2.38953,0.0564575,
-2.39868,0.0457764,
-2.39716,0.0564575,
-2.39716,0.0595093,
-2.40021,0.0671387,
-2.40631,0.0549316,
-2.41089,0.0457764,
-2.41394,0.0564575,
-2.41699,0.0640869,
-2.42004,0.0671387,
-2.42004,0.0579834,
-2.42615,0.0488281,
-2.4292,0.0549316,
-2.43225,0.0564575,
-2.43378,0.0640869,
-2.44293,0.0564575,
-2.43988,0.0473022,
-2.44293,0.0564575,
-2.44598,0.0610352,
-2.45209,0.062561,
-2.45514,0.0564575,
-2.46124,0.0488281,
-2.46582,0.0579834,
-2.46887,0.0579834,
-2.47345,0.0610352,
-2.48871,0.0534058,
-2.48871,0.0442505,
-2.49329,0.0564575,
-2.49939,0.062561,
-2.49939,0.0640869,
-2.50092,0.0518799,
-2.50397,0.0488281,
-2.50854,0.0534058,
-2.51312,0.0564575,
-2.51617,0.0640869,
-2.51923,0.0564575,
-2.52228,0.0457764,
-2.52686,0.0595093,
-2.52838,0.062561,
-2.53143,0.0610352,
-2.53143,0.0534058,
-2.53601,0.0457764,
-2.54059,0.0549316,
-2.54364,0.0579834,
-2.54364,0.0610352,
-2.54974,0.0564575,
-2.55127,0.0473022,
-2.5528,0.0579834,
-2.54974,0.0595093,
-2.54974,0.0610352,
-2.54974,0.0549316,
-2.55127,0.0457764,
-2.5528,0.0564575,
-2.55432,0.0595093,
-2.55737,0.0640869,
-2.55432,0.0564575,
-2.55737,0.0457764,
-2.55585,0.0549316,
-2.5589,0.0595093,
-2.56195,0.0671387,
-2.56653,0.0518799,
-2.56958,0.0473022,
-2.58026,0.0564575,
-2.58331,0.0640869,
-2.58789,0.0595093,
-2.59094,0.0549316,
-2.59094,0.0457764,
-2.59399,0.0549316,
-2.59247,0.0595093,
-2.59399,0.0671387,
-2.59552,0.0579834,
-2.59552,0.0457764,
-2.59857,0.0564575,
-2.6001,0.0595093,
-2.60315,0.0640869,
-2.60162,0.0579834,
-2.60162,0.0442505,
-2.59552,0.0549316,
-2.59094,0.0610352,
-2.58789,0.062561,
-2.58026,0.0579834,
-2.57111,0.0442505,
-2.565,0.0564575,
-2.55432,0.0640869,
-2.53906,0.0671387,
-2.52838,0.0549316,
-2.51312,0.0442505,
-2.49634,0.0549316,
-2.49023,0.0595093,
-2.47803,0.062561,
-2.46429,0.0534058,
-2.45667,0.0488281,
-2.44446,0.0579834,
-2.4353,0.0640869,
-2.42615,0.0640869,
-2.41699,0.0595093,
-2.40936,0.0457764,
-2.40173,0.0549316,
-2.39868,0.0579834,
-2.39716,0.0686646,
-2.39105,0.0564575,
-2.38647,0.0457764,
-2.3819,0.0564575,
-2.38037,0.0595093,
-2.37732,0.0610352,
-2.37579,0.0564575,
-2.37579,0.0442505,
-2.36969,0.0518799,
-2.37579,0.0610352,
-2.36816,0.0610352,
-2.36969,0.0579834,
-2.37427,0.0442505,
-2.37122,0.0534058,
-2.37579,0.0610352,
-2.37579,0.0671387,
-2.37427,0.0534058,
-2.36969,0.0473022,
-2.36664,0.0579834,
-2.36816,0.0595093,
-2.36969,0.0640869,
-2.36816,0.0564575,
-2.37122,0.0427246,
-2.36969,0.0579834,
-2.37427,0.0579834,
-2.37885,0.062561,
-2.38037,0.0549316,
-2.3819,0.0457764,
-2.38342,0.0579834,
-2.38495,0.0610352,
-2.38342,0.0640869,
-2.3819,0.0549316,
-2.38342,0.0457764,
-2.38342,0.0579834,
-2.38342,0.0595093,
-2.38495,0.0671387,
-2.38647,0.0564575,
-2.38953,0.0457764,
-2.39105,0.0534058,
-2.39105,0.0610352,
-2.39258,0.0640869,
-2.39105,0.0549316,
-2.38953,0.0473022,
-2.39258,0.0595093,
-2.39258,0.0595093,
-2.3941,0.0671387,
-2.39716,0.0564575,
-2.39868,0.0473022,
-2.39868,0.0564575,
-2.40021,0.0579834,
-2.40173,0.0671387,
-2.40326,0.0579834,
-2.40173,0.0473022,
-2.40326,0.0595093,
-2.40479,0.062561,
-2.40479,0.0640869,
-2.40479,0.0595093,
-2.40631,0.0473022,
-2.40326,0.0564575,
-2.40631,0.062561,
-2.41241,0.0640869,
-2.41241,0.0579834,
-2.40936,0.0457764,
-2.40631,0.062561,
-2.40326,0.0595093,
-2.39868,0.0671387,
-2.40021,0.0564575,
-2.40021,0.0457764,
-2.40021,0.0579834,
-2.39868,0.0579834,
-2.39868,0.0686646,
-2.40173,0.0564575,
-2.39868,0.0473022,
-2.3941,0.0549316,
-2.39563,0.0595093,
-2.39105,0.0640869,
-2.3941,0.0564575,
-2.3941,0.0457764,
-2.39716,0.0595093,
-2.39563,0.0671387,
-2.3941,0.0671387,
-2.39716,0.0549316,
-2.39258,0.0473022,
-2.39716,0.0595093,
-2.39868,0.0610352,
-2.39868,0.0640869,
-2.40021,0.0579834,
-2.40479,0.0442505,
-2.40479,0.0595093,
-2.40631,0.0595093,
-2.40936,0.062561,
-2.41547,0.0564575,
-2.41699,0.0442505,
-2.42004,0.0579834,
-2.42157,0.0610352,
-2.42157,0.0671387,
-2.42462,0.0579834,
-2.42767,0.0442505,
-2.43225,0.0610352,
-2.4353,0.0579834,
-2.43683,0.0671387,
-2.43683,0.0549316,
-2.44598,0.0457764,
-2.44446,0.0534058,
-2.45361,0.0534058,
-2.45209,0.0640869,
-2.45972,0.0534058,
-2.45514,0.0457764,
-2.45667,0.0564575,
-2.45514,0.0610352,
-2.45514,0.062561,
-2.45514,0.0564575,
-2.45819,0.0427246,
-2.45667,0.0579834,
-2.45667,0.0610352,
-2.45819,0.062561,
-2.46277,0.0534058,
-2.46887,0.0442505,
-2.47192,0.0564575,
-2.47955,0.0610352,
-2.47803,0.0640869,
-2.47955,0.0549316,
-2.4826,0.0457764,
-2.48566,0.0564575,
-2.49023,0.0595093,
-2.49329,0.0640869,
-2.49481,0.0564575,
-2.49939,0.0442505,
-2.49481,0.0549316,
-2.50092,0.0579834,
-2.50397,0.0671387,
-2.50092,0.0595093,
-2.50397,0.0473022,
-2.50702,0.0549316,
-2.50854,0.0610352,
-2.50854,0.062561,
-2.51312,0.0564575,
-2.51617,0.0427246,
-2.51465,0.0549316,
-2.51923,0.062561,
-2.5177,0.062561,
-2.51923,0.0534058,
-2.52228,0.0442505,
-2.5238,0.0564575,
-2.52686,0.0640869,
-2.52991,0.0610352,
-2.53448,0.0579834,
-2.53448,0.0457764,
-2.53296,0.0564575,
-2.53296,0.0610352,
-2.53143,0.0640869,
-2.53296,0.0564575,
-2.53296,0.0427246,
-2.53601,0.0564575,
-2.53754,0.0640869,
-2.54059,0.0640869,
-2.54059,0.0579834,
-2.53906,0.0457764,
-2.53906,0.0579834,
-2.54059,0.062561,
-2.54059,0.0640869,
-2.54669,0.0564575,
-2.54364,0.0473022,
-2.54211,0.0579834,
-2.53906,0.062561,
-2.53448,0.0640869,
-2.52686,0.0534058,
-2.52075,0.0473022,
-2.5116,0.0549316,
-2.49939,0.062561,
-2.48718,0.0610352,
-2.47498,0.0549316,
-2.46429,0.0442505,
-2.45361,0.0534058,
-2.44293,0.0595093,
-2.4231,0.062561,
-2.41547,0.0549316,
-2.40479,0.0427246,
-2.39716,0.0534058,
-2.388,0.0595093,
-2.38037,0.062561,
-2.37579,0.0549316,
-2.36969,0.0457764,
-2.35901,0.0564575,
-2.35291,0.0610352,
-2.3468,0.062561,
-2.34222,0.0564575,
-2.33917,0.0411987,
-2.32849,0.0534058,
-2.31781,0.062561,
-2.31018,0.062561,
-2.3056,0.0579834,
-2.29492,0.0442505,
-2.29034,0.0518799,
-2.28424,0.062561,
-2.28119,0.0610352,
-2.27356,0.050354,
-2.27356,0.0442505,
-2.26593,0.0534058,
-2.26593,0.062561,
-2.25983,0.062561,
-2.25677,0.0564575,
-2.25372,0.0427246,
-2.25372,0.0534058,
-2.24915,0.0595093,
-2.24915,0.062561,
-2.24609,0.0549316,
-2.24457,0.0457764,
-2.24304,0.0595093,
-2.23999,0.0610352,
-2.23694,0.0610352,
-2.23694,0.0534058,
-2.23694,0.0457764,
-2.23389,0.0549316,
-2.23236,0.0564575,
-2.23846,0.062561,
-2.23694,0.0549316,
-2.23846,0.0457764,
-2.23999,0.0564575,
-2.24304,0.0579834,
-2.24457,0.062561,
-2.24457,0.0534058,
-2.24304,0.0457764,
-2.24762,0.0534058,
-2.24762,0.0579834,
-2.24915,0.0640869,
-2.25067,0.0595093,
-2.24915,0.0457764,
-2.24915,0.0549316,
-2.25525,0.0595093,
-2.2522,0.0640869,
-2.2522,0.0564575,
-2.25525,0.0457764,
-2.25525,0.0564575,
-2.25677,0.0610352,
-2.2583,0.062561,
-2.25525,0.0564575,
-2.25677,0.0457764,
-2.25525,0.0579834,
-2.25983,0.0610352,
-2.2583,0.062561,
-2.26288,0.0579834,
-2.25677,0.0473022,
-2.25525,0.0534058,
-2.25677,0.062561,
-2.2522,0.062561,
-2.25067,0.0595093,
-2.24762,0.0457764,
-2.24457,0.0595093,
-2.24609,0.062561,
-2.24457,0.0671387,
-2.24609,0.0595093,
-2.24152,0.0427246,
-2.24304,0.0549316,
-2.24152,0.0610352,
-2.24152,0.0671387,
-2.24304,0.0549316,
-2.24457,0.0457764,
-2.24609,0.0564575,
-2.24457,0.062561,
-2.24915,0.0686646,
-2.24762,0.0564575,
-2.25067,0.0473022,
-2.2522,0.0564575,
-2.2522,0.062561,
-2.25372,0.0640869,
-2.2522,0.0549316,
-2.24915,0.0427246,
-2.2522,0.0549316,
-2.25067,0.0595093,
-2.25525,0.062561,
-2.2522,0.0549316,
-2.25525,0.0473022,
-2.25677,0.0549316,
-2.25677,0.0610352,
-2.25525,0.062561,
-2.25525,0.0549316,
-2.25372,0.0442505,
-2.26135,0.0564575,
-2.26288,0.0595093,
-2.2644,0.062561,
-2.27203,0.0579834,
-2.27051,0.0473022,
-2.27356,0.0534058,
-2.27509,0.0595093,
-2.27509,0.0640869,
-2.27966,0.0564575,
-2.27966,0.0488281,
-2.27814,0.0534058,
-2.28119,0.0610352,
-2.28271,0.062561,
-2.28882,0.0564575,
-2.28882,0.0488281,
-2.2934,0.0549316,
-2.29797,0.0564575,
-2.29797,0.0640869,
-2.30255,0.0610352,
-2.3056,0.0457764,
-2.30713,0.0579834,
-2.30865,0.0564575,
-2.30713,0.0640869,
-2.31171,0.0579834,
-2.31018,0.0457764,
-2.31323,0.0610352,
-2.31323,0.0610352,
-2.31171,0.062561,
-2.31476,0.0595093,
-2.31781,0.0457764,
-2.32086,0.0579834,
-2.32086,0.0610352,
-2.32239,0.0640869,
-2.33002,0.0595093,
-2.32849,0.0488281,
-2.33002,0.0579834,
-2.33307,0.0595093,
-2.33459,0.062561,
-2.33917,0.0595093,
-2.3407,0.0488281,
-2.34528,0.0595093,
-2.34375,0.062561,
-2.34528,0.062561,
-2.34985,0.062561,
-2.35443,0.0518799,
-2.35748,0.0549316,
-2.35748,0.0579834,
-2.35901,0.0640869,
-2.36053,0.0595093,
-2.36053,0.050354,
-2.36206,0.0595093,
-2.36511,0.062561,
-2.36511,0.0671387,
-2.36511,0.0595093,
-2.37122,0.0488281,
-2.37427,0.0564575,
-2.37579,0.062561,
-2.37885,0.0640869,
-2.3819,0.0595093,
-2.38495,0.050354,
-2.388,0.0564575,
-2.388,0.0610352,
-2.388,0.0640869,
-2.39258,0.0564575,
-2.3941,0.050354,
-2.40173,0.0564575,
-2.40326,0.0595093,
-2.41089,0.062561,
-2.41547,0.0610352,
-2.42004,0.0473022,
-2.42004,0.0579834,
-2.42615,0.062561,
-2.4231,0.0671387,
-2.42004,0.0579834,
-2.41547,0.0488281,
-2.41394,0.0610352,
-2.40631,0.0595093,
-2.39868,0.0640869,
-2.38953,0.0595093,
-2.3819,0.0488281,
-2.36969,0.0595093,
-2.36053,0.0610352,
-2.35138,0.062561,
-2.34222,0.0579834,
-2.33002,0.050354,
-2.32239,0.0549316,
-2.31323,0.062561,
-2.30865,0.062561,
-2.2995,0.0564575,
-2.2934,0.0518799,
-2.28882,0.0564575,
-2.28424,0.0610352,
-2.28119,0.062561,
-2.27814,0.0564575,
-2.27203,0.0488281,
-2.27356,0.0564575,
-2.27661,0.0595093,
-2.27814,0.062561,
-2.28119,0.0595093,
-2.27966,0.0473022,
-2.28119,0.0564575,
-2.28271,0.0610352,
-2.28424,0.062561,
-2.28577,0.0579834,
-2.28424,0.050354,
-2.28577,0.0564575,
-2.28729,0.0610352,
-2.28577,0.062561,
-2.29034,0.0579834,
-2.29034,0.0473022,
-2.29187,0.0595093,
-2.29797,0.062561,
-2.2995,0.0671387,
-2.2995,0.0564575,
-2.30255,0.050354,
-2.30255,0.0564575,
-2.30713,0.0640869,
-2.30713,0.0671387,
-2.30865,0.0595093,
-2.31323,0.050354,
-2.31934,0.0595093,
-2.32086,0.0610352,
-2.32697,0.0640869,
-2.32697,0.0610352,
-2.32697,0.0488281,
-2.32544,0.0564575,
-2.32544,0.062561,
-2.32849,0.0640869,
-2.32697,0.0564575,
-2.32849,0.0534058,
-2.32697,0.0595093,
-2.32391,0.0595093,
-2.32239,0.0686646,
-2.32086,0.0595093,
-2.31934,0.0534058,
-2.31934,0.0564575,
-2.31934,0.062561,
-2.32239,0.0595093,
-2.32086,0.0610352,
-2.32391,0.0488281,
-2.33002,0.0579834,
-2.33002,0.0610352,
-2.33612,0.0640869,
-2.33612,0.0610352,
-2.34222,0.0488281,
-2.34222,0.0549316,
-2.34222,0.062561,
-2.33917,0.062561,
-2.33612,0.0610352,
-2.33612,0.050354,
-2.33612,0.0564575,
-2.3407,0.0610352,
-2.34222,0.0640869,
-2.3407,0.0564575,
-2.34222,0.0473022,
-2.33612,0.0564575,
-2.33612,0.0579834,
-2.33459,0.0640869,
-2.33307,0.0564575,
-2.33002,0.0473022,
-2.32849,0.0579834,
-2.32697,0.0610352,
-2.32239,0.062561,
-2.32544,0.0610352,
-2.32544,0.0488281,
-2.32391,0.0549316,
-2.32697,0.0610352,
-2.32391,0.0610352,
-2.32697,0.0579834,
-2.32697,0.0518799,
-2.32544,0.0579834,
-2.32391,0.0595093,
-2.32849,0.062561,
-2.32391,0.0595093,
-2.32391,0.0473022,
-2.31781,0.0579834,
-2.32086,0.062561,
-2.32086,0.062561,
-2.32391,0.0564575,
-2.32239,0.0488281,
-2.32086,0.0564575,
-2.32239,0.0610352,
-2.32239,0.0610352,
-2.32697,0.0564575,
-2.33002,0.050354,
-2.32849,0.0579834,
-2.32849,0.062561,
-2.33459,0.0595093,
-2.33917,0.0579834,
-2.34222,0.0549316,
-2.34222,0.0595093,
-2.34222,0.062561,
-2.34528,0.0640869,
-2.34985,0.0579834,
-2.34833,0.0549316,
-2.34985,0.0564575,
-2.34833,0.0595093,
-2.35291,0.0640869,
-2.35443,0.0595093,
-2.34985,0.0488281,
-2.35291,0.0579834,
-2.35291,0.062561,
-2.35596,0.062561,
-2.35596,0.062561,
-2.35443,0.0549316,
-2.35443,0.0610352,
-2.35596,0.062561,
-2.35596,0.062561,
-2.36053,0.0595093,
-2.36511,0.0518799,
-2.36816,0.0579834,
-2.37427,0.0595093,
-2.37732,0.0640869,
-2.37732,0.0595093,
-2.37885,0.050354,
-2.38037,0.0579834,
-2.38495,0.0610352,
-2.38953,0.0671387,
-2.39105,0.0610352,
-2.3941,0.0534058,
-2.3941,0.0579834,
-2.39716,0.062561,
-2.40021,0.0640869,
-2.40479,0.0595093,
-2.40631,0.050354,
-2.41394,0.0564575,
-2.41547,0.0610352,
-2.41852,0.0671387,
-2.41547,0.0595093,
-2.41699,0.0488281,
-2.41852,0.0564575,
-2.41699,0.0595093,
-2.41852,0.0671387,
-2.42157,0.0595093,
-2.42615,0.0534058,
-2.42615,0.0579834,
-2.43073,0.0595093,
-2.4353,0.0640869,
-2.43378,0.0579834,
-2.43378,0.0488281,
-2.43683,0.0595093,
-2.43378,0.0595093,
-2.43683,0.0640869,
-2.43988,0.0564575,
-2.43835,0.0518799,
-2.43835,0.0579834,
-2.43988,0.0595093,
-2.4353,0.062561,
-2.43988,0.0579834,
-2.4353,0.0534058,
-2.4353,0.0564575,
-2.43378,0.062561,
-2.43073,0.062561,
-2.4292,0.0595093,
-2.42462,0.0534058,
-2.42157,0.0564575,
-2.41699,0.0610352,
-2.41089,0.062561,
-2.40479,0.0595093,
-2.39868,0.0488281,
-2.38953,0.0549316,
-2.38495,0.0610352,
-2.37579,0.0640869,
-2.36969,0.0564575,
-2.35901,0.0518799,
-2.34833,0.0595093,
-2.34222,0.062561,
-2.33002,0.0671387,
-2.32086,0.0610352,
-2.30865,0.0518799,
-2.29492,0.0564575,
-2.28882,0.062561,
-2.27509,0.0686646,
-2.26593,0.0595093,
-2.25983,0.0518799,
-2.25525,0.0564575,
-2.25372,0.062561,
-2.25067,0.062561,
-2.24915,0.0595093,
-2.24915,0.0534058,
-2.24915,0.0610352,
-2.24762,0.0610352,
-2.24609,0.0671387,
-2.25067,0.0610352,
-2.2522,0.0549316,
-2.24915,0.0595093,
-2.24457,0.0671387,
-2.24152,0.0686646,
-2.23846,0.0595093,
-2.23846,0.0549316,
-2.23694,0.0610352,
-2.23999,0.062561,
-2.24152,0.062561,
-2.23999,0.0610352,
-2.24304,0.0579834,
-2.24152,0.0595093,
-2.23846,0.062561,
-2.23236,0.0640869,
-2.23083,0.0640869,
-2.22626,0.050354,
-2.22473,0.0579834,
-2.22168,0.062561,
-2.21863,0.0671387,
-2.21558,0.0595093,
-2.21405,0.0534058,
-2.211,0.0564575,
-2.20795,0.0640869,
-2.21252,0.0640869,
-2.21252,0.0595093,
-2.21558,0.0549316,
-2.21863,0.0579834,
-2.21863,0.0640869,
-2.22168,0.0640869,
-2.22168,0.062561,
-2.22015,0.0534058,
-2.22473,0.0579834,
-2.22473,0.062561,
-2.22778,0.0671387,
-2.22778,0.0579834,
-2.22778,0.0534058,
-2.22473,0.0549316,
-2.22168,0.0595093,
-2.22321,0.0640869,
-2.21863,0.0595093,
-2.2171,0.0518799,
-2.2171,0.0579834,
-2.21558,0.0595093,
-2.21405,0.0640869,
-2.21252,0.0595093,
-2.20947,0.050354,
-2.20795,0.0579834,
-2.20337,0.062561,
-2.20642,0.0640869,
-2.20337,0.0595093,
-2.20184,0.0534058,
-2.19879,0.0549316,
-2.19574,0.062561,
-2.19269,0.0686646,
-2.19116,0.0595093,
-2.19574,0.0518799,
-2.18964,0.0564575,
-2.19421,0.0610352,
-2.19421,0.0640869,
-2.20184,0.0595093,
-2.19879,0.050354,
-2.20184,0.0564575,
-2.2049,0.062561,
-2.20337,0.0671387,
-2.2049,0.0579834,
-2.2049,0.0549316,
-2.19421,0.0595093,
-2.19421,0.0579834,
-2.19269,0.0640869,
-2.19116,0.0610352,
-2.19116,0.0549316,
-2.19269,0.0595093,
-2.19574,0.062561,
-2.19421,0.0595093,
-2.19574,0.0595093,
-2.19269,0.0564575,
-2.19574,0.0564575,
-2.19727,0.0610352,
-2.19879,0.0671387,
-2.20337,0.0610352,
-2.20337,0.0549316,
-2.20795,0.0564575,
-2.20947,0.062561,
-2.211,0.0640869,
-2.21252,0.0595093,
-2.2171,0.0518799,
-2.21863,0.0564575,
-2.22168,0.062561,
-2.22473,0.0640869,
-2.22626,0.0595093,
-2.22626,0.0518799,
-2.22778,0.0564575,
-2.22931,0.0640869,
-2.23389,0.0640869,
-2.24152,0.0610352,
-2.24762,0.0534058,
-2.24762,0.0610352,
-2.24915,0.062561,
-2.2583,0.0671387,
-2.2583,0.0595093,
-2.26288,0.050354,
-2.26593,0.0564575,
-2.26593,0.0595093,
-2.27051,0.062561,
-2.27051,0.0579834,
-2.27051,0.0549316,
-2.27203,0.0564575,
-2.27051,0.0671387,
-2.27356,0.0640869,
-2.27509,0.0610352,
-2.27814,0.0534058,
-2.27661,0.0564575,
-2.28271,0.0640869,
-2.28119,0.062561,
-2.27814,0.0579834,
-2.28424,0.0549316,
-2.28119,0.0579834,
-2.28577,0.0610352,
-2.28882,0.0610352,
-2.28882,0.0579834,
-2.28882,0.0549316,
-2.29492,0.0579834,
-2.29797,0.0610352,
-2.29797,0.062561,
-2.2995,0.0610352,
-2.30255,0.0518799,
-2.30103,0.0579834,
-2.30713,0.0610352,
-2.31476,0.062561,
-2.31628,0.0579834,
-2.31781,0.0534058,
-2.31476,0.0564575,
-2.31628,0.0595093,
-2.31628,0.062561,
-2.31934,0.0579834,
-2.32391,0.0518799,
-2.32391,0.0564575,
-2.32391,0.0579834,
-2.32697,0.0610352,
-2.33307,0.0564575,
-2.33612,0.050354,
-2.33307,0.0595093,
-2.33917,0.0610352,
-2.33612,0.062561,
-2.34375,0.0579834,
-2.3468,0.050354,
-2.34833,0.0549316,
-2.35596,0.0595093,
-2.36053,0.0640869,
-2.36664,0.0579834,
-2.36816,0.0549316,
-2.36969,0.0595093,
-2.37122,0.0640869,
-2.37122,0.0610352,
-2.36969,0.0579834,
-2.36511,0.0518799,
-2.36053,0.0549316,
-2.35596,0.0610352,
-2.34833,0.062561,
-2.34222,0.0579834,
-2.33307,0.0564575,
-2.32239,0.0564575,
-2.31476,0.062561,
-2.30255,0.062561,
-2.29034,0.062561,
-2.28271,0.0534058,
-2.26746,0.0579834,
-2.25525,0.062561,
-2.24762,0.0640869,
-2.24152,0.0610352,
-2.22931,0.0549316,
-2.22015,0.0564575,
-2.20947,0.0610352,
-2.20642,0.0640869,
-2.19574,0.0579834,
-2.18964,0.0534058,
-2.18506,0.0579834,
-2.1759,0.062561,
-2.16827,0.0671387,
-2.15912,0.0579834,
-2.15607,0.0549316,
-2.14691,0.0579834,
-2.13776,0.0671387,
-2.13318,0.0640869,
-2.1225,0.062561,
-2.11639,0.0549316,
-2.11029,0.0549316,
-2.10571,0.062561,
-2.10114,0.0640869,
-2.09351,0.0579834,
-2.09351,0.0518799,
-2.09351,0.0595093,
-2.08893,0.0640869,
-2.08893,0.062561,
-2.09045,0.0579834,
-2.0874,0.0518799,
-2.09045,0.0564575,
-2.08588,0.062561,
-2.08588,0.062561,
-2.08588,0.0595093,
-2.0874,0.0518799,
-2.08588,0.0564575,
-2.08588,0.0640869,
-2.08893,0.0671387,
-2.09198,0.0610352,
-2.09198,0.0534058,
-2.09351,0.0549316,
-2.09351,0.062561,
-2.09503,0.062561,
-2.09045,0.0579834,
-2.08893,0.0534058,
-2.08893,0.0564575,
-2.0874,0.0610352,
-2.08435,0.0595093,
-2.07672,0.0595093,
-2.07672,0.0549316,
-2.0752,0.0534058,
-2.07672,0.0610352,
-2.07367,0.0610352,
-2.07672,0.0564575,
-2.0752,0.0518799,
-2.0752,0.0564575,
-2.0752,0.0610352,
-2.07825,0.062561,
-2.07977,0.0564575,
-2.07977,0.0518799,
-2.0813,0.0595093,
-2.0813,0.0671387,
-2.08282,0.0686646,
-2.08893,0.0595093,
-2.08893,0.0564575,
-2.09045,0.0579834,
-2.08893,0.062561,
-2.09503,0.0640869,
-2.09656,0.0595093,
-2.10266,0.0564575,
-2.10419,0.0549316,
-2.10571,0.0686646,
-2.10724,0.0671387,
-2.10876,0.0579834,
-2.10876,0.0534058,
-2.11182,0.0564575,
-2.11029,0.0701904,
-2.10876,0.062561,
-2.10724,0.0579834,
-2.10571,0.0518799,
-2.10724,0.0579834,
-2.10266,0.062561,
-2.09961,0.0671387,
-2.09198,0.0610352,
-2.09503,0.0549316,
-2.09961,0.0595093,
-2.09656,0.0686646,
-2.09961,0.0640869,
-2.09961,0.0610352,
-2.10266,0.0564575,
-2.09961,0.0579834,
-2.10266,0.0640869,
-2.09961,0.0671387,
-2.10266,0.0595093,
-2.10571,0.0534058,
-2.10724,0.0564575,
-2.10876,0.0671387,
-2.11029,0.0640869,
-2.11182,0.0564575,
-2.11487,0.0564575,
-2.11792,0.0595093,
-2.12097,0.062561,
-2.12097,0.0640869,
-2.11792,0.0595093,
-2.12097,0.0534058,
-2.11334,0.0549316,
-2.11639,0.062561,
-2.11945,0.062561,
-2.11945,0.0610352,
-2.1225,0.0534058,
-2.12555,0.0610352,
-2.12555,0.0640869,
-2.12555,0.0595093,
-2.12402,0.0579834,
-2.12708,0.0549316,
-2.1286,0.0564575,
-2.12708,0.0671387,
-2.12555,0.0671387,
-2.13013,0.0564575,
-2.1347,0.0534058,
-2.13776,0.0564575,
-2.13623,0.0671387,
-2.13623,0.0640869,
-2.13623,0.0564575,
-2.14539,0.0549316,
-2.14691,0.0579834,
-2.14996,0.062561,
-2.15454,0.0610352,
-2.15454,0.0564575,
-2.16217,0.0518799,
-2.1698,0.0564575,
-2.17285,0.0640869,
-2.17743,0.062561,
-2.18048,0.0564575,
-2.18658,0.0534058,
-2.18811,0.0549316,
-2.19421,0.0610352,
-2.19269,0.062561,
-2.19727,0.0579834,
-2.20184,0.0534058,
-2.19879,0.0549316,
-2.20337,0.062561,
-2.2049,0.062561,
-2.20947,0.0564575,
-2.21252,0.050354,
-2.21558,0.0564575,
-2.2171,0.062561,
-2.21863,0.062561,
-2.22168,0.0610352,
-2.22321,0.0534058,
-2.22626,0.0579834,
-2.22778,0.0640869,
-2.23083,0.0640869,
-2.23389,0.0595093,
-2.23999,0.0534058,
-2.24609,0.0564575,
-2.2522,0.0640869,
-2.2583,0.0640869,
-2.25983,0.0610352,
-2.25983,0.0534058,
-2.27051,0.0579834,
-2.27051,0.0640869,
-2.27356,0.0671387,
-2.27661,0.0579834,
-2.28119,0.050354,
-2.28882,0.0564575,
-2.29187,0.062561,
-2.29187,0.0671387,
-2.2934,0.0595093,
-2.29492,0.0534058,
-2.2934,0.0579834,
-2.28729,0.062561,
-2.28577,0.0640869,
-2.28119,0.0610352,
-2.27814,0.0534058,
-2.27051,0.0579834,
-2.2644,0.0640869,
-2.25525,0.0640869,
-2.24915,0.0610352,
-2.24304,0.0488281,
-2.23083,0.0564575,
-2.22015,0.0686646,
-2.20947,0.0671387,
-2.20337,0.0595093,
-2.18964,0.0549316,
-2.17743,0.0595093,
-2.16522,0.0610352,
-2.15912,0.0640869,
-2.14844,0.0610352,
-2.13776,0.0579834,
-2.13013,0.0595093,
-2.11792,0.0671387,
-2.11792,0.0640869,
-2.11182,0.0595093,
-2.11029,0.0518799,
-2.10571,0.0564575,
-2.10266,0.0671387,
-2.09961,0.0640869,
-2.09656,0.0595093,
-2.09198,0.050354,
-2.08893,0.0564575,
-2.08588,0.0610352,
-2.08435,0.062561,
-2.0813,0.0579834,
-2.0813,0.0534058,
-2.0752,0.0549316,
-2.07367,0.0640869,
-2.07672,0.062561,
-2.07367,0.0595093,
-2.07367,0.0518799,
-2.07214,0.0564575,
-2.06757,0.0671387,
-2.07062,0.0640869,
-2.06909,0.0610352,
-2.07062,0.0518799,
-2.06909,0.0579834,
-2.07214,0.0579834,
-2.07825,0.0640869,
-2.07977,0.0579834,
-2.07977,0.050354,
-2.07977,0.0534058,
-2.0813,0.0640869,
-2.07977,0.062561,
-2.08435,0.0595093,
-2.07977,0.0549316,
-2.08435,0.0549316,
-2.08282,0.0610352,
-2.08282,0.0610352,
-2.08588,0.0610352,
-2.08588,0.0534058,
-2.08893,0.0564575,
-2.09045,0.0671387,
-2.09351,0.0671387,
-2.09503,0.0595093,
-2.09961,0.0534058,
-2.10266,0.0564575,
-2.10419,0.0640869,
-2.10419,0.0686646,
-2.10571,0.0595093,
-2.10724,0.0549316,
-2.10876,0.0579834,
-2.11334,0.0610352,
-2.11639,0.0610352,
-2.11334,0.0579834,
-2.11487,0.0534058,
-2.11639,0.0579834,
-2.11792,0.0595093,
-2.11487,0.0640869,
-2.11487,0.0595093,
-2.11182,0.0534058,
-2.11029,0.0549316,
-2.10571,0.0671387,
-2.10571,0.0640869,
-2.10266,0.062561,
-2.10724,0.0518799,
-2.10419,0.0534058,
-2.10266,0.0686646,
-2.10266,0.0640869,
-2.10571,0.0610352,
-2.10571,0.0534058,
-2.10419,0.0534058,
-2.10419,0.0686646,
-2.10114,0.0701904,
-2.09351,0.0610352,
-2.09198,0.0534058,
-2.09198,0.0549316,
-2.09198,0.0671387,
-2.08893,0.0671387,
-2.0874,0.0595093,
-2.08893,0.0518799,
-2.08588,0.0564575,
-2.08282,0.0671387,
-2.08588,0.0640869,
-2.08893,0.0595093,
-2.0874,0.0534058,
-2.0874,0.0579834,
-2.08893,0.062561,
-2.09198,0.0671387,
-2.09198,0.0595093,
-2.09656,0.050354,
-2.10266,0.0564575,
-2.10571,0.0640869,
-2.10876,0.0640869,
-2.11029,0.0564575,
-2.11487,0.0518799,
-2.11639,0.0564575,
-2.11792,0.062561,
-2.12402,0.062561,
-2.12555,0.0595093,
-2.12708,0.0488281,
-2.12708,0.0564575,
-2.13318,0.0640869,
-2.13776,0.0640869,
-2.13928,0.0595093,
-2.14233,0.050354,
-2.14539,0.0595093,
-2.14691,0.0640869,
-2.15149,0.0640869,
-2.14996,0.0595093,
-2.15302,0.0534058,
-2.15759,0.0549316,
-2.16217,0.0640869,
-2.16522,0.0671387,
-2.17285,0.0564575,
-2.17743,0.0488281,
-2.18048,0.0564575,
-2.18506,0.062561,
-2.18964,0.0640869,
-2.19574,0.0595093,
-2.20184,0.0488281,
-2.20642,0.0595093,
-2.21252,0.062561,
-2.21863,0.0640869,
-2.22168,0.0595093,
-2.22321,0.0518799,
-2.22931,0.0579834,
-2.23389,0.0671387,
-2.23694,0.062561,
-2.23694,0.0595093,
-2.23999,0.0534058,
-2.24609,0.0564575,
-2.25067,0.062561,
-2.2522,0.0671387,
-2.25677,0.0610352,
-2.26288,0.0534058,
-2.26746,0.0579834,
-2.27356,0.0640869,
-2.28119,0.0671387,
-2.29034,0.0595093,
-2.2934,0.0518799,
-2.29645,0.0610352,
-2.29797,0.0640869,
-2.30865,0.0671387,
-2.30713,0.0610352,
-2.30713,0.0534058,
-2.31171,0.0564575,
-2.31628,0.0671387,
-2.31781,0.0671387,
-2.31934,0.0640869,
-2.32544,0.0518799,
-2.32849,0.0549316,
-2.33002,0.0640869,
-2.32849,0.0671387,
-2.33154,0.062561,
-2.33002,0.050354,
-2.33307,0.0579834,
-2.33612,0.0610352,
-2.3407,0.062561,
-2.34375,0.0595093,
-2.34528,0.0518799,
-2.34833,0.0595093,
-2.34985,0.0640869,
-2.34985,0.0671387,
-2.35138,0.0595093,
-2.34985,0.0488281,
-2.34985,0.0579834,
-2.34375,0.062561,
-2.33917,0.0640869,
-2.33612,0.062561,
-2.32849,0.0518799,
-2.32391,0.0564575,
-2.31781,0.0640869,
-2.31323,0.0686646,
-2.31018,0.0579834,
-2.2995,0.050354,
-2.29034,0.0564575,
-2.27966,0.0610352,
-2.27051,0.0671387,
-2.25677,0.0610352,
-2.24609,0.0534058,
-2.23236,0.0595093,
-2.22168,0.062561,
-2.21405,0.062561,
-2.20184,0.0579834,
-2.18811,0.0473022,
-2.18048,0.0564575,
-2.17285,0.0610352,
-2.17133,0.0671387,
-2.1698,0.0579834,
-2.16522,0.0488281,
-2.16217,0.0579834,
-2.16217,0.0610352,
-2.1637,0.0640869,
-2.15912,0.062561,
-2.15759,0.0518799,
-2.15607,0.0579834,
-2.15302,0.0595093,
-2.15454,0.0640869,
-2.15454,0.0595093,
-2.15454,0.0488281,
-2.15607,0.0564575,
-2.15607,0.0610352,
-2.15302,0.0671387,
-2.15454,0.0579834,
-2.14844,0.050354,
-2.14386,0.0564575,
-2.14233,0.0610352,
-2.13928,0.0671387,
-2.13776,0.0595093,
-2.1347,0.050354,
-2.1286,0.0610352,
-2.12555,0.0579834,
-2.12097,0.0610352,
-2.12402,0.0610352,
-2.11945,0.0518799,
-2.11639,0.0534058,
-2.11182,0.0640869,
-2.10876,0.062561,
-2.10419,0.0610352,
-2.09503,0.0488281,
-2.09351,0.0595093,
-2.09045,0.0610352,
-2.09198,0.0640869,
-2.08893,0.0579834,
-2.08588,0.050354,
-2.0874,0.0595093,
-2.08893,0.0640869,
-2.09045,0.062561,
-2.08588,0.0640869,
-2.0874,0.050354,
-2.08893,0.0579834,
-2.09045,0.0610352,
-2.09045,0.0640869,
-2.09351,0.0595093,
-2.09656,0.0488281,
-2.10266,0.0579834,
-2.10114,0.0595093,
-2.10266,0.0640869,
-2.10114,0.0610352,
-2.10266,0.050354,
-2.09656,0.0595093,
-2.09503,0.062561,
-2.09961,0.062561,
-2.09351,0.0564575,
-2.09503,0.0488281,
-2.09656,0.0579834,
-2.09656,0.062561,
-2.10114,0.0640869,
-2.09961,0.0610352,
-2.09656,0.0534058,
-2.10419,0.0579834,
-2.10266,0.062561,
-2.10266,0.0640869,
-2.10114,0.0610352,
-2.09503,0.050354,
-2.09351,0.0564575,
-2.09198,0.062561,
-2.08893,0.0640869,
-2.08588,0.0610352,
-2.0874,0.050354,
-2.08588,0.0595093,
-2.08588,0.0640869,
-2.08282,0.062561,
-2.08435,0.0595093,
-2.07977,0.0442505,
-2.07825,0.0579834,
-2.07825,0.0640869,
-2.07214,0.0640869,
-2.07367,0.0610352,
-2.07214,0.0534058,
-2.0752,0.0549316,
-2.07214,0.0610352,
-2.07672,0.0640869,
-2.07367,0.0595093,
-2.07825,0.050354,
-2.07672,0.0595093,
-2.08282,0.0640869,
-2.0813,0.062561,
-2.08588,0.0579834,
-2.0874,0.0473022,
-2.09045,0.0534058,
-2.0874,0.062561,
-2.09045,0.062561,
-2.08893,0.0579834,
-2.09198,0.050354,
-2.09351,0.0579834,
-2.09961,0.062561,
-2.09961,0.0640869,
-2.10266,0.0564575,
-2.09961,0.0518799,
-2.10266,0.0595093,
-2.10419,0.0610352,
-2.10876,0.062561,
-2.10876,0.0579834,
-2.11487,0.050354,
-2.11792,0.0564575,
-2.1225,0.0595093,
-2.13013,0.0640869,
-2.13623,0.0610352,
-2.14081,0.0518799,
-2.14233,0.0579834,
-2.14844,0.0579834,
-2.15454,0.062561,
-2.15607,0.0595093,
-2.15912,0.0518799,
-2.1637,0.0579834,
-2.17133,0.0610352,
-2.1759,0.0686646,
-2.17896,0.0595093,
-2.18048,0.050354,
-2.18353,0.0564575,
-2.18658,0.0564575,
-2.18964,0.062561,
-2.19421,0.0610352,
-2.19421,0.050354,
-2.19574,0.0579834,
-2.19879,0.0610352,
-2.20642,0.062561,
-2.2049,0.062561,
-2.2049,0.0488281,
-2.20184,0.0579834,
-2.20337,0.062561,
-2.20337,0.062561,
-2.2049,0.062561,
-2.20642,0.050354,
-2.20795,0.0579834,
-2.20795,0.0579834,
-2.20947,0.0671387,
-2.21252,0.0579834,
-2.211,0.0488281,
-2.20947,0.0564575,
-2.211,0.0640869,
-2.211,0.0640869,
-2.21863,0.0595093,
-2.21863,0.050354,
-2.22626,0.0549316,
-2.23083,0.0640869,
-2.23694,0.0640869,
-2.23694,0.0595093,
-2.24304,0.050354,
-2.24762,0.0564575,
-2.2522,0.062561,
-2.2583,0.0671387,
-2.26593,0.0579834,
-2.26746,0.050354,
-2.27509,0.0579834,
-2.27661,0.062561,
-2.28271,0.0610352,
-2.28271,0.0579834,
-2.28119,0.0518799,
-2.27966,0.0595093,
-2.27661,0.062561,
-2.27203,0.062561,
-2.26593,0.0595093,
-2.26135,0.0473022,
-2.25067,0.0579834,
-2.24152,0.0686646,
-2.23389,0.0671387,
-2.22321,0.0595093,
-2.21405,0.0549316,
-2.20337,0.0595093,
-2.19269,0.062561,
-2.18353,0.0686646,
-2.17743,0.0595093,
-2.16827,0.050354,
-2.16217,0.0549316,
-2.15454,0.062561,
-2.14539,0.0671387,
-2.13776,0.0579834,
-2.1286,0.0549316,
-2.12402,0.0564575,
-2.11639,0.0640869,
-2.11029,0.0671387,
-2.10571,0.0610352,
-2.10114,0.050354,
-2.09045,0.0579834,
-2.08893,0.062561,
-2.08435,0.0671387,
-2.07825,0.0610352,
-2.07367,0.0534058,
-2.06757,0.0564575,
-2.06604,0.0640869,
-2.06757,0.0671387,
-2.06757,0.0610352,
-2.06757,0.0518799,
-2.06909,0.0610352,
-2.06757,0.0686646,
-2.06757,0.0671387,
-2.06451,0.062561,
-2.06451,0.0518799,
-2.05688,0.0579834,
-2.05536,0.0671387,
-2.05078,0.0640869,
-2.04926,0.0610352,
-2.0462,0.0518799,
-2.0462,0.0595093,
-2.0401,0.0671387,
-2.0401,0.0610352,
-2.034,0.0579834,
-2.03094,0.0518799,
-2.02332,0.0595093,
-2.02026,0.0640869,
-2.02026,0.0701904,
-2.01721,0.0640869,
-2.01721,0.0549316,
-2.01416,0.0595093,
-2.01569,0.0686646,
-2.01416,0.0717163,
-2.01721,0.0610352,
-2.01569,0.0518799,
-2.01721,0.0564575,
-2.01874,0.0640869,
-2.01874,0.062561,
-2.02332,0.0610352,
-2.02484,0.050354,
-2.02332,0.0579834,
-2.02484,0.062561,
-2.02484,0.062561,
-2.02332,0.0595093,
-2.02484,0.0518799,
-2.02332,0.0579834,
-2.02332,0.0686646,
-2.02484,0.0640869,
-2.02637,0.0595093,
-2.02637,0.0518799,
-2.03247,0.0579834,
-2.03094,0.0610352,
-2.02789,0.0640869,
-2.034,0.0579834,
-2.03552,0.050354,
-2.03552,0.0564575,
-2.03705,0.0610352,
-2.03705,0.062561,
-2.03705,0.0595093,
-2.03857,0.0518799,
-2.03705,0.0564575,
-2.03552,0.0671387,
-2.03552,0.062561,
-2.034,0.0595093,
-2.03857,0.050354,
-2.04315,0.0564575,
-2.04468,0.0610352,
-2.0462,0.0640869,
-2.05231,0.0610352,
-2.05688,0.0488281,
-2.05688,0.0579834,
-2.05841,0.062561,
-2.06604,0.0640869,
-2.06757,0.0579834,
-2.06757,0.0518799,
-2.07214,0.0579834,
-2.07062,0.062561,
-2.0752,0.0640869,
-2.07672,0.0610352,
-2.08435,0.0534058,
-2.08893,0.0595093,
-2.09503,0.0640869,
-2.10571,0.0640869,
-2.10724,0.0610352,
-2.11334,0.050354,
-2.12097,0.0579834,
-2.12708,0.0640869,
-2.13623,0.062561,
-2.14081,0.0610352,
-2.14844,0.0518799,
-2.15607,0.0595093,
-2.16064,0.0640869,
-2.16522,0.062561,
-2.1698,0.0610352,
-2.1759,0.050354,
-2.18048,0.0579834,
-2.18201,0.0671387,
-2.18353,0.0686646,
-2.18964,0.0610352,
-2.18964,0.0518799,
-2.19116,0.0595093,
-2.18964,0.0686646,
-2.19116,0.0686646,
-2.19269,0.0610352,
-2.18964,0.0534058,
-2.19269,0.0610352,
-2.19269,0.0610352,
-2.19116,0.0640869,
-2.19574,0.0610352,
-2.19116,0.0518799,
-2.19421,0.0564575,
-2.19421,0.062561,
-2.19421,0.0686646,
-2.19269,0.0579834,
-2.19574,0.0518799,
-2.19879,0.0579834,
-2.20337,0.062561,
-2.20337,0.0640869,
-2.2049,0.0595093,
-2.20795,0.0518799,
-2.211,0.0595093,
-2.21405,0.062561,
-2.2171,0.0671387,
-2.2171,0.0595093,
-2.21863,0.0518799,
-2.22168,0.0610352,
-2.22321,0.062561,
-2.22015,0.0640869,
-2.22321,0.0610352,
-2.22321,0.0488281,
-2.22778,0.0564575,
-2.23083,0.0640869,
-2.23389,0.0686646,
-2.23236,0.0549316,
-2.23999,0.0473022,
-2.24609,0.0564575,
-2.24304,0.062561,
-2.24915,0.0610352,
-2.25372,0.0579834,
-2.25067,0.0473022,
-2.25983,0.0564575,
-2.25983,0.062561,
-2.26288,0.062561,
-2.25983,0.0610352,
-2.26135,0.0488281,
-2.26288,0.062561,
-2.26288,0.0610352,
-2.26593,0.0671387,
-2.2644,0.062561,
-2.26746,0.050354,
-2.27203,0.0595093,
-2.27203,0.0640869,
-2.27356,0.0640869,
-2.27356,0.0595093,
-2.27661,0.050354,
-2.27661,0.0579834,
-2.27509,0.0610352,
-2.27203,0.0640869,
-2.27051,0.0595093,
-2.2644,0.0518799,
-2.26288,0.0595093,
-2.2583,0.0640869,
-2.25677,0.0640869,
-2.24609,0.0595093,
-2.23694,0.0534058,
-2.22931,0.0595093,
-2.22015,0.0640869,
-2.20795,0.0640869,
-2.19879,0.0610352,
-2.18506,0.0534058,
-2.1759,0.0610352,
-2.1637,0.062561,
-2.15607,0.062561,
-2.14844,0.0610352,
-2.13928,0.0534058,
-2.13318,0.0579834,
-2.12402,0.0640869,
-2.12097,0.0640869,
-2.11639,0.0595093,
-2.11487,0.0534058,
-2.10876,0.0595093,
-2.11029,0.0671387,
