0.695801,0.593567,
0.674438,0.598145,
0.65155,0.59967,
0.627136,0.601196,
0.602722,0.595093,
0.578308,0.595093,
0.556946,0.602722,
0.535583,0.59967,
0.509644,0.601196,
0.494385,0.598145,
0.476074,0.59967,
0.460815,0.59967,
0.444031,0.602722,
0.424194,0.604248,
0.40741,0.601196,
0.390625,0.601196,
0.38147,0.602722,
0.366211,0.605774,
0.3479,0.605774,
0.338745,0.604248,
0.325012,0.598145,
0.315857,0.608826,
0.306702,0.608826,
0.292969,0.611877,
0.286865,0.608826,
0.27771,0.602722,
0.27771,0.610352,
0.270081,0.6073,
0.263977,0.610352,
0.260925,0.605774,
0.25177,0.605774,
0.242615,0.608826,
0.231934,0.610352,
0.221252,0.610352,
0.213623,0.608826,
0.202942,0.608826,
0.192261,0.610352,
0.18158,0.608826,
0.166321,0.613403,
0.151062,0.608826,
0.134277,0.608826,
0.120544,0.611877,
0.108337,0.616455,
0.0854492,0.614929,
0.0656128,0.613403,
0.0518799,0.605774,
0.0305176,0.616455,
0.00915527,0.616455,
-0.0106812,0.614929,
-0.0366211,0.613403,
-0.0564575,0.610352,
-0.0823975,0.616455,
-0.109863,0.616455,
-0.132751,0.619507,
-0.163269,0.613403,
-0.187683,0.611877,
-0.215149,0.617981,
-0.244141,0.621033,
-0.267029,0.619507,
-0.302124,0.616455,
-0.32959,0.616455,
-0.361633,0.616455,
-0.392151,0.617981,
-0.415039,0.621033,
-0.436401,0.616455,
-0.468445,0.617981,
-0.491333,0.624084,
-0.517273,0.624084,
-0.543213,0.622559,
-0.570679,0.619507,
-0.595093,0.617981,
-0.617981,0.622559,
-0.642395,0.62561,
-0.666809,0.624084,
-0.692749,0.621033,
-0.717163,0.617981,
-0.741577,0.62561,
-0.764465,0.627136,
-0.793457,0.624084,
-0.817871,0.622559,
-0.845337,0.621033,
-0.875854,0.62561,
-0.906372,0.631714,
-0.93689,0.628662,
-0.967407,0.622559,
-0.996399,0.622559,
-1.02844,0.627136,
-1.05286,0.627136,
-1.08185,0.631714,
-1.11237,0.627136,
-1.1322,0.622559,
-1.15051,0.63324,
-1.16272,0.628662,
-1.1795,0.63324,
-1.18866,0.628662,
-1.19019,0.627136,
-1.19324,0.63324,
-1.18866,0.63324,
-1.17645,0.634766,
-1.15967,0.627136,
-1.13678,0.631714,
-1.10779,0.637817,
-1.07574,0.634766,
-1.0376,0.636292,
-0.996399,0.636292,
-0.950623,0.631714,
-0.90332,0.636292,
-0.856018,0.636292,
-0.810242,0.637817,
-0.765991,0.636292,
-0.717163,0.63324,
-0.669861,0.639343,
-0.621033,0.640869,
-0.575256,0.637817,
-0.527954,0.637817,
-0.483704,0.636292,
-0.444031,0.637817,
-0.408936,0.639343,
-0.372314,0.639343,
-0.340271,0.636292,
-0.314331,0.63324,
-0.286865,0.637817,
-0.268555,0.639343,
-0.250244,0.643921,
-0.234985,0.639343,
-0.222778,0.636292,
-0.213623,0.642395,
-0.209045,0.642395,
-0.202942,0.643921,
-0.19989,0.640869,
-0.19989,0.639343,
-0.204468,0.646973,
-0.205994,0.643921,
-0.215149,0.646973,
-0.221252,0.640869,
-0.236511,0.640869,
-0.242615,0.643921,
-0.256348,0.646973,
-0.270081,0.648499,
-0.288391,0.643921,
-0.305176,0.642395,
-0.332642,0.645447,
-0.358582,0.645447,
-0.379944,0.648499,
-0.402832,0.645447,
-0.424194,0.643921,
-0.440979,0.65155,
-0.465393,0.650024,
-0.491333,0.646973,
-0.512695,0.646973,
-0.538635,0.645447,
-0.566101,0.653076,
-0.592041,0.650024,
-0.613403,0.648499,
-0.637817,0.643921,
-0.665283,0.648499,
-0.682068,0.650024,
-0.704956,0.648499,
-0.724792,0.653076,
-0.743103,0.648499,
-0.764465,0.648499,
-0.779724,0.654602,
-0.801086,0.653076,
-0.813293,0.657654,
-0.830078,0.65155,
-0.848389,0.650024,
-0.865173,0.653076,
-0.87738,0.654602,
-0.895691,0.656128,
-0.906372,0.65155,
-0.918579,0.653076,
-0.93689,0.656128,
-0.946045,0.65155,
-0.9552,0.653076,
-0.973511,0.65155,
-0.982666,0.654602,
-0.993347,0.657654,
-1.0025,0.656128,
-1.01471,0.660706,
-1.02539,0.656128,
-1.03302,0.656128,
-1.0437,0.65918,
-1.05896,0.654602,
-1.06964,0.660706,
-1.08337,0.654602,
-1.09558,0.654602,
-1.11237,0.660706,
-1.1261,0.660706,
-1.13983,0.660706,
-1.15662,0.657654,
-1.17645,0.65918,
-1.19476,0.662231,
-1.21613,0.657654,
-1.23444,0.666809,
-1.2558,0.65918,
-1.27869,0.65918,
-1.29852,0.665283,
-1.32294,0.662231,
-1.34583,0.666809,
-1.37024,0.65918,
-1.39923,0.660706,
-1.42212,0.665283,
-1.44958,0.666809,
-1.47705,0.669861,
-1.50452,0.662231,
-1.53656,0.662231,
-1.57013,0.669861,
-1.5976,0.666809,
-1.62659,0.669861,
-1.65405,0.665283,
-1.67694,0.662231,
-1.70746,0.668335,
-1.73645,0.669861,
-1.76392,0.672913,
-1.79443,0.666809,
-1.8219,0.665283,
-1.85394,0.674438,
-1.87683,0.666809,
-1.90735,0.672913,
-1.93787,0.666809,
-1.97144,0.662231,
-2.00348,0.669861,
-2.03552,0.669861,
-2.06451,0.675964,
-2.09503,0.668335,
-2.12555,0.668335,
-2.16217,0.674438,
-2.19421,0.671387,
-2.22778,0.674438,
-2.2583,0.671387,
-2.29187,0.668335,
-2.32086,0.674438,
-2.35138,0.672913,
-2.37885,0.675964,
-2.40479,0.668335,
-2.43835,0.669861,
-2.46735,0.674438,
-2.49481,0.672913,
-2.5238,0.675964,
-2.54822,0.671387,
-2.56805,0.671387,
-2.58636,0.67749,
-2.59399,0.675964,
-2.60162,0.675964,
-2.60773,0.671387,
-2.6001,0.669861,
-2.59399,0.67749,
-2.58331,0.67749,
-2.56805,0.675964,
-2.54974,0.672913,
-2.52991,0.674438,
-2.50854,0.67749,
-2.4826,0.679016,
-2.45514,0.682068,
-2.42462,0.669861,
-2.388,0.672913,
-2.35291,0.680542,
-2.31628,0.679016,
-2.27814,0.682068,
-2.23846,0.674438,
-2.20184,0.674438,
-2.1637,0.680542,
-2.1286,0.680542,
-2.09045,0.679016,
-2.05688,0.674438,
-2.02484,0.674438,
-1.9928,0.683594,
-1.96381,0.67749,
-1.93481,0.682068,
-1.90735,0.674438,
-1.88599,0.675964,
-1.86615,0.68512,
-1.84937,0.682068,
-1.83258,0.682068,
-1.81885,0.679016,
-1.81274,0.67749,
-1.80359,0.68512,
-1.79596,0.67749,
-1.79291,0.682068,
-1.7868,0.679016,
-1.7868,0.679016,
-1.79138,0.683594,
-1.79596,0.683594,
-1.80206,0.686646,
-1.81122,0.67749,
-1.8219,0.67749,
-1.828,0.691223,
-1.83868,0.683594,
-1.85547,0.686646,
-1.86768,0.682068,
-1.88751,0.683594,
-1.90582,0.68512,
-1.92413,0.683594,
-1.95007,0.688171,
-1.97144,0.680542,
-1.99585,0.682068,
-2.01721,0.689697,
-2.04315,0.682068,
-2.06604,0.686646,
-2.09198,0.68512,
-2.11639,0.680542,
-2.14081,0.688171,
-2.1637,0.688171,
-2.18658,0.689697,
-2.211,0.682068,
-2.23846,0.683594,
-2.2583,0.688171,
-2.27966,0.688171,
-2.2995,0.688171,
-2.31781,0.683594,
-2.3407,0.686646,
-2.35901,0.688171,
-2.37885,0.688171,
-2.39563,0.689697,
-2.41547,0.686646,
-2.43073,0.68512,
-2.45209,0.689697,
-2.4704,0.686646,
-2.4826,0.688171,
-2.50092,0.686646,
-2.51617,0.683594,
-2.53143,0.692749,
-2.54822,0.692749,
-2.56042,0.691223,
-2.57568,0.688171,
-2.59552,0.68512,
-2.6062,0.692749,
-2.62451,0.691223,
-2.63519,0.694275,
-2.65045,0.688171,
-2.66876,0.68512,
-2.68097,0.691223,
-2.69928,0.691223,
-2.71301,0.692749,
-2.72675,0.692749,
-2.74811,0.686646,
-2.76489,0.695801,
-2.78168,0.692749,
-2.80151,0.692749,
-2.81525,0.689697,
-2.83508,0.688171,
-2.85034,0.694275,
-2.87476,0.692749,
-2.89612,0.692749,
-2.91595,0.688171,
-2.93732,0.688171,
-2.96173,0.694275,
-2.98004,0.691223,
-3.00293,0.694275,
-3.02124,0.688171,
-3.04108,0.686646,
-3.05634,0.694275,
-3.07617,0.692749,
-3.09753,0.698853,
-3.11432,0.691223,
-3.13568,0.688171,
-3.15399,0.695801,
-3.17993,0.691223,
-3.20282,0.698853,
-3.22266,0.689697,
-3.24249,0.692749,
-3.26538,0.694275,
-3.28522,0.694275,
-3.30658,0.698853,
-3.32794,0.691223,
-3.35083,0.692749,
-3.36761,0.695801,
-3.39203,0.695801,
-3.41187,0.695801,
-3.43018,0.691223,
-3.44849,0.689697,
-3.47137,0.698853,
-3.49731,0.695801,
-3.51868,0.698853,
-3.54004,0.691223,
-3.56445,0.689697,
-3.58582,0.700378,
-3.61176,0.698853,
-3.6377,0.698853,
-3.66058,0.692749,
-3.68195,0.691223,
-3.70178,0.698853,
-3.72925,0.695801,
-3.75214,0.700378,
-3.7674,0.691223,
-3.79028,0.691223,
-3.80859,0.695801,
-3.82996,0.698853,
-3.84979,0.701904,
-3.86658,0.689697,
-3.88184,0.689697,
-3.89404,0.700378,
-3.90015,0.700378,
-3.90472,0.698853,
-3.90625,0.692749,
-3.90625,0.691223,
-3.90167,0.700378,
-3.89404,0.698853,
-3.88794,0.698853,
-3.87115,0.695801,
-3.8559,0.692749,
-3.84064,0.701904,
-3.82843,0.695801,
-3.80859,0.700378,
-3.79486,0.694275,
-3.77502,0.692749,
-3.75977,0.700378,
-3.74451,0.701904,
-3.72925,0.695801,
-3.71857,0.695801,
-3.70026,0.691223,
-3.68958,0.698853,
-3.67584,0.698853,
-3.66516,0.700378,
-3.65601,0.695801,
-3.64685,0.694275,
-3.6377,0.700378,
-3.63312,0.700378,
-3.62549,0.700378,
-3.62091,0.694275,
-3.62091,0.694275,
-3.61481,0.698853,
-3.61481,0.695801,
-3.61481,0.700378,
-3.61786,0.694275,
-3.62244,0.692749,
-3.62549,0.700378,
-3.62854,0.700378,
-3.63464,0.700378,
-3.6377,0.694275,
-3.64685,0.692749,
-3.65753,0.704956,
-3.66364,0.698853,
-3.66669,0.70343,
-3.67584,0.692749,
-3.685,0.695801,
-3.69568,0.704956,
-3.70026,0.704956,
-3.70789,0.701904,
-3.71246,0.694275,
-3.7262,0.692749,
-3.73383,0.704956,
-3.74146,0.70343,
-3.75214,0.701904,
-3.75824,0.694275,
-3.77045,0.694275,
-3.78571,0.704956,
-3.79333,0.701904,
-3.81165,0.704956,
-3.8269,0.695801,
-3.83453,0.694275,
-3.85284,0.704956,
-3.86047,0.70343,
-3.8681,0.706482,
-3.88031,0.694275,
-3.89099,0.692749,
-3.90015,0.704956,
-3.9093,0.701904,
-3.91846,0.704956,
-3.92761,0.698853,
-3.93524,0.695801,
-3.94287,0.70343,
-3.9505,0.701904,
-3.95813,0.70343,
-3.96576,0.70343,
-3.97339,0.694275,
-3.97797,0.70343,
-3.98254,0.70343,
-3.99323,0.704956,
-3.99628,0.698853,
-4.00085,0.698853,
-4.00696,0.704956,
-4.00848,0.701904,
-4.01459,0.704956,
-4.01917,0.698853,
-4.02527,0.695801,
-4.02679,0.701904,
-4.03137,0.701904,
-4.03442,0.70343,
-4.04205,0.700378,
-4.04816,0.698853,
-4.05426,0.704956,
-4.06189,0.701904,
-4.06952,0.70343,
-4.07715,0.698853,
-4.08478,0.698853,
-4.09698,0.704956,
-4.10461,0.704956,
-4.1153,0.70343,
-4.12445,0.700378,
-4.13666,0.700378,
-4.14429,0.708008,
-4.15802,0.704956,
-4.1687,0.70343,
-4.17633,0.700378,
-4.19006,0.698853,
-4.20227,0.70343,
-4.2099,0.704956,
-4.21906,0.701904,
-4.23126,0.695801,
-4.23889,0.698853,
-4.24652,0.704956,
-4.25568,0.704956,
-4.26483,0.706482,
-4.27551,0.701904,
-4.27856,0.701904,
-4.28772,0.704956,
-4.29688,0.704956,
-4.30756,0.70343,
-4.31671,0.700378,
-4.32587,0.70343,
-4.33655,0.704956,
-4.34723,0.708008,
-4.35181,0.70343,
-4.35791,0.698853,
-4.36401,0.701904,
-4.37012,0.70343,
-4.37622,0.708008,
-4.3869,0.70343,
-4.39148,0.701904,
-4.40369,0.70343,
-4.41132,0.706482,
-4.42505,0.706482,
-4.43115,0.704956,
-4.44183,0.70343,
-4.45251,0.700378,
-4.4632,0.70343,
-4.47388,0.706482,
-4.48608,0.701904,
-4.49371,0.698853,
-4.50134,0.698853,
-4.5166,0.704956,
-4.52881,0.701904,
-4.54102,0.704956,
-4.5517,0.701904,
-4.56238,0.701904,
-4.57611,0.704956,
-4.58527,0.709534,
-4.59747,0.70343,
-4.60968,0.70343,
-4.62036,0.701904,
-4.63257,0.70343,
-4.6402,0.704956,
-4.6463,0.70343,
-4.6463,0.700378,
-4.65088,0.700378,
-4.64783,0.704956,
-4.6463,0.706482,
-4.63562,0.708008,
-4.62952,0.700378,
-4.61884,0.704956,
-4.61578,0.708008,
-4.61121,0.704956,
-4.59442,0.708008,
-4.58374,0.700378,
-4.57153,0.701904,
-4.55475,0.706482,
-4.54712,0.708008,
-4.53186,0.706482,
-4.52271,0.70343,
-4.5105,0.698853,
-4.49524,0.706482,
-4.48456,0.708008,
-4.47083,0.701904,
-4.45709,0.700378,
-4.44946,0.70343,
-4.43878,0.704956,
-4.42963,0.706482,
-4.42047,0.701904,
-4.41437,0.700378,
-4.41132,0.698853,
-4.40521,0.704956,
-4.39453,0.708008,
-4.39301,0.701904,
-4.3869,0.700378,
-4.37927,0.70343,
-4.3808,0.70343,
-4.37775,0.706482,
-4.37622,0.70343,
-4.37775,0.700378,
-4.37317,0.704956,
-4.37164,0.704956,
-4.37012,0.704956,
-4.37164,0.70343,
-4.37164,0.704956,
-4.37164,0.70343,
-4.37622,0.706482,
-4.37469,0.704956,
-4.37775,0.706482,
-4.38232,0.701904,
-4.38843,0.700378,
-4.39148,0.70343,
-4.39911,0.704956,
-4.40674,0.701904,
-4.41437,0.704956,
-4.42047,0.701904,
-4.42505,0.70343,
-4.43115,0.70343,
-4.43115,0.701904,
-4.43878,0.700378,
-4.44183,0.70343,
-4.44336,0.701904,
-4.45099,0.704956,
-4.45404,0.70343,
-4.46167,0.698853,
-4.46777,0.701904,
-4.47235,0.70343,
-4.4754,0.706482,
-4.48303,0.70343,
-4.48456,0.698853,
-4.48608,0.698853,
-4.48608,0.704956,
-4.49066,0.706482,
-4.48914,0.704956,
-4.48914,0.695801,
-4.48761,0.698853,
-4.48608,0.706482,
-4.48608,0.708008,
-4.47998,0.701904,
-4.48608,0.695801,
-4.48303,0.700378,
-4.48608,0.70343,
-4.48456,0.706482,
-4.48151,0.701904,
-4.47845,0.698853,
-4.47998,0.700378,
-4.47998,0.70343,
-4.47845,0.706482,
-4.48151,0.701904,
-4.48151,0.695801,
-4.47998,0.70343,
-4.48303,0.704956,
-4.48151,0.706482,
-4.48303,0.700378,
-4.48761,0.700378,
-4.49066,0.701904,
-4.49524,0.704956,
-4.49371,0.704956,
-4.50134,0.700378,
-4.50745,0.700378,
-4.51355,0.700378,
-4.51965,0.704956,
-4.52271,0.709534,
-4.52881,0.70343,
-4.53033,0.701904,
-4.53186,0.70343,
-4.53949,0.704956,
-4.53644,0.709534,
-4.54102,0.700378,
-4.54102,0.701904,
-4.54407,0.70343,
-4.55017,0.708008,
-4.55322,0.708008,
-4.55933,0.700378,
-4.56543,0.700378,
-4.57458,0.698853,
-4.58221,0.701904,
-4.59137,0.704956,
-4.59442,0.700378,
-4.599,0.700378,
-4.60205,0.700378,
-4.61121,0.70343,
-4.61578,0.706482,
-4.62341,0.698853,
-4.62341,0.698853,
-4.62646,0.698853,
-4.62494,0.70343,
-4.62799,0.701904,
-4.63257,0.701904,
-4.63257,0.701904,
-4.63867,0.695801,
-4.64478,0.70343,
-4.64783,0.706482,
-4.6524,0.700378,
-4.6524,0.695801,
-4.65393,0.695801,
-4.65851,0.701904,
-4.65698,0.706482,
-4.66461,0.701904,
-4.66309,0.701904,
-4.66461,0.695801,
-4.66461,0.70343,
-4.66766,0.706482,
-4.67072,0.695801,
-4.67682,0.694275,
-4.6814,0.692749,
-4.68445,0.701904,
-4.69055,0.704956,
-4.69513,0.695801,
-4.70428,0.694275,
-4.71497,0.701904,
-4.72107,0.701904,
-4.72717,0.704956,
-4.73022,0.700378,
-4.73633,0.698853,
-4.74396,0.692749,
-4.75311,0.700378,
-4.75769,0.698853,
-4.76227,0.698853,
-4.7699,0.694275,
-4.77753,0.694275,
-4.78363,0.700378,
-4.78363,0.70343,
-4.78516,0.698853,
-4.78058,0.694275,
-4.7821,0.694275,
-4.776,0.698853,
-4.76685,0.700378,
-4.75616,0.701904,
-4.74091,0.692749,
-4.72565,0.698853,
-4.70428,0.698853,
-4.69208,0.704956,
-4.67834,0.695801,
-4.66003,0.695801,
-4.63867,0.694275,
-4.62494,0.700378,
-4.60968,0.701904,
-4.5929,0.698853,
-4.57916,0.694275,
-4.56696,0.695801,
-4.55475,0.695801,
-4.54407,0.70343,
-4.53644,0.701904,
-4.53033,0.695801,
-4.52576,0.692749,
-4.51813,0.701904,
-4.5105,0.701904,
-4.50134,0.701904,
-4.49677,0.695801,
-4.49524,0.695801,
-4.49371,0.700378,
-4.49219,0.701904,
-4.49066,0.698853,
-4.49066,0.695801,
-4.48761,0.692749,
-4.48761,0.700378,
-4.48914,0.704956,
-4.48761,0.700378,
-4.49219,0.695801,
-4.49371,0.692749,
-4.49677,0.698853,
-4.49982,0.700378,
-4.50592,0.692749,
-4.50592,0.694275,
-4.50745,0.694275,
-4.50897,0.695801,
-4.5105,0.70343,
-4.51202,0.700378,
-4.50897,0.694275,
-4.50745,0.692749,
-4.50745,0.695801,
-4.50592,0.701904,
-4.50745,0.692749,
-4.50897,0.692749,
-4.50592,0.691223,
-4.51202,0.695801,
-4.51355,0.701904,
-4.51965,0.698853,
-4.51965,0.694275,
-4.52423,0.691223,
-4.52881,0.695801,
-4.53186,0.700378,
-4.53491,0.694275,
-4.53949,0.691223,
-4.54102,0.692749,
-4.54407,0.695801,
-4.54254,0.701904,
-4.54254,0.695801,
-4.54407,0.694275,
-4.53949,0.692749,
-4.53949,0.695801,
-4.54407,0.701904,
-4.54407,0.695801,
-4.54865,0.692749,
-4.55017,0.695801,
-4.54865,0.695801,
-4.54865,0.698853,
-4.54865,0.692749,
-4.54712,0.692749,
-4.54712,0.691223,
-4.54407,0.695801,
-4.54102,0.700378,
-4.54102,0.695801,
-4.53949,0.692749,
-4.53949,0.692749,
-4.53644,0.698853,
-4.53644,0.701904,
-4.53339,0.692749,
-4.53644,0.692749,
-4.53186,0.689697,
-4.53186,0.692749,
-4.52881,0.70343,
-4.52881,0.694275,
-4.52271,0.692749,
-4.52271,0.692749,
-4.52118,0.694275,
-4.52118,0.70343,
-4.52271,0.692749,
-4.52423,0.694275,
-4.52423,0.694275,
-4.52728,0.695801,
-4.52576,0.700378,
-4.52423,0.695801,
-4.52728,0.692749,
-4.52881,0.691223,
-4.52576,0.692749,
-4.52728,0.701904,
-4.52271,0.692749,
-4.52271,0.691223,
-4.52576,0.691223,
-4.52576,0.691223,
-4.52423,0.701904,
-4.52576,0.694275,
-4.52728,0.689697,
-4.53033,0.691223,
-4.53186,0.695801,
-4.53491,0.70343,
-4.53949,0.691223,
-4.54254,0.689697,
-4.54407,0.688171,
-4.54559,0.691223,
-4.54712,0.700378,
-4.55322,0.692749,
-4.5517,0.692749,
-4.55475,0.689697,
-4.5517,0.692749,
-4.55627,0.698853,
-4.55933,0.692749,
-4.56543,0.688171,
-4.56696,0.692749,
-4.57764,0.695801,
-4.58527,0.698853,
-4.58527,0.692749,
-4.5929,0.691223,
-4.599,0.689697,
-4.60205,0.692749,
-4.60815,0.701904,
-4.61578,0.691223,
-4.62036,0.689697,
-4.62341,0.688171,
-4.62952,0.692749,
-4.63257,0.695801,
-4.64325,0.695801,
-4.6463,0.68512,
-4.6524,0.689697,
-4.66003,0.694275,
-4.66003,0.698853,
-4.66003,0.691223,
-4.66614,0.692749,
-4.66614,0.686646,
-4.66766,0.689697,
-4.66461,0.694275,
-4.66461,0.689697,
-4.66309,0.688171,
-4.66461,0.688171,
-4.66156,0.692749,
-4.66919,0.698853,
-4.66919,0.691223,
-4.66919,0.689697,
-4.67682,0.686646,
-4.67834,0.689697,
-4.67682,0.694275,
-4.67224,0.691223,
-4.66766,0.691223,
-4.66309,0.688171,
-4.65851,0.694275,
-4.64783,0.698853,
-4.63104,0.692749,
-4.61426,0.691223,
-4.6051,0.686646,
-4.5929,0.689697,
-4.57764,0.695801,
-4.56085,0.689697,
-4.54865,0.686646,
-4.53949,0.68512,
-4.52576,0.689697,
-4.5105,0.698853,
-4.50134,0.692749,
-4.48914,0.686646,
-4.47998,0.686646,
-4.47235,0.689697,
-4.45862,0.692749,
-4.45251,0.691223,
-4.44336,0.689697,
-4.43268,0.68512,
-4.4281,0.691223,
-4.42047,0.694275,
-4.41742,0.688171,
-4.41437,0.686646,
-4.41284,0.688171,
-4.41132,0.689697,
-4.40674,0.695801,
-4.40216,0.689697,
-4.40216,0.68512,
-4.40369,0.689697,
-4.40369,0.689697,
-4.40826,0.694275,
-4.40826,0.691223,
-4.41437,0.688171,
-4.42047,0.68512,
-4.41589,0.691223,
-4.41742,0.694275,
-4.41742,0.691223,
-4.422,0.691223,
-4.42657,0.68512,
-4.42505,0.691223,
-4.4281,0.692749,
-4.43115,0.691223,
-4.4281,0.688171,
-4.43268,0.68512,
-4.43268,0.689697,
-4.42963,0.692749,
-4.42963,0.688171,
-4.42963,0.686646,
-4.42963,0.68512,
-4.43115,0.692749,
-4.4281,0.692749,
-4.43726,0.686646,
-4.43878,0.691223,
-4.44031,0.686646,
-4.43878,0.689697,
-4.44031,0.692749,
-4.43268,0.688171,
-4.43115,0.68512,
-4.43115,0.683594,
-4.4281,0.689697,
-4.42657,0.694275,
-4.42657,0.686646,
-4.4281,0.686646,
-4.43268,0.68512,
-4.43268,0.688171,
-4.43115,0.692749,
-4.42963,0.689697,
-4.42657,0.686646,
-4.42505,0.68512,
-4.422,0.686646,
-4.42047,0.691223,
-4.41589,0.686646,
-4.41437,0.689697,
-4.41132,0.683594,
-4.40979,0.688171,
-4.40521,0.691223,
-4.40369,0.683594,
-4.39758,0.686646,
-4.39758,0.68512,
-4.39758,0.688171,
-4.39606,0.691223,
-4.39758,0.68512,
-4.39911,0.686646,
-4.39453,0.68512,
-4.39301,0.689697,
-4.39301,0.692749,
-4.39606,0.68512,
-4.39453,0.686646,
-4.39148,0.68512,
-4.39453,0.686646,
-4.39453,0.692749,
-4.39301,0.68512,
-4.39301,0.686646,
-4.39453,0.680542,
-4.39606,0.689697,
-4.39758,0.692749,
-4.39911,0.683594,
-4.40674,0.68512,
-4.40674,0.68512,
-4.41132,0.688171,
-4.41132,0.692749,
-4.40979,0.682068,
-4.41284,0.683594,
-4.41437,0.686646,
-4.41589,0.686646,
-4.41589,0.692749,
-4.41284,0.680542,
-4.41589,0.683594,
-4.41742,0.683594,
-4.422,0.688171,
-4.41895,0.689697,
-4.42047,0.682068,
-4.41895,0.68512,
-4.41742,0.682068,
-4.41895,0.688171,
-4.41895,0.689697,
-4.42505,0.683594,
-4.42505,0.68512,
-4.42963,0.68512,
-4.43268,0.688171,
-4.43268,0.689697,
-4.43726,0.683594,
-4.44183,0.683594,
-4.44641,0.683594,
-4.44489,0.688171,
-4.45251,0.691223,
-4.45557,0.68512,
-4.46014,0.68512,
-4.46472,0.682068,
-4.46777,0.68512,
-4.4754,0.689697,
-4.47693,0.680542,
-4.48151,0.680542,
-4.48303,0.680542,
-4.49066,0.686646,
-4.48914,0.68512,
-4.49371,0.680542,
-4.49524,0.682068,
-4.49371,0.682068,
-4.49677,0.686646,
-4.49677,0.683594,
-4.49982,0.680542,
-4.50287,0.682068,
-4.50745,0.680542,
-4.50897,0.688171,
-4.51202,0.68512,
-4.51965,0.68512,
-4.52118,0.680542,
-4.52423,0.680542,
-4.52423,0.682068,
-4.52118,0.686646,
-4.51965,0.67749,
-4.51813,0.680542,
-4.51508,0.679016,
-4.51202,0.686646,
-4.50745,0.68512,
-4.49829,0.679016,
-4.48914,0.679016,
-4.47998,0.680542,
-4.47083,0.683594,
-4.45404,0.68512,
-4.44336,0.680542,
-4.42963,0.683594,
-4.41437,0.679016,
-4.40216,0.686646,
-4.38843,0.68512,
-4.37927,0.682068,
-4.36249,0.680542,
-4.35333,0.679016,
-4.34113,0.688171,
-4.33044,0.682068,
-4.32281,0.680542,
-4.31061,0.67749,
-4.30603,0.679016,
-4.29688,0.683594,
-4.29077,0.68512,
-4.28467,0.680542,
-4.27704,0.680542,
-4.27246,0.682068,
-4.26636,0.686646,
-4.26178,0.683594,
-4.26483,0.680542,
-4.26483,0.680542,
-4.26483,0.682068,
-4.26636,0.686646,
-4.26483,0.686646,
-4.26483,0.682068,
-4.27094,0.680542,
-4.27094,0.679016,
-4.27551,0.68512,
-4.27399,0.68512,
-4.27856,0.680542,
-4.28162,0.675964,
-4.28772,0.682068,
-4.28925,0.683594,
-4.2923,0.680542,
-4.2923,0.680542,
-4.29382,0.680542,
-4.30145,0.679016,
-4.30145,0.683594,
-4.29993,0.680542,
-4.3045,0.680542,
-4.30603,0.679016,
-4.31213,0.679016,
-4.31213,0.683594,
-4.31366,0.680542,
-4.31671,0.679016,
-4.31976,0.67749,
-4.32129,0.675964,
-4.32587,0.68512,
-4.32739,0.683594,
-4.33044,0.675964,
-4.33502,0.67749,
-4.33655,0.67749,
-4.33502,0.68512,
-4.33502,0.682068,
-4.3335,0.679016,
-4.33502,0.679016,
-4.34113,0.675964,
-4.3396,0.680542,
-4.33807,0.679016,
-4.33807,0.67749,
-4.33655,0.675964,
-4.3335,0.672913,
-4.33044,0.683594,
-4.32739,0.682068,
-4.32587,0.67749,
-4.32281,0.67749,
-4.31824,0.672913,
-4.31671,0.682068,
-4.31366,0.679016,
-4.31366,0.675964,
-4.30756,0.674438,
-4.30298,0.672913,
-4.29993,0.682068,
-4.29535,0.679016,
-4.29535,0.675964,
-4.29077,0.67749,
-4.29077,0.675964,
-4.28925,0.679016,
-4.28925,0.679016,
-4.28619,0.675964,
-4.28467,0.674438,
-4.28772,0.674438,
-4.28925,0.679016,
-4.29077,0.680542,
-4.28925,0.669861,
-4.29382,0.674438,
-4.29382,0.672913,
-4.29382,0.67749,
-4.29077,0.675964,
-4.29077,0.668335,
-4.29077,0.666809,
-4.29077,0.672913,
-4.2923,0.680542,
-4.2923,0.675964,
-4.29077,0.672913,
-4.29077,0.669861,
-4.29382,0.671387,
-4.28925,0.679016,
-4.2923,0.67749,
-4.2923,0.672913,
-4.29077,0.671387,
-4.29077,0.671387,
-4.28925,0.680542,
-4.28619,0.67749,
-4.28314,0.675964,
-4.28009,0.671387,
-4.28009,0.672913,
-4.28009,0.675964,
-4.28162,0.675964,
-4.28162,0.672913,
-4.28314,0.671387,
-4.28619,0.669861,
-4.29077,0.679016,
-4.29077,0.675964,
-4.29688,0.672913,
-4.29993,0.672913,
-4.3045,0.669861,
-4.31061,0.680542,
-4.30908,0.675964,
-4.30908,0.672913,
-4.31366,0.671387,
-4.31519,0.671387,
-4.31519,0.674438,
-4.31824,0.67749,
-4.32129,0.671387,
-4.31976,0.672913,
-4.31671,0.671387,
-4.31824,0.675964,
-4.31824,0.675964,
-4.32129,0.674438,
-4.32129,0.669861,
-4.32434,0.671387,
-4.32281,0.675964,
-4.32434,0.674438,
-4.3335,0.672913,
-4.33502,0.666809,
-4.33655,0.671387,
-4.34113,0.674438,
-4.34265,0.674438,
-4.34723,0.672913,
-4.34723,0.671387,
-4.35181,0.669861,
-4.35028,0.675964,
-4.35486,0.672913,
-4.35181,0.668335,
-4.35638,0.666809,
-4.35638,0.671387,
-4.35638,0.672913,
-4.35638,0.672913,
-4.35333,0.669861,
-4.34723,0.668335,
-4.3457,0.669861,
-4.33502,0.669861,
-4.32434,0.671387,
-4.31519,0.669861,
-4.30298,0.669861,
-4.2923,0.666809,
-4.27704,0.672913,
-4.26788,0.672913,
-4.25415,0.668335,
-4.24652,0.666809,
-4.23889,0.665283,
-4.22668,0.672913,
-4.22058,0.672913,
-4.2099,0.671387,
-4.20227,0.668335,
-4.19312,0.666809,
-4.18701,0.669861,
-4.17786,0.671387,
-4.17175,0.668335,
-4.16412,0.666809,
-4.15649,0.668335,
-4.15039,0.672913,
-4.14734,0.671387,
-4.14429,0.666809,
-4.14581,0.665283,
-4.14886,0.666809,
-4.14581,0.669861,
-4.14429,0.674438,
-4.14581,0.669861,
-4.14429,0.668335,
-4.14276,0.665283,
-4.14124,0.672913,
-4.14581,0.671387,
-4.14429,0.669861,
-4.14734,0.668335,
-4.15039,0.665283,
-4.15649,0.672913,
-4.15802,0.672913,
-4.1626,0.671387,
-4.16565,0.665283,
-4.16565,0.668335,
-4.16718,0.669861,
-4.1687,0.672913,
-4.1748,0.666809,
-4.17633,0.662231,
-4.17938,0.668335,
-4.18243,0.671387,
-4.18396,0.668335,
-4.19312,0.666809,
-4.19312,0.666809,
-4.19312,0.666809,
-4.19617,0.668335,
-4.19922,0.668335,
-4.2038,0.669861,
-4.21143,0.665283,
-4.21295,0.665283,
-4.21753,0.668335,
-4.21295,0.666809,
-4.21295,0.668335,
-4.21753,0.665283,
-4.216,0.662231,
-4.21753,0.668335,
-4.21448,0.669861,
-4.21143,0.666809,
-4.20532,0.662231,
-4.20685,0.666809,
-4.20227,0.668335,
-4.19769,0.669861,
-4.19312,0.666809,
-4.18396,0.666809,
-4.17786,0.660706,
-4.17633,0.668335,
-4.17023,0.666809,
-4.16718,0.665283,
-4.1626,0.665283,
-4.15955,0.662231,
-4.15802,0.666809,
-4.15192,0.668335,
-4.14734,0.668335,
-4.14429,0.668335,
-4.14276,0.666809,
-4.14124,0.668335,
-4.13666,0.666809,
-4.13818,0.668335,
-4.13513,0.662231,
-4.13666,0.665283,
-4.13513,0.666809,
-4.13361,0.666809,
-4.13055,0.662231,
-4.12292,0.665283,
-4.1214,0.662231,
-4.12292,0.666809,
-4.11987,0.668335,
-4.12445,0.668335,
-4.12292,0.65918,
-4.11987,0.665283,
-4.11835,0.668335,
-4.11682,0.666809,
-4.1153,0.666809,
-4.11377,0.660706,
-4.1153,0.65918,
-4.11682,0.666809,
-4.11682,0.665283,
-4.1153,0.666809,
-4.11682,0.662231,
-4.11682,0.660706,
-4.11377,0.662231,
-4.11377,0.665283,
-4.1214,0.665283,
-4.11987,0.65918,
-4.1214,0.660706,
-4.12445,0.662231,
-4.12903,0.665283,
-4.12903,0.666809,
-4.13513,0.656128,
-4.13513,0.65918,
-4.13513,0.665283,
-4.13208,0.665283,
-4.13361,0.665283,
-4.13208,0.65918,
-4.13208,0.65918,
-4.13513,0.666809,
-4.13513,0.662231,
-4.13818,0.662231,
-4.13666,0.65918,
-4.13818,0.657654,
-4.13666,0.662231,
-4.13818,0.662231,
-4.13513,0.665283,
-4.13971,0.65918,
-4.13971,0.657654,
-4.14124,0.665283,
-4.14276,0.668335,
-4.14429,0.668335,
-4.14581,0.660706,
-4.15039,0.660706,
-4.15192,0.665283,
-4.15192,0.665283,
-4.15344,0.666809,
-4.14886,0.662231,
-4.15039,0.656128,
-4.15497,0.665283,
-4.15039,0.660706,
-4.15039,0.662231,
-4.15344,0.660706,
-4.14886,0.654602,
-4.14886,0.662231,
-4.14581,0.65918,
-4.13971,0.666809,
-4.13971,0.657654,
-4.13361,0.657654,
-4.1275,0.662231,
-4.11987,0.65918,
-4.11072,0.666809,
-4.09851,0.65918,
-4.0863,0.656128,
-4.07562,0.662231,
-4.06647,0.660706,
-4.05121,0.666809,
-4.04358,0.660706,
-4.03442,0.65918,
-4.02527,0.660706,
-4.01459,0.660706,
-4.00238,0.662231,
-3.99017,0.657654,
-3.97949,0.657654,
-3.97186,0.666809,
-3.96423,0.662231,
-3.96118,0.665283,
-3.95203,0.657654,
-3.9505,0.654602,
-3.94592,0.65918,
-3.94135,0.65918,
-3.93829,0.666809,
-3.93524,0.65918,
-3.93372,0.656128,
-3.93524,0.665283,
-3.93066,0.660706,
-3.92761,0.65918,
-3.93219,0.657654,
-3.92914,0.656128,
-3.92761,0.65918,
-3.92914,0.662231,
-3.92303,0.65918,
-3.92609,0.65918,
-3.93219,0.657654,
-3.93372,0.657654,
-3.93829,0.65918,
-3.93982,0.65918,
-3.94287,0.656128,
-3.9444,0.657654,
-3.94897,0.660706,
-3.95203,0.65918,
-3.95508,0.65918,
-3.9566,0.65918,
-3.9566,0.654602,
-3.96271,0.660706,
-3.96118,0.660706,
-3.96118,0.65918,
-3.95966,0.657654,
-3.96729,0.654602,
-3.96729,0.65918,
-3.96423,0.660706,
-3.96881,0.662231,
-3.96576,0.656128,
-3.96576,0.654602,
-3.96271,0.657654,
-3.96423,0.65918,
-3.96576,0.65918,
-3.96118,0.657654,
-3.96271,0.656128,
-3.96271,0.660706,
-3.96423,0.657654,
-3.96423,0.660706,
-3.96271,0.657654,
-3.96423,0.654602,
-3.96271,0.65918,
-3.96118,0.65918,
-3.96118,0.662231,
-3.95966,0.657654,
-3.95813,0.654602,
-3.95813,0.657654,
-3.95508,0.656128,
-3.95508,0.660706,
-3.9505,0.65918,
-3.9505,0.656128,
-3.94745,0.656128,
-3.9444,0.65918,
-3.93829,0.662231,
-3.93982,0.657654,
-3.93677,0.656128,
-3.93524,0.656128,
-3.93677,0.657654,
-3.93219,0.662231,
-3.92761,0.65918,
-3.92761,0.656128,
-3.92303,0.660706,
-3.92456,0.65918,
-3.92456,0.662231,
-3.92151,0.65918,
-3.92303,0.653076,
-3.92151,0.657654,
-3.91846,0.657654,
-3.92151,0.657654,
-3.92303,0.660706,
-3.92151,0.656128,
-3.92456,0.657654,
-3.92303,0.65918,
-3.92456,0.65918,
-3.92303,0.65918,
-3.92609,0.653076,
-3.92609,0.65918,
-3.92761,0.657654,
-3.93372,0.65918,
-3.93829,0.65918,
-3.93677,0.656128,
-3.93982,0.657654,
-3.93982,0.656128,
-3.94287,0.65918,
-3.94592,0.660706,
-3.9444,0.653076,
-3.9505,0.657654,
-3.94897,0.65918,
-3.95203,0.662231,
-3.9505,0.65918,
-3.95508,0.657654,
-3.9566,0.65918,
-3.95813,0.660706,
-3.95813,0.660706,
-3.9566,0.660706,
-3.96118,0.656128,
-3.9566,0.657654,
-3.95508,0.657654,
-3.9566,0.656128,
-3.95813,0.656128,
-3.96423,0.656128,
-3.96729,0.657654,
-3.97034,0.657654,
-3.97339,0.656128,
-3.97339,0.65918,
-3.97797,0.654602,
-3.97797,0.657654,
-3.98102,0.654602,
-3.98407,0.660706,
-3.98102,0.656128,
-3.98254,0.654602,
-3.98254,0.656128,
-3.98407,0.656128,
-3.98254,0.662231,
-3.98102,0.654602,
-3.98254,0.657654,
-3.98102,0.657654,
-3.9856,0.656128,
-3.99017,0.660706,
-3.99017,0.657654,
-3.99017,0.654602,
-3.99475,0.656128,
-3.99475,0.657654,
-3.99475,0.660706,
-3.99475,0.654602,
-3.9917,0.653076,
-3.98254,0.653076,
-3.98102,0.65918,
-3.97339,0.660706,
-3.96118,0.654602,
-3.94897,0.65918,
-3.93982,0.660706,
-3.92761,0.65918,
-3.90778,0.660706,
-3.89099,0.65918,
-3.87573,0.656128,
-3.86047,0.65918,
-3.85284,0.657654,
-3.83911,0.65918,
-3.8269,0.654602,
-3.81012,0.654602,
-3.80096,0.657654,
-3.79486,0.660706,
-3.78876,0.65918,
-3.77655,0.657654,
-3.76892,0.654602,
-3.75671,0.65918,
-3.74908,0.657654,
-3.73993,0.662231,
-3.72925,0.656128,
-3.7262,0.657654,
-3.72009,0.65918,
-3.71857,0.660706,
-3.71246,0.660706,
-3.70789,0.654602,
-3.70331,0.657654,
-3.70483,0.660706,
-3.70789,0.657654,
-3.70941,0.662231,
-3.70789,0.657654,
-3.71094,0.656128,
-3.71857,0.660706,
-3.72009,0.657654,
-3.72467,0.65918,
-3.7262,0.657654,
-3.7262,0.654602,
-3.7323,0.65918,
-3.73535,0.656128,
-3.73688,0.660706,
-3.74146,0.656128,
-3.74603,0.654602,
-3.75214,0.65918,
-3.75671,0.65918,
-3.75977,0.662231,
-3.76129,0.656128,
-3.76587,0.656128,
-3.77197,0.65918,
-3.77502,0.657654,
-3.77808,0.660706,
-3.78113,0.656128,
-3.78113,0.656128,
-3.78723,0.65918,
-3.78571,0.660706,
-3.78723,0.65918,
-3.78418,0.660706,
-3.78571,0.653076,
-3.79028,0.65918,
-3.78723,0.662231,
-3.78571,0.662231,
-3.78113,0.65918,
-3.7796,0.656128,
-3.77502,0.660706,
-3.77197,0.660706,
-3.77197,0.665283,
-3.76892,0.657654,
-3.76587,0.657654,
-3.76129,0.660706,
-3.75824,0.662231,
-3.75824,0.662231,
-3.75977,0.657654,
-3.75977,0.657654,
-3.75977,0.660706,
-3.75671,0.657654,
-3.75214,0.665283,
-3.74908,0.657654,
-3.75061,0.657654,
-3.74146,0.660706,
-3.74146,0.660706,
-3.73993,0.662231,
-3.73535,0.660706,
-3.73535,0.65918,
-3.7323,0.65918,
-3.73383,0.660706,
-3.73077,0.665283,
-3.72467,0.65918,
-3.7262,0.657654,
-3.7262,0.662231,
-3.72925,0.662231,
-3.72772,0.668335,
-3.72772,0.65918,
-3.72467,0.657654,
-3.7262,0.662231,
-3.72467,0.665283,
-3.72314,0.665283,
-3.72467,0.65918,
-3.72009,0.662231,
-3.72162,0.662231,
-3.72314,0.65918,
-3.72467,0.666809,
-3.72772,0.65918,
-3.72772,0.660706,
-3.72925,0.660706,
-3.7262,0.662231,
-3.72467,0.662231,
-3.7262,0.662231,
-3.72314,0.660706,
-3.72772,0.662231,
-3.72314,0.662231,
-3.72162,0.662231,
-3.72467,0.660706,
-3.7262,0.65918,
-3.72314,0.65918,
-3.72314,0.660706,
-3.72162,0.666809,
-3.72162,0.660706,
-3.71704,0.660706,
-3.71552,0.660706,
-3.71094,0.665283,
-3.71094,0.665283,
-3.70789,0.660706,
-3.70941,0.65918,
-3.70331,0.662231,
-3.70483,0.665283,
-3.70483,0.662231,
-3.70636,0.665283,
-3.70789,0.660706,
-3.70789,0.660706,
-3.70789,0.668335,
-3.70789,0.665283,
-3.70483,0.665283,
-3.70483,0.660706,
-3.70331,0.666809,
-3.70331,0.666809,
-3.69873,0.665283,
-3.70331,0.65918,
-3.70483,0.660706,
-3.70483,0.665283,
-3.70331,0.666809,
-3.70789,0.662231,
-3.70789,0.660706,
-3.70636,0.662231,
-3.70941,0.665283,
-3.70789,0.668335,
-3.70331,0.662231,
-3.70026,0.665283,
-3.6972,0.660706,
-3.69263,0.662231,
-3.69415,0.666809,
-3.68195,0.666809,
-3.67126,0.660706,
-3.66669,0.660706,
-3.65448,0.665283,
-3.63922,0.666809,
-3.63007,0.666809,
-3.6087,0.665283,
-3.5965,0.662231,
-3.58429,0.662231,
-3.56903,0.668335,
-3.56293,0.666809,
-3.55225,0.660706,
-3.53699,0.662231,
-3.52936,0.665283,
-3.51868,0.666809,
-3.51105,0.665283,
-3.50037,0.665283,
-3.49579,0.660706,
-3.48969,0.662231,
-3.48511,0.669861,
-3.48206,0.668335,
-3.48053,0.666809,
-3.47595,0.662231,
-3.47137,0.665283,
-3.47595,0.669861,
-3.48053,0.666809,
-3.48053,0.662231,
-3.48358,0.662231,
-3.48206,0.666809,
-3.48663,0.669861,
-3.49121,0.662231,
-3.48969,0.666809,
-3.48969,0.666809,
-3.49426,0.662231,
-3.49731,0.671387,
-3.49731,0.671387,
-3.49884,0.666809,
-3.50189,0.665283,
-3.50342,0.662231,
-3.50494,0.671387,
-3.50494,0.669861,
-3.51105,0.668335,
-3.50952,0.665283,
-3.50952,0.666809,
-3.51868,0.668335,
-3.51715,0.669861,
-3.51715,0.662231,
-3.52631,0.662231,
-3.52936,0.668335,
-3.53088,0.671387,
-3.52783,0.669861,
-3.53088,0.665283,
-3.53241,0.665283,
-3.53241,0.668335,
-3.53088,0.674438,
-3.52936,0.669861,
-3.52783,0.665283,
-3.52325,0.668335,
-3.52173,0.666809,
-3.51563,0.671387,
-3.50952,0.666809,
-3.50494,0.665283,
-3.49884,0.665283,
-3.49579,0.671387,
-3.48969,0.671387,
-3.48816,0.668335,
-3.47748,0.665283,
-3.47443,0.668335,
-3.46832,0.665283,
-3.46832,0.668335,
-3.46222,0.669861,
-3.46069,0.669861,
-3.45917,0.665283,
-3.45306,0.665283,
-3.44849,0.671387,
-3.45001,0.669861,
-3.44849,0.665283,
-3.44696,0.668335,
-3.43933,0.666809,
-3.43475,0.668335,
-3.42865,0.671387,
-3.42407,0.662231,
-3.42407,0.665283,
-3.41797,0.666809,
-3.41797,0.669861,
-3.41644,0.671387,
-3.41339,0.662231,
-3.40729,0.668335,
-3.41034,0.666809,
-3.40729,0.671387,
-3.41034,0.669861,
-3.41034,0.665283,
-3.41034,0.666809,
-3.41339,0.665283,
-3.41034,0.671387,
-3.41339,0.671387,
-3.41187,0.668335,
-3.41187,0.668335,
-3.41492,0.662231,
-3.41644,0.672913,
-3.41797,0.671387,
-3.41797,0.668335,
-3.42102,0.666809,
-3.42255,0.666809,
-3.42407,0.671387,
-3.42407,0.672913,
-3.42712,0.668335,
-3.42407,0.668335,
-3.4256,0.669861,
-3.42255,0.675964,
-3.4256,0.671387,
-3.4256,0.666809,
-3.43018,0.668335,
-3.4256,0.668335,
-3.43018,0.674438,
-3.42712,0.674438,
-3.43323,0.668335,
-3.43018,0.669861,
-3.43323,0.666809,
-3.43933,0.672913,
-3.44543,0.671387,
-3.44696,0.666809,
-3.45306,0.666809,
-3.45459,0.666809,
-3.45764,0.671387,
-3.45764,0.671387,
-3.45917,0.666809,
-3.46069,0.668335,
-3.46069,0.668335,
-3.46222,0.669861,
-3.45764,0.669861,
-3.46222,0.665283,
-3.46069,0.668335,
-3.46375,0.669861,
-3.46527,0.666809,
-3.46527,0.674438,
-3.46527,0.665283,
-3.46527,0.666809,
-3.46527,0.665283,
-3.46375,0.671387,
-3.46222,0.672913,
-3.46222,0.665283,
-3.46069,0.669861,
-3.45612,0.665283,
-3.45154,0.672913,
-3.44696,0.674438,
-3.43933,0.666809,
-3.43323,0.669861,
-3.42102,0.668335,
-3.41644,0.672913,
-3.40271,0.675964,
-3.3905,0.662231,
-3.37524,0.669861,
-3.35999,0.668335,
-3.3493,0.672913,
-3.33252,0.672913,
-3.32031,0.666809,
-3.31116,0.666809,
-3.2959,0.668335,
-3.28522,0.671387,
-3.26538,0.671387,
-3.25165,0.666809,
-3.23639,0.668335,
-3.22113,0.668335,
-3.21198,0.671387,
-3.20129,0.672913,
-3.19366,0.668335,
-3.18756,0.669861,
-3.18451,0.668335,
-3.17535,0.674438,
-3.16925,0.672913,
-3.15857,0.669861,
-3.15704,0.671387,
-3.15552,0.668335,
-3.15399,0.672913,
-3.14941,0.675964,
-3.15552,0.668335,
-3.15704,0.672913,
-3.15704,0.671387,
-3.15857,0.672913,
-3.16162,0.671387,
-3.1662,0.666809,
-3.1662,0.672913,
-3.17078,0.666809,
-3.1723,0.674438,
-3.17383,0.674438,
-3.17535,0.668335,
-3.18146,0.671387,
-3.18756,0.669861,
-3.19214,0.674438,
-3.19366,0.672913,
-3.19366,0.668335,
-3.20435,0.672913,
-3.20435,0.668335,
-3.2074,0.675964,
-3.21045,0.672913,
-3.21198,0.666809,
-3.21503,0.671387,
-3.21503,0.671387,
-3.21655,0.672913,
-3.21503,0.671387,
-3.21655,0.666809,
-3.21655,0.668335,
-3.21503,0.671387,
-3.21503,0.675964,
-3.21655,0.672913,
-3.21198,0.666809,
-3.21198,0.668335,
-3.21198,0.666809,
-3.20892,0.674438,
-3.20587,0.672913,
-3.20435,0.668335,
-3.20282,0.671387,
-3.19672,0.671387,
-3.19519,0.672913,
-3.19214,0.672913,
-3.18604,0.666809,
-3.18298,0.668335,
-3.17841,0.669861,
-3.17078,0.675964,
-3.16467,0.672913,
-3.15552,0.674438,
-3.14941,0.671387,
-3.13873,0.666809,
-3.12805,0.674438,
-3.12195,0.672913,
-3.11584,0.666809,
-3.10669,0.668335,
-3.10516,0.668335,
-3.10059,0.672913,
-3.09906,0.674438,
-3.09601,0.668335,
-3.08838,0.668335,
-3.0838,0.669861,
-3.08228,0.674438,
-3.07617,0.674438,
-3.07007,0.671387,
-3.07007,0.668335,
-3.06702,0.669861,
-3.05786,0.672913,
-3.05481,0.672913,
-3.05328,0.668335,
-3.05328,0.666809,
-3.05023,0.668335,
-3.04871,0.672913,
-3.04871,0.669861,
-3.04565,0.669861,
-3.0426,0.669861,
-3.04108,0.671387,
-3.03802,0.671387,
-3.03802,0.671387,
-3.03345,0.671387,
-3.03192,0.668335,
-3.03497,0.666809,
-3.03345,0.674438,
-3.03345,0.672913,
-3.0304,0.669861,
-3.03192,0.668335,
-3.02887,0.666809,
-3.02429,0.674438,
-3.0304,0.672913,
-3.02734,0.669861,
-3.02887,0.666809,
-3.02429,0.672913,
-3.02277,0.672913,
-3.02734,0.668335,
-3.02124,0.668335,
-3.02429,0.668335,
-3.02124,0.668335,
-3.01971,0.671387,
-3.02429,0.671387,
-3.01971,0.668335,
-3.02277,0.666809,
-3.02124,0.671387,
-3.02429,0.671387,
-3.02734,0.672913,
-3.02429,0.671387,
-3.02429,0.668335,
-3.02887,0.669861,
-3.0304,0.674438,
-3.03497,0.672913,
-3.03802,0.668335,
-3.0365,0.666809,
-3.03955,0.668335,
-3.04108,0.674438,
-3.04413,0.671387,
-3.05176,0.672913,
-3.05328,0.666809,
-3.04871,0.668335,
-3.05481,0.674438,
-3.05786,0.666809,
-3.05939,0.668335,
-3.05939,0.666809,
-3.06244,0.671387,
-3.05481,0.674438,
-3.05176,0.669861,
-3.04718,0.668335,
-3.03802,0.666809,
-3.02734,0.666809,
-3.01208,0.668335,
-2.99988,0.669861,
-2.98157,0.669861,
-2.96631,0.662231,
-2.948,0.668335,
-2.92969,0.666809,
-2.91138,0.671387,
-2.89917,0.668335,
-2.88086,0.666809,
-2.86255,0.669861,
-2.84729,0.669861,
-2.83508,0.672913,
-2.81677,0.668335,
-2.80609,0.665283,
-2.79236,0.669861,
-2.77863,0.671387,
-2.771,0.671387,
-2.76337,0.668335,
-2.75879,0.662231,
-2.74963,0.665283,
-2.74048,0.669861,
-2.7359,0.668335,
-2.73132,0.665283,
-2.72369,0.666809,
-2.72217,0.668335,
-2.71912,0.671387,
-2.71759,0.668335,
-2.71912,0.666809,
-2.71454,0.662231,
-2.71454,0.668335,
-2.71454,0.674438,
-2.71912,0.666809,
-2.72217,0.666809,
-2.7298,0.662231,
-2.73132,0.666809,
-2.72827,0.671387,
-2.73132,0.668335,
-2.7298,0.665283,
-2.73438,0.662231,
-2.73895,0.669861,
-2.74353,0.669861,
-2.74811,0.671387,
-2.74963,0.666809,
-2.75726,0.662231,
-2.76031,0.669861,
-2.76489,0.669861,
-2.76642,0.668335,
-2.771,0.669861,
-2.7771,0.660706,
-2.77863,0.666809,
-2.7832,0.669861,
-2.78168,0.669861,
-2.79083,0.665283,
-2.79236,0.65918,
-2.79846,0.668335,
-2.79846,0.669861,
-2.79541,0.669861,
-2.79083,0.666809,
-2.78778,0.660706,
-2.77863,0.668335,
-2.771,0.672913,
-2.76489,0.669861,
-2.76031,0.666809,
-2.74963,0.662231,
-2.74658,0.665283,
-2.742,0.669861,
-2.73743,0.672913,
-2.73285,0.666809,
-2.72675,0.660706,
-2.72064,0.666809,
-2.70996,0.669861,
-2.70538,0.668335,
-2.69928,0.666809,
-2.6947,0.662231,
-2.68707,0.668335,
-2.68555,0.669861,
-2.67639,0.666809,
-2.67487,0.660706,
-2.67029,0.660706,
-2.66724,0.668335,
-2.66266,0.668335,
-2.66113,0.668335,
-2.65656,0.665283,
-2.65808,0.660706,
-2.65198,0.669861,
-2.64435,0.669861,
-2.64282,0.668335,
-2.64435,0.666809,
-2.63367,0.660706,
-2.63062,0.662231,
-2.63062,0.669861,
-2.62909,0.666809,
-2.62756,0.665283,
-2.62604,0.656128,
-2.62146,0.668335,
-2.61993,0.671387,
-2.62299,0.665283,
-2.62451,0.666809,
-2.62146,0.645447,
-2.62146,0.665283,
-2.62299,0.668335,
-2.62756,0.668335,
-2.62756,0.662231,
-2.62604,0.643921,
-2.63062,0.662231,
-2.63214,0.668335,
-2.63214,0.666809,
-2.63672,0.666809,
-2.64282,0.656128,
-2.64435,0.665283,
-2.65045,0.669861,
-2.65503,0.668335,
-2.65961,0.662231,
-2.66571,0.65918,
-2.66876,0.666809,
-2.67029,0.665283,
-2.67029,0.665283,
-2.67487,0.662231,
-2.67487,0.657654,
-2.67639,0.665283,
-2.67639,0.666809,
-2.67944,0.662231,
-2.68097,0.662231,
-2.67792,0.654602,
-2.67944,0.668335,
-2.67639,0.665283,
-2.67944,0.666809,
-2.67944,0.665283,
-2.68555,0.65918,
-2.68097,0.665283,
-2.68555,0.660706,
-2.68402,0.662231,
-2.68402,0.665283,
-2.67944,0.656128,
-2.68555,0.65918,
-2.68402,0.665283,
-2.67944,0.662231,
-2.68707,0.665283,
-2.68402,0.654602,
-2.67792,0.660706,
-2.67487,0.666809,
-2.67487,0.662231,
-2.66724,0.666809,
-2.66724,0.654602,
-2.66113,0.665283,
-2.65503,0.665283,
-2.64893,0.660706,
-2.63824,0.662231,
-2.62756,0.657654,
-2.61993,0.665283,
-2.60162,0.665283,
-2.59094,0.662231,
-2.56958,0.660706,
-2.55432,0.654602,
-2.52991,0.662231,
-2.51465,0.662231,
-2.49786,0.662231,
-2.4826,0.665283,
-2.46582,0.648499,
-2.45209,0.662231,
-2.43683,0.669861,
-2.42004,0.662231,
-2.40326,0.65918,
-2.39105,0.657654,
-2.37732,0.662231,
-2.36664,0.665283,
-2.35291,0.665283,
-2.3407,0.665283,
-2.33307,0.654602,
-2.32391,0.660706,
-2.32086,0.665283,
-2.31323,0.666809,
-2.30255,0.65918,
-2.29797,0.653076,
-2.2934,0.660706,
-2.28577,0.666809,
-2.28119,0.662231,
-2.27966,0.665283,
-2.27509,0.657654,
-2.27509,0.660706,
-2.27661,0.662231,
-2.27661,0.660706,
-2.27356,0.65918,
-2.27661,0.654602,
-2.27661,0.662231,
-2.27509,0.662231,
-2.27814,0.660706,
-2.28271,0.65918,
-2.28119,0.654602,
-2.28271,0.662231,
-2.28577,0.665283,
-2.29034,0.662231,
-2.29187,0.65918,
-2.29187,0.654602,
-2.29492,0.656128,
-2.2934,0.665283,
-2.29187,0.660706,
-2.29187,0.65918,
-2.2934,0.653076,
-2.29492,0.657654,
-2.29492,0.660706,
-2.29034,0.660706,
-2.29187,0.65918,
-2.29187,0.65155,
-2.28882,0.65918,
-2.28882,0.662231,
-2.28577,0.660706,
-2.28424,0.65918,
-2.28119,0.654602,
-2.28119,0.65918,
-2.27203,0.65918,
-2.26593,0.65918,
-2.26288,0.657654,
-2.26135,0.656128,
-2.2583,0.656128,
-2.25525,0.660706,
-2.24762,0.662231,
-2.24609,0.65918,
-2.24152,0.656128,
-2.24152,0.657654,
-2.23846,0.660706,
-2.23389,0.657654,
-2.23083,0.65918,
-2.22473,0.653076,
-2.22321,0.660706,
-2.22168,0.657654,
-2.21405,0.656128,
-2.211,0.660706,
-2.211,0.653076,
-2.21252,0.657654,
-2.2049,0.657654,
-2.2049,0.657654,
-2.20184,0.656128,
-2.19574,0.653076,
-2.19116,0.657654,
-2.18811,0.657654,
-2.18353,0.656128,
-2.17896,0.65918,
-2.18353,0.653076,
-2.18048,0.656128,
-2.17896,0.656128,
-2.18048,0.657654,
-2.18201,0.657654,
-2.18353,0.646973,
-2.18353,0.656128,
-2.18964,0.657654,
-2.19269,0.657654,
-2.19727,0.656128,
-2.19879,0.65155,
-2.19574,0.657654,
-2.19879,0.657654,
-2.19879,0.654602,
-2.19421,0.653076,
-2.19727,0.650024,
-2.19879,0.657654,
-2.19879,0.656128,
-2.20337,0.654602,
-2.20642,0.656128,
-2.2049,0.650024,
-2.211,0.657654,
-2.21558,0.657654,
-2.21405,0.656128,
-2.21558,0.653076,
-2.21252,0.650024,
-2.211,0.656128,
-2.211,0.65918,
-2.21558,0.657654,
-2.21405,0.653076,
-2.21405,0.65155,
-2.21558,0.656128,
-2.21405,0.656128,
-2.21252,0.654602,
-2.21405,0.653076,
-2.21252,0.648499,
-2.21252,0.656128,
-2.21863,0.657654,
-2.22015,0.654602,
-2.22321,0.65155,
-2.22931,0.650024,
-2.23236,0.654602,
-2.23846,0.656128,
-2.23999,0.656128,
-2.24304,0.650024,
-2.24457,0.648499,
-2.24457,0.654602,
-2.24304,0.654602,
-2.24304,0.654602,
-2.24304,0.654602,
-2.24152,0.650024,
-2.23694,0.654602,
-2.22931,0.656128,
-2.22473,0.656128,
-2.211,0.650024,
-2.20184,0.646973,
-2.19269,0.656128,
-2.18201,0.650024,
-2.17285,0.65155,
-2.15607,0.650024,
-2.14233,0.648499,
-2.12402,0.65155,
-2.11334,0.653076,
-2.09351,0.654602,
-2.07825,0.645447,
-2.06451,0.650024,
-2.04773,0.65155,
-2.03094,0.654602,
-2.01874,0.650024,
-2.00043,0.646973,
-1.98364,0.648499,
-1.96838,0.653076,
-1.9516,0.653076,
-1.93787,0.65155,
-1.92108,0.646973,
-1.9104,0.648499,
-1.89514,0.654602,
-1.88599,0.656128,
-1.87378,0.650024,
-1.86768,0.646973,
-1.85547,0.646973,
-1.84784,0.65155,
-1.83868,0.654602,
-1.82953,0.650024,
-1.81885,0.646973,
-1.81274,0.65155,
-1.80969,0.65155,
-1.80664,0.650024,
-1.80511,0.65155,
-1.80664,0.646973,
-1.80664,0.646973,
-1.80359,0.653076,
-1.80511,0.65155,
-1.80206,0.65155,
-1.80359,0.648499,
-1.80054,0.650024,
-1.80359,0.653076,
-1.80664,0.65155,
-1.80206,0.65155,
-1.80511,0.645447,
-1.80969,0.650024,
-1.81122,0.65155,
-1.80969,0.653076,
-1.81274,0.653076,
-1.81122,0.646973,
-1.81122,0.646973,
-1.81122,0.653076,
-1.81122,0.650024,
-1.81122,0.65155,
-1.81427,0.642395,
-1.81732,0.650024,
-1.81427,0.65155,
-1.81274,0.653076,
-1.80969,0.653076,
-1.81122,0.643921,
-1.81122,0.643921,
-1.80664,0.648499,
-1.80054,0.650024,
-1.79901,0.65155,
-1.79443,0.643921,
-1.79291,0.646973,
-1.78375,0.650024,
-1.77765,0.650024,
-1.77002,0.65155,
-1.76697,0.643921,
-1.76697,0.646973,
-1.76239,0.653076,
-1.75781,0.653076,
-1.75476,0.648499,
-1.75018,0.643921,
-1.74408,0.645447,
-1.7395,0.648499,
-1.73035,0.650024,
-1.72729,0.653076,
-1.72577,0.642395,
-1.72119,0.646973,
-1.71509,0.650024,
-1.71204,0.650024,
-1.71204,0.646973,
-1.70593,0.642395,
-1.71051,0.645447,
-1.70441,0.650024,
-1.70441,0.650024,
-1.70135,0.648499,
-1.70441,0.645447,
-1.70746,0.645447,
-1.70441,0.648499,
-1.70898,0.650024,
-1.70746,0.648499,
-1.71051,0.643921,
-1.71051,0.646973,
-1.70898,0.646973,
-1.71204,0.650024,
-1.71661,0.648499,
-1.72119,0.642395,
-1.72272,0.642395,
-1.72577,0.646973,
-1.72424,0.648499,
-1.72882,0.648499,
-1.72729,0.640869,
-1.73187,0.646973,
-1.7334,0.648499,
-1.73645,0.648499,
-1.73492,0.650024,
-1.74103,0.640869,
-1.74255,0.645447,
-1.74255,0.643921,
-1.74408,0.646973,
-1.74561,0.648499,
-1.74255,0.640869,
-1.74561,0.645447,
-1.74255,0.648499,
-1.74408,0.648499,
-1.74866,0.643921,
-1.75476,0.640869,
-1.75934,0.643921,
-1.76086,0.643921,
-1.76849,0.650024,
-1.76544,0.645447,
-1.77002,0.639343,
-1.77307,0.645447,
-1.7746,0.645447,
-1.7746,0.650024,
-1.77917,0.646973,
-1.7868,0.640869,
-1.78986,0.643921,
-1.79291,0.643921,
-1.79596,0.646973,
-1.79749,0.648499,
-1.79901,0.642395,
-1.80206,0.639343,
-1.80664,0.640869,
-1.81122,0.646973,
-1.81122,0.642395,
-1.8158,0.645447,
-1.81885,0.642395,
-1.8158,0.645447,
-1.8158,0.648499,
-1.81427,0.643921,
-1.80817,0.639343,
-1.80206,0.642395,
-1.79291,0.642395,
-1.78223,0.645447,
-1.77002,0.646973,
-1.75781,0.640869,
-1.74255,0.645447,
-1.72882,0.643921,
-1.71204,0.645447,
-1.69373,0.643921,
-1.67236,0.642395,
-1.6571,0.639343,
-1.63727,0.646973,
-1.62048,0.648499,
-1.60675,0.645447,
-1.58997,0.640869,
-1.57318,0.642395,
-1.55487,0.646973,
-1.54114,0.645447,
-1.53046,0.645447,
-1.51215,0.640869,
-1.49689,0.642395,
-1.48163,0.643921,
-1.46637,0.643921,
-1.44958,0.645447,
-1.4328,0.640869,
-1.42059,0.642395,
-1.40533,0.642395,
-1.39465,0.645447,
-1.38397,0.643921,
-1.37482,0.640869,
-1.36261,0.640869,
-1.35345,0.639343,
-1.34735,0.645447,
-1.33209,0.645447,
-1.32904,0.642395,
-1.32141,0.636292,
-1.31836,0.642395,
-1.31531,0.645447,
-1.31226,0.645447,
-1.31073,0.639343,
-1.30463,0.640869,
-1.29852,0.640869,
-1.3031,0.645447,
-1.30005,0.642395,
-1.30157,0.639343,
-1.3031,0.637817,
-1.30157,0.642395,
-1.3092,0.643921,
-1.30463,0.645447,
-1.30463,0.642395,
-1.3092,0.637817,
-1.31073,0.642395,
-1.31073,0.643921,
-1.31226,0.640869,
-1.31378,0.642395,
-1.31683,0.640869,
-1.31836,0.639343,
-1.32294,0.643921,
-1.32141,0.642395,
-1.32446,0.640869,
-1.32446,0.637817,
-1.32141,0.639343,
-1.32599,0.645447,
-1.32141,0.640869,
-1.31989,0.637817,
-1.31989,0.637817,
-1.31836,0.636292,
-1.31836,0.642395,
-1.31989,0.642395,
-1.31378,0.639343,
-1.3092,0.639343,
-1.30615,0.637817,
-1.30157,0.643921,
-1.30157,0.642395,
-1.30005,0.640869,
-1.29852,0.639343,
-1.29547,0.636292,
-1.29547,0.642395,
-1.29089,0.643921,
-1.29242,0.637817,
-1.29089,0.639343,
-1.29089,0.637817,
-1.29089,0.646973,
-1.28784,0.643921,
-1.28479,0.639343,
-1.28479,0.639343,
-1.28326,0.637817,
-1.28479,0.643921,
-1.28479,0.642395,
-1.28479,0.640869,
-1.28479,0.637817,
-1.28479,0.634766,
-1.28632,0.642395,
-1.28479,0.639343,
-1.28632,0.637817,
-1.28632,0.640869,
-1.28632,0.636292,
-1.28937,0.640869,
-1.29089,0.640869,
-1.29395,0.640869,
-1.29242,0.640869,
-1.29242,0.634766,
-1.29852,0.640869,
-1.30157,0.642395,
-1.30157,0.639343,
-1.3092,0.637817,
-1.31226,0.636292,
-1.31378,0.642395,
-1.31836,0.639343,
-1.32446,0.639343,
-1.33057,0.636292,
-1.33667,0.636292,
-1.34583,0.642395,
-1.34735,0.642395,
-1.35498,0.639343,
-1.35498,0.636292,
-1.36261,0.636292,
-1.37024,0.639343,
-1.37024,0.637817,
-1.37177,0.642395,
-1.37787,0.637817,
-1.38245,0.634766,
-1.39008,0.642395,
-1.39008,0.642395,
-1.39618,0.640869,
-1.40686,0.640869,
-1.41296,0.634766,
-1.42059,0.640869,
-1.42822,0.639343,
-1.4389,0.640869,
-1.4389,0.637817,
-1.44348,0.634766,
-1.44958,0.642395,
-1.45569,0.639343,
-1.46027,0.639343,
-1.47095,0.637817,
-1.474,0.634766,
-1.48468,0.639343,
-1.48773,0.642395,
-1.49078,0.637817,
-1.49078,0.637817,
-1.49078,0.63324,
-1.49384,0.640869,
-1.49536,0.642395,
-1.49384,0.639343,
-1.48773,0.636292,
-1.4801,0.63324,
-1.47095,0.637817,
-1.46179,0.640869,
-1.44958,0.639343,
-1.43585,0.637817,
-1.42365,0.63324,
-1.41144,0.640869,
-1.39465,0.640869,
-1.38245,0.637817,
-1.35956,0.636292,
-1.34583,0.636292,
-1.32751,0.637817,
-1.3031,0.640869,
-1.28784,0.636292,
-1.26801,0.636292,
-1.24359,0.63324,
-1.22223,0.637817,
-1.20544,0.640869,
-1.18713,0.639343,
-1.1673,0.634766,
-1.14441,0.63324,
-1.12457,0.637817,
-1.10321,0.639343,
-1.08643,0.637817,
-1.07117,0.636292,
-1.0498,0.63324,
-1.02997,0.637817,
-1.01776,0.642395,
-1.00555,0.637817,
-0.98877,0.636292,
-0.978088,0.63324,
-0.970459,0.636292,
-0.953674,0.637817,
-0.946045,0.637817,
-0.941467,0.636292,
-0.93689,0.634766,
-0.935364,0.637817,
-0.930786,0.637817,
-0.930786,0.639343,
-0.927734,0.637817,
-0.930786,0.634766,
-0.927734,0.636292,
-0.932312,0.639343,
-0.933838,0.639343,
-0.93689,0.637817,
-0.93689,0.63324,
-0.939941,0.636292,
-0.939941,0.640869,
-0.938416,0.637817,
-0.941467,0.637817,
-0.941467,0.631714,
-0.941467,0.636292,
-0.944519,0.636292,
-0.942993,0.637817,
-0.946045,0.636292,
-0.946045,0.631714,
-0.946045,0.637817,
-0.942993,0.637817,
-0.944519,0.639343,
-0.949097,0.637817,
-0.949097,0.634766,
-0.950623,0.639343,
-0.949097,0.637817,
-0.950623,0.642395,
-0.947571,0.637817,
-0.949097,0.634766,
-0.942993,0.639343,
-0.942993,0.639343,
-0.942993,0.639343,
-0.935364,0.637817,
-0.933838,0.63324,
-0.926208,0.640869,
-0.915527,0.637817,
-0.91095,0.636292,
-0.907898,0.634766,
-0.907898,0.63324,
-0.901794,0.640869,
-0.898743,0.637817,
-0.892639,0.639343,
-0.891113,0.634766,
-0.88501,0.634766,
-0.878906,0.640869,
-0.875854,0.639343,
-0.871277,0.637817,
-0.868225,0.637817,
-0.863647,0.631714,
-0.857544,0.637817,
-0.85907,0.636292,
-0.857544,0.637817,
-0.857544,0.63324,
-0.85907,0.634766,
-0.85907,0.639343,
-0.865173,0.634766,
-0.869751,0.637817,
-0.871277,0.636292,
-0.875854,0.63324,
-0.880432,0.636292,
-0.883484,0.636292,
-0.886536,0.63324,
-0.895691,0.637817,
-0.90332,0.631714,
-0.907898,0.636292,
-0.914001,0.636292,
-0.918579,0.636292,
-0.921631,0.634766,
-0.926208,0.63324,
-0.930786,0.634766,
-0.93689,0.637817,
-0.93689,0.634766,
-0.938416,0.634766,
-0.93689,0.631714,
-0.942993,0.636292,
-0.944519,0.637817,
-0.950623,0.636292,
-0.952148,0.639343,
-0.958252,0.628662,
-0.965881,0.636292,
-0.971985,0.637817,
-0.979614,0.636292,
-0.982666,0.636292,
-0.990295,0.628662,
-0.990295,0.637817,
-0.999451,0.637817,
-1.00708,0.636292,
-1.01318,0.634766,
-1.02081,0.631714,
-1.03607,0.636292,
-1.04218,0.636292,
-1.04523,0.63324,
-1.05743,0.634766,
-1.06812,0.631714,
-1.0788,0.637817,
-1.08948,0.634766,
-1.09863,0.636292,
-1.11542,0.63324,
-1.1261,0.63324,
-1.14441,0.636292,
-1.15509,0.634766,
-1.16425,0.63324,
-1.17493,0.63324,
-1.17798,0.628662,
-1.18561,0.636292,
-1.19019,0.634766,
-1.19019,0.636292,
-1.19171,0.634766,
-1.18866,0.62561,
-1.18866,0.637817,
-1.18408,0.631714,
-1.17798,0.636292,
-1.16425,0.631714,
-1.15509,0.631714,
-1.14136,0.634766,
-1.12762,0.637817,
-1.11237,0.634766,
-1.09863,0.63324,
-1.08032,0.634766,
-1.06506,0.634766,
-1.05133,0.637817,
-1.03607,0.631714,
-1.01624,0.634766,
-0.999451,0.63324,
-0.98114,0.636292,
-0.958252,0.63324,
-0.941467,0.63324,
-0.920105,0.628662,
-0.901794,0.63324,
-0.878906,0.636292,
-0.863647,0.636292,
-0.845337,0.637817,
-0.830078,0.63324,
-0.811768,0.628662,
-0.796509,0.634766,
-0.78125,0.636292,
-0.764465,0.63324,
-0.747681,0.631714,
-0.735474,0.628662,
-0.727844,0.634766,
-0.714111,0.63324,
-0.698853,0.636292,
-0.694275,0.62561,
-0.683594,0.631714,
-0.679016,0.634766,
-0.672913,0.63324,
-0.665283,0.634766,
-0.666809,0.628662,
-0.656128,0.628662,
-0.653076,0.637817,
-0.645447,0.636292,
-0.643921,0.636292,
-0.639343,0.628662,
-0.639343,0.631714,
-0.639343,0.63324,
-0.640869,0.631714,
-0.642395,0.634766,
-0.643921,0.627136,
-0.645447,0.62561,
-0.648499,0.634766,
-0.650024,0.634766,
-0.650024,0.63324,
-0.648499,0.631714,
-0.653076,0.628662,
-0.65918,0.636292,
-0.660706,0.628662,
-0.665283,0.63324,
-0.665283,0.628662,
-0.666809,0.628662,
-0.668335,0.634766,
-0.666809,0.63324,
-0.668335,0.628662,
-0.663757,0.627136,
-0.662231,0.628662,
-0.663757,0.634766,
-0.660706,0.631714,
-0.656128,0.63324,
-0.648499,0.628662,
-0.648499,0.631714,
-0.643921,0.634766,
-0.639343,0.631714,
-0.637817,0.63324,
-0.634766,0.628662,
-0.628662,0.627136,
-0.62561,0.63324,
-0.613403,0.634766,
-0.610352,0.634766,
-0.6073,0.628662,
-0.598145,0.631714,
-0.596619,0.634766,
-0.593567,0.634766,
-0.590515,0.634766,
-0.582886,0.628662,
-0.58136,0.631714,
-0.578308,0.63324,
-0.579834,0.63324,
-0.582886,0.63324,
-0.579834,0.627136,
-0.58136,0.628662,
-0.58136,0.628662,
-0.585938,0.636292,
-0.585938,0.631714,
-0.587463,0.62561,
-0.588989,0.62561,
-0.588989,0.631714,
-0.593567,0.634766,
-0.595093,0.63324,
-0.59967,0.628662,
-0.601196,0.628662,
-0.602722,0.634766,
-0.604248,0.63324,
-0.6073,0.63324,
-0.611877,0.628662,
-0.617981,0.627136,
-0.617981,0.631714,
-0.624084,0.631714,
-0.630188,0.63324,
-0.636292,0.62561,
-0.639343,0.627136,
-0.646973,0.63324,
-0.653076,0.628662,
-0.65918,0.634766,
-0.665283,0.631714,
-0.675964,0.627136,
-0.683594,0.63324,
-0.692749,0.63324,
-0.698853,0.63324,
-0.70343,0.628662,
-0.708008,0.627136,
-0.717163,0.63324,
-0.727844,0.627136,
-0.735474,0.628662,
-0.735474,0.62561,
-0.740051,0.627136,
-0.746155,0.631714,
-0.75531,0.63324,
-0.765991,0.63324,
-0.773621,0.627136,
-0.785828,0.628662,
-0.793457,0.631714,
-0.805664,0.631714,
-0.810242,0.63324,
-0.819397,0.62561,
-0.828552,0.627136,
-0.834656,0.63324,
-0.843811,0.631714,
-0.852966,0.631714,
-0.863647,0.62561,
-0.874329,0.621033,
-0.881958,0.628662,
-0.888062,0.628662,
-0.897217,0.63324,
-0.904846,0.624084,
-0.906372,0.627136,
-0.912476,0.631714,
-0.909424,0.627136,
-0.904846,0.631714,
-0.898743,0.62561,
-0.889587,0.622559,
-0.881958,0.628662,
-0.871277,0.627136,
-0.85907,0.628662,
-0.845337,0.62561,
-0.830078,0.627136,
-0.810242,0.634766,
-0.798035,0.628662,
-0.775146,0.63324,
-0.752258,0.622559,
-0.732422,0.624084,
-0.71106,0.634766,
-0.691223,0.628662,
-0.671387,0.631714,
-0.648499,0.62561,
-0.62561,0.622559,
-0.605774,0.62561,
-0.578308,0.627136,
-0.563049,0.628662,
-0.543213,0.624084,
-0.524902,0.624084,
-0.509644,0.63324,
-0.491333,0.627136,
-0.476074,0.63324,
-0.462341,0.622559,
-0.450134,0.62561,
-0.444031,0.631714,
-0.430298,0.62561,
-0.42572,0.631714,
-0.418091,0.624084,
-0.416565,0.619507,
-0.411987,0.631714,
-0.410461,0.624084,
-0.411987,0.631714,
-0.415039,0.624084,
-0.416565,0.624084,
-0.422668,0.628662,
-0.422668,0.631714,
-0.428772,0.627136,
-0.430298,0.622559,
-0.431824,0.622559,
-0.437927,0.634766,
-0.444031,0.627136,
-0.450134,0.62561,
-0.453186,0.621033,
-0.457764,0.621033,
-0.457764,0.628662,
-0.462341,0.62561,
-0.466919,0.628662,
-0.469971,0.624084,
-0.476074,0.621033,
-0.479126,0.628662,
-0.480652,0.627136,
-0.488281,0.62561,
-0.492859,0.62561,
-0.492859,0.622559,
-0.502014,0.631714,
-0.500488,0.628662,
-0.498962,0.628662,
-0.498962,0.622559,
-0.497437,0.619507,
-0.495911,0.627136,
-0.497437,0.627136,
-0.495911,0.631714,
-0.495911,0.627136,
-0.494385,0.617981,
-0.492859,0.63324,
-0.492859,0.627136,
-0.489807,0.62561,
-0.486755,0.622559,
-0.485229,0.621033,
-0.4776,0.628662,
-0.479126,0.627136,
-0.473022,0.624084,
-0.476074,0.621033,
-0.473022,0.624084,
-0.469971,0.628662,
-0.463867,0.627136,
-0.460815,0.628662,
-0.463867,0.62561,
-0.460815,0.622559,
-0.462341,0.631714,
-0.463867,0.62561,
-0.469971,0.631714,
-0.469971,0.622559,
-0.476074,0.622559,
-0.480652,0.631714,
-0.486755,0.62561,
-0.494385,0.62561,
-0.495911,0.621033,
-0.50354,0.624084,
-0.514221,0.631714,
-0.527954,0.627136,
-0.537109,0.628662,
-0.547791,0.621033,
-0.559998,0.621033,
-0.572205,0.627136,
-0.582886,0.624084,
-0.596619,0.628662,
-0.610352,0.624084,
-0.624084,0.624084,
-0.630188,0.627136,
-0.643921,0.62561,
-0.656128,0.627136,
-0.665283,0.624084,
-0.674438,0.622559,
-0.683594,0.62561,
-0.695801,0.62561,
-0.700378,0.62561,
-0.708008,0.621033,
-0.720215,0.622559,
-0.732422,0.62561,
-0.743103,0.62561,
-0.752258,0.627136,
-0.758362,0.619507,
-0.767517,0.621033,
-0.775146,0.62561,
-0.784302,0.627136,
-0.796509,0.627136,
-0.802612,0.616455,
-0.814819,0.622559,
-0.822449,0.628662,
-0.837708,0.62561,
-0.842285,0.628662,
-0.85144,0.616455,
-0.866699,0.619507,
-0.871277,0.624084,
-0.88501,0.628662,
-0.892639,0.62561,
-0.907898,0.621033,
-0.921631,0.624084,
-0.927734,0.624084,
-0.942993,0.62561,
-0.953674,0.624084,
-0.961304,0.617981,
-0.975037,0.619507,
-0.987244,0.624084,
-0.993347,0.62561,
-1.00403,0.622559,
-1.01471,0.622559,
-1.02081,0.622559,
-1.01929,0.622559,
-1.02692,0.624084,
-1.03302,0.622559,
-1.03302,0.621033,
-1.02692,0.622559,
-1.02234,0.624084,
-1.01166,0.628662,
-0.994873,0.627136,
-0.979614,0.622559,
-0.959778,0.621033,
-0.939941,0.62561,
-0.915527,0.627136,
-0.889587,0.624084,
-0.866699,0.621033,
-0.843811,0.622559,
-0.819397,0.622559,
-0.796509,0.622559,
-0.770569,0.62561,
-0.744629,0.621033,
-0.721741,0.621033,
-0.697327,0.62561,
-0.666809,0.627136,
-0.634766,0.622559,
-0.604248,0.616455,
-0.576782,0.621033,
-0.558472,0.624084,
-0.52948,0.624084,
-0.506592,0.622559,
-0.486755,0.619507,
-0.466919,0.617981,
-0.45166,0.624084,
-0.43335,0.628662,
-0.422668,0.622559,
-0.40741,0.621033,
-0.395203,0.621033,
-0.384521,0.62561,
-0.369263,0.62561,
-0.357056,0.624084,
-0.350952,0.616455,
-0.341797,0.624084,
-0.3479,0.622559,
-0.343323,0.628662,
-0.341797,0.621033,
-0.341797,0.622559,
-0.346375,0.622559,
-0.349426,0.624084,
-0.350952,0.631714,
-0.354004,0.624084,
-0.360107,0.619507,
-0.360107,0.622559,
-0.364685,0.62561,
-0.369263,0.627136,
-0.37384,0.62561,
-0.375366,0.619507,
-0.38147,0.619507,
-0.382996,0.62561,
-0.393677,0.627136,
-0.396729,0.624084,
-0.405884,0.621033,
-0.416565,0.622559,
-0.418091,0.62561,
-0.430298,0.628662,
-0.434875,0.622559,
-0.437927,0.621033,
-0.442505,0.621033,
-0.445557,0.624084,
-0.457764,0.628662,
-0.460815,0.621033,
-0.462341,0.621033,
-0.462341,0.617981,
-0.465393,0.624084,
-0.465393,0.631714,
-0.466919,0.619507,
-0.465393,0.619507,
-0.463867,0.622559,
-0.462341,0.622559,
-0.460815,0.62561,
-0.457764,0.621033,
-0.460815,0.621033,
-0.462341,0.621033,
-0.463867,0.624084,
-0.463867,0.631714,
-0.463867,0.622559,
-0.469971,0.624084,
-0.473022,0.617981,
-0.473022,0.624084,
-0.476074,0.627136,
-0.479126,0.624084,
-0.479126,0.622559,
-0.483704,0.621033,
-0.486755,0.621033,
-0.486755,0.624084,
-0.488281,0.622559,
-0.495911,0.622559,
-0.500488,0.619507,
-0.502014,0.62561,
-0.509644,0.628662,
-0.518799,0.624084,
-0.523376,0.622559,
-0.52948,0.619507,
-0.538635,0.621033,
-0.541687,0.627136,
-0.549316,0.624084,
-0.561523,0.62561,
-0.572205,0.624084,
-0.579834,0.624084,
-0.595093,0.627136,
-0.602722,0.62561,
-0.614929,0.622559,
-0.622559,0.619507,
-0.630188,0.622559,
-0.642395,0.628662,
-0.648499,0.624084,
-0.65918,0.619507,
-0.671387,0.621033,
-0.682068,0.62561,
-0.692749,0.631714,
-0.704956,0.624084,
-0.715637,0.622559,
-0.727844,0.621033,
-0.735474,0.62561,
-0.750732,0.63324,
-0.764465,0.621033,
-0.769043,0.624084,
-0.776672,0.622559,
-0.784302,0.627136,
-0.798035,0.634766,
-0.804138,0.62561,
-0.813293,0.622559,
-0.817871,0.621033,
-0.828552,0.62561,
-0.839233,0.631714,
-0.845337,0.622559,
-0.854492,0.624084,
-0.865173,0.624084,
-0.874329,0.624084,
-0.880432,0.627136,
-0.891113,0.62561,
-0.90332,0.624084,
-0.917053,0.621033,
-0.926208,0.62561,
-0.941467,0.63324,
-0.950623,0.624084,
-0.964355,0.624084,
-0.978088,0.621033,
-0.98877,0.62561,
-1.0025,0.631714,
-1.01776,0.627136,
-1.03302,0.622559,
-1.04218,0.621033,
-1.05438,0.624084,
-1.05896,0.628662,
-1.07117,0.622559,
-1.07727,0.621033,
-1.08337,0.621033,
-1.08643,0.622559,
-1.0849,0.627136,
-1.08185,0.627136,
-1.08032,0.621033,
-1.07269,0.622559,
-1.06964,0.624084,
-1.05438,0.62561,
-1.0437,0.624084,
-1.02234,0.627136,
-1.00861,0.622559,
-0.990295,0.624084,
-0.970459,0.628662,
-0.950623,0.627136,
-0.926208,0.622559,
-0.901794,0.62561,
-0.881958,0.621033,
-0.857544,0.63324,
-0.83313,0.62561,
-0.805664,0.62561,
-0.775146,0.624084,
-0.75531,0.624084,
-0.726318,0.628662,
-0.70343,0.628662,
-0.680542,0.627136,
-0.653076,0.622559,
-0.634766,0.627136,
-0.608826,0.631714,
-0.592041,0.622559,
-0.575256,0.624084,
-0.558472,0.622559,
-0.538635,0.627136,
-0.52948,0.628662,
-0.514221,0.621033,
-0.508118,0.624084,
-0.498962,0.624084,
-0.492859,0.624084,
-0.483704,0.631714,
-0.483704,0.624084,
-0.4776,0.62561,
-0.471497,0.62561,
-0.473022,0.627136,
-0.471497,0.63324,
-0.468445,0.62561,
-0.463867,0.62561,
-0.466919,0.621033,
-0.469971,0.627136,
-0.471497,0.631714,
-0.476074,0.621033,
-0.486755,0.62561,
-0.492859,0.62561,
-0.500488,0.628662,
-0.502014,0.63324,
-0.512695,0.622559,
-0.521851,0.624084,
-0.535583,0.624084,
-0.540161,0.627136,
-0.546265,0.631714,
-0.55542,0.622559,
-0.566101,0.624084,
-0.57373,0.62561,
-0.582886,0.624084,
-0.588989,0.63324,
-0.596619,0.624084,
-0.602722,0.624084,
-0.605774,0.624084,
-0.604248,0.631714,
-0.6073,0.631714,
-0.610352,0.627136,
-0.614929,0.624084,
-0.622559,0.627136,
-0.624084,0.628662,
-0.621033,0.63324,
-0.630188,0.627136,
-0.628662,0.627136,
-0.631714,0.622559,
-0.63324,0.63324,
-0.63324,0.631714,
-0.637817,0.627136,
-0.639343,0.627136,
-0.637817,0.622559,
-0.645447,0.627136,
-0.643921,0.628662,
-0.650024,0.624084,
-0.653076,0.624084,
-0.65918,0.62561,
-0.666809,0.63324,
-0.672913,0.63324,
-0.674438,0.62561,
-0.680542,0.624084,
-0.686646,0.627136,
-0.689697,0.631714,
-0.697327,0.628662,
-0.695801,0.624084,
-0.701904,0.62561,
-0.71106,0.622559,
-0.717163,0.63324,
-0.72937,0.628662,
-0.735474,0.624084,
-0.743103,0.628662,
-0.75531,0.62561,
-0.765991,0.628662,
-0.776672,0.63324,
-0.787354,0.62561,
-0.796509,0.627136,
-0.808716,0.627136,
-0.814819,0.631714,
-0.820923,0.631714,
-0.831604,0.62561,
-0.839233,0.62561,
-0.85144,0.624084,
-0.862122,0.63324,
-0.869751,0.631714,
-0.875854,0.62561,
-0.88501,0.62561,
-0.898743,0.622559,
-0.91095,0.636292,
-0.923157,0.631714,
-0.933838,0.62561,
-0.949097,0.62561,
-0.964355,0.62561,
-0.975037,0.634766,
-0.985718,0.631714,
-0.996399,0.627136,
-1.00861,0.62561,
-1.02081,0.624084,
-1.02997,0.634766,
-1.04218,0.628662,
-1.04828,0.62561,
-1.05896,0.624084,
-1.07117,0.627136,
-1.08337,0.63324,
-1.08948,0.628662,
-1.10474,0.624084,
-1.11847,0.62561,
-1.13068,0.62561,
-1.14288,0.634766,
-1.15662,0.63324,
-1.17188,0.627136,
-1.18408,0.62561,
-1.19171,0.622559,
-1.20087,0.631714,
-1.21155,0.63324,
-1.22375,0.627136,
-1.23291,0.62561,
-1.24207,0.62561,
-1.24969,0.634766,
-1.26495,0.627136,
-1.27869,0.627136,
-1.28632,0.62561,
-1.29852,0.627136,
-1.31378,0.63324,
-1.32446,0.631714,
-1.33209,0.628662,
-1.3443,0.628662,
-1.35345,0.62561,
-1.35651,0.63324,
-1.36261,0.631714,
-1.36566,0.628662,
-1.36414,0.627136,
-1.35803,0.62561,
-1.35498,0.636292,
-1.34888,0.631714,
-1.34277,0.624084,
-1.32904,0.62561,
-1.31836,0.627136,
-1.3031,0.631714,
-1.29089,0.628662,
-1.27563,0.62561,
-1.25122,0.627136,
-1.23291,0.631714,
-1.21002,0.63324,
-1.18866,0.631714,
-1.17035,0.627136,
-1.14746,0.622559,
-1.12457,0.627136,
-1.10626,0.628662,
-1.0849,0.631714,
-1.06964,0.627136,
-1.0498,0.62561,
-1.03302,0.62561,
-1.01776,0.631714,
-0.999451,0.631714,
-0.987244,0.628662,
-0.975037,0.62561,
-0.956726,0.62561,
-0.949097,0.631714,
-0.944519,0.628662,
-0.938416,0.627136,
-0.932312,0.627136,
-0.923157,0.621033,
-0.917053,0.631714,
-0.915527,0.63324,
-0.914001,0.624084,
-0.91095,0.62561,
-0.906372,0.624084,
-0.901794,0.628662,
-0.900269,0.631714,
-0.901794,0.63324,
-0.898743,0.627136,
-0.900269,0.62561,
-0.901794,0.631714,
-0.907898,0.628662,
-0.91095,0.628662,
-0.912476,0.62561,
-0.917053,0.62561,
-0.923157,0.627136,
-0.924683,0.628662,
-0.932312,0.627136,
-0.933838,0.627136,
-0.939941,0.624084,
-0.944519,0.631714,
-0.950623,0.631714,
-0.956726,0.631714,
-0.964355,0.624084,
-0.970459,0.624084,
-0.973511,0.628662,
-0.979614,0.634766,
-0.982666,0.631714,
-0.984192,0.62561,
-0.984192,0.624084,
-0.987244,0.628662,
-0.987244,0.63324,
-0.98877,0.62561,
-0.991821,0.62561,
-0.987244,0.62561,
-0.987244,0.628662,
-0.987244,0.631714,
-0.985718,0.627136,
-0.984192,0.627136,
-0.982666,0.624084,
-0.98114,0.631714,
-0.982666,0.628662,
-0.978088,0.631714,
-0.976563,0.62561,
-0.978088,0.624084,
-0.976563,0.627136,
-0.979614,0.636292,
-0.984192,0.634766,
-0.987244,0.622559,
-0.993347,0.627136,
-0.994873,0.631714,
-1.00098,0.628662,
-1.01013,0.631714,
-1.01166,0.624084,
-1.01776,0.627136,
-1.02844,0.627136,
-1.03302,0.628662,
-1.04065,0.628662,
-1.04675,0.624084,
-1.05286,0.62561,
-1.06964,0.628662,
-1.07727,0.628662,
-1.0849,0.628662,
-1.09406,0.624084,
-1.09863,0.62561,
-1.10626,0.628662,
-1.11847,0.627136,
-1.12457,0.63324,
-1.1322,0.62561,
-1.14136,0.622559,
-1.14594,0.631714,
-1.15204,0.627136,
-1.16119,0.628662,
-1.17035,0.62561,
-1.18561,0.622559,
-1.19019,0.627136,
-1.20544,0.627136,
-1.2146,0.631714,
-1.22681,0.624084,
-1.24664,0.624084,
-1.25427,0.62561,
-1.26953,0.62561,
-1.28632,0.628662,
-1.30157,0.62561,
-1.31073,0.622559,
-1.32751,0.627136,
-1.3382,0.631714,
-1.3504,0.628662,
-1.36566,0.62561,
-1.38092,0.622559,
-1.39618,0.627136,
-1.40686,0.62561,
-1.41907,0.631714,
-1.4328,0.628662,
-1.44348,0.622559,
-1.45416,0.627136,
-1.46484,0.627136,
-1.47552,0.62561,
-1.49078,0.622559,
-1.50299,0.622559,
-1.51215,0.62561,
-1.52283,0.62561,
-1.53198,0.627136,
-1.53656,0.624084,
-1.55029,0.624084,
-1.5625,0.63324,
-1.57013,0.628662,
-1.58081,0.627136,
-1.59302,0.62561,
-1.59912,0.622559,
-1.60828,0.624084,
-1.61896,0.62561,
-1.63422,0.627136,
-1.64185,0.624084,
-1.65405,0.622559,
-1.66321,0.62561,
-1.67236,0.62561,
-1.68152,0.627136,
-1.6922,0.631714,
-1.70288,0.621033,
-1.70898,0.628662,
-1.71814,0.627136,
-1.73187,0.628662,
-1.74408,0.62561,
-1.75476,0.622559,
-1.76392,0.62561,
-1.77002,0.624084,
-1.77307,0.627136,
-1.77307,0.628662,
-1.77612,0.622559,
-1.77155,0.628662,
-1.77307,0.62561,
-1.77155,0.628662,
-1.76849,0.622559,
-1.75781,0.624084,
-1.74866,0.627136,
-1.73798,0.624084,
-1.72577,0.62561,
-1.70898,0.628662,
-1.68915,0.621033,
-1.66931,0.62561,
-1.64642,0.624084,
-1.62659,0.628662,
-1.60065,0.627136,
-1.57623,0.622559,
-1.55792,0.62561,
-1.53351,0.624084,
-1.50909,0.628662,
-1.48621,0.624084,
-1.46332,0.619507,
-1.4389,0.621033,
-1.42059,0.624084,
-1.39771,0.62561,
-1.37482,0.62561,
-1.36108,0.621033,
-1.34277,0.624084,
-1.32446,0.62561,
-1.31073,0.62561,
-1.29395,0.619507,
-1.28326,0.621033,
-1.27411,0.62561,
-1.25732,0.624084,
-1.24817,0.62561,
-1.24054,0.622559,
-1.23291,0.617981,
-1.22528,0.622559,
-1.21765,0.624084,
-1.2146,0.62561,
-1.20697,0.621033,
-1.20087,0.621033,
-1.19476,0.622559,
-1.19476,0.622559,
-1.19324,0.627136,
-1.19171,0.621033,
-1.19476,0.619507,
-1.20087,0.622559,
-1.20544,0.62561,
-1.21613,0.622559,
-1.2207,0.619507,
-1.22986,0.616455,
-1.23444,0.627136,
-1.24359,0.622559,
-1.25122,0.622559,
-1.25732,0.619507,
-1.26801,0.619507,
-1.27563,0.621033,
-1.28174,0.622559,
-1.28632,0.622559,
-1.29395,0.619507,
-1.29852,0.617981,
-1.3092,0.624084,
-1.31683,0.622559,
-1.32446,0.622559,
-1.32446,0.622559,
-1.33057,0.621033,
-1.33057,0.621033,
-1.3382,0.622559,
-1.3443,0.624084,
-1.34583,0.621033,
-1.35193,0.617981,
-1.35345,0.622559,
-1.35803,0.624084,
-1.36261,0.62561,
-1.35651,0.621033,
-1.36719,0.621033,
-1.37024,0.62561,
-1.38092,0.622559,
-1.38092,0.624084,
-1.3855,0.621033,
-1.3916,0.621033,
-1.39771,0.621033,
-1.40076,0.622559,
-1.40686,0.62561,
-1.40533,0.617981,
-1.40686,0.617981,
-1.41602,0.619507,
-1.42059,0.622559,
-1.42822,0.62561,
-1.43433,0.621033,
-1.44043,0.619507,
-1.44653,0.619507,
-1.45264,0.621033,
-1.46027,0.622559,
-1.46942,0.622559,
-1.47552,0.617981,
-1.48468,0.619507,
-1.49536,0.624084,
-1.50299,0.622559,
-1.5152,0.621033,
-1.52893,0.619507,
-1.53351,0.617981,
-1.54266,0.624084,
-1.5564,0.621033,
-1.56403,0.622559,
-1.57623,0.616455,
-1.58997,0.616455,
-1.59912,0.624084,
-1.61133,0.622559,
-1.62659,0.619507,
-1.63879,0.616455,
-1.65253,0.619507,
-1.66168,0.622559,
-1.67542,0.622559,
-1.6861,0.622559,
-1.69373,0.621033,
-1.70288,0.621033,
-1.71204,0.622559,
-1.72424,0.624084,
-1.73187,0.621033,
-1.7395,0.617981,
-1.75018,0.617981,
-1.75629,0.624084,
-1.76392,0.624084,
-1.77307,0.616455,
-1.77917,0.616455,
-1.78375,0.619507,
-1.79138,0.624084,
-1.79291,0.619507,
-1.79749,0.619507,
-1.80817,0.617981,
-1.80969,0.619507,
-1.81732,0.622559,
-1.8219,0.622559,
-1.83411,0.621033,
-1.84021,0.619507,
-1.85089,0.619507,
-1.86005,0.622559,
-1.87073,0.617981,
-1.87683,0.621033,
-1.88599,0.619507,
-1.89819,0.619507,
-1.9043,0.622559,
-1.91498,0.622559,
-1.92261,0.619507,
-1.93481,0.619507,
-1.94244,0.619507,
-1.95465,0.624084,
-1.96686,0.621033,
-1.97754,0.619507,
-1.98669,0.619507,
-1.99585,0.616455,
-2.00653,0.624084,
-2.01721,0.624084,
-2.02179,0.616455,
-2.03247,0.619507,
-2.04468,0.617981,
-2.05536,0.621033,
-2.06146,0.621033,
-2.06757,0.617981,
-2.07825,0.616455,
-2.08435,0.621033,
-2.09351,0.619507,
-2.09961,0.621033,
-2.10724,0.616455,
-2.11639,0.614929,
-2.11792,0.621033,
-2.12097,0.624084,
-2.1225,0.621033,
-2.12708,0.616455,
-2.12555,0.617981,
-2.11945,0.619507,
-2.11792,0.617981,
-2.11487,0.624084,
-2.11182,0.614929,
-2.10266,0.617981,
-2.09198,0.616455,
-2.07825,0.619507,
-2.06451,0.619507,
-2.04468,0.617981,
-2.02789,0.616455,
-2.01416,0.616455,
-1.9928,0.619507,
-1.97601,0.619507,
-1.95465,0.617981,
-1.93787,0.621033,
-1.92108,0.619507,
-1.9043,0.622559,
-1.88141,0.621033,
-1.86615,0.617981,
-1.84937,0.619507,
-1.82953,0.613403,
-1.81885,0.624084,
-1.80206,0.621033,
-1.78528,0.616455,
-1.77612,0.614929,
-1.76392,0.619507,
-1.75476,0.621033,
-1.75018,0.619507,
-1.74408,0.616455,
-1.74103,0.619507,
-1.7334,0.616455,
-1.72729,0.622559,
-1.72272,0.619507,
-1.71509,0.616455,
-1.71661,0.614929,
-1.71204,0.619507,
-1.70441,0.621033,
-1.69983,0.621033,
-1.70135,0.616455,
-1.69983,0.619507,
-1.69678,0.617981,
-1.69525,0.622559,
-1.69373,0.622559,
-1.69678,0.619507,
-1.69525,0.621033,
-1.69983,0.617981,
-1.69983,0.622559,
-1.70288,0.616455,
-1.70593,0.616455,
-1.70898,0.616455,
-1.71661,0.616455,
-1.72729,0.619507,
-1.7334,0.622559,
-1.73798,0.614929,
-1.74103,0.616455,
-1.74713,0.614929,
-1.75476,0.617981,
-1.76392,0.621033,
-1.77002,0.611877,
-1.77612,0.621033,
-1.77765,0.617981,
-1.77612,0.621033,
-1.77917,0.622559,
-1.77612,0.617981,
-1.77917,0.617981,
-1.77917,0.617981,
-1.78528,0.619507,
-1.7868,0.621033,
-1.7868,0.614929,
-1.79138,0.617981,
-1.79291,0.617981,
-1.78986,0.621033,
-1.78375,0.621033,
-1.7868,0.614929,
-1.78986,0.616455,
-1.7868,0.617981,
-1.78528,0.619507,
-1.78375,0.619507,
-1.78375,0.616455,
-1.7807,0.619507,
-1.78223,0.619507,
-1.78223,0.619507,
-1.7807,0.621033,
-1.78223,0.616455,
-1.78528,0.613403,
-1.7868,0.619507,
-1.79443,0.621033,
-1.79443,0.619507,
-1.79901,0.614929,
-1.80359,0.614929,
-1.80511,0.614929,
-1.81274,0.621033,
-1.81427,0.622559,
-1.81732,0.616455,
-1.82495,0.614929,
-1.828,0.616455,
-1.83563,0.622559,
-1.84021,0.617981,
-1.84479,0.613403,
-1.85089,0.617981,
-1.85852,0.616455,
-1.86768,0.619507,
-1.87531,0.622559,
-1.88141,0.619507,
-1.88599,0.616455,
-1.89514,0.613403,
-1.89972,0.619507,
-1.90735,0.617981,
-1.9165,0.616455,
-1.92719,0.614929,
-1.93634,0.616455,
-1.9455,0.622559,
-1.9516,0.619507,
-1.96228,0.616455,
-1.96991,0.614929,
-1.97754,0.614929,
-1.98212,0.621033,
-1.9928,0.617981,
-1.9989,0.616455,
-2.00806,0.616455,
-2.01569,0.614929,
-2.02484,0.619507,
-2.03094,0.617981,
-2.03857,0.617981,
-2.0462,0.617981,
-2.05688,0.617981,
-2.06604,0.617981,
-2.0752,0.617981,
-2.08282,0.616455,
-2.0874,0.617981,
-2.10266,0.617981,
-2.10571,0.621033,
-2.11487,0.614929,
-2.12097,0.617981,
-2.13318,0.616455,
-2.14386,0.617981,
-2.14844,0.619507,
-2.15454,0.616455,
-2.16522,0.616455,
-2.17285,0.614929,
-2.17743,0.616455,
-2.18658,0.619507,
-2.19574,0.617981,
-2.20337,0.617981,
-2.21252,0.616455,
-2.22473,0.619507,
-2.23999,0.619507,
-2.25372,0.616455,
-2.25677,0.619507,
-2.26746,0.613403,
-2.27814,0.617981,
-2.28424,0.621033,
-2.29492,0.617981,
-2.29797,0.617981,
-2.30713,0.610352,
-2.31934,0.616455,
-2.32849,0.619507,
-2.33459,0.617981,
-2.34833,0.617981,
-2.35748,0.613403,
-2.36359,0.617981,
-2.37122,0.621033,
-2.37885,0.616455,
-2.38342,0.614929,
-2.39105,0.613403,
-2.39716,0.614929,
-2.40631,0.619507,
-2.40479,0.619507,
-2.41241,0.621033,
-2.41394,0.613403,
-2.41852,0.617981,
-2.41547,0.616455,
-2.41394,0.617981,
-2.40173,0.611877,
-2.39716,0.613403,
-2.38953,0.617981,
-2.3819,0.619507,
-2.36969,0.616455,
-2.35596,0.614929,
-2.3407,0.611877,
-2.32697,0.616455,
-2.30713,0.619507,
-2.28424,0.619507,
-2.26288,0.611877,
-2.24304,0.614929,
-2.21863,0.619507,
-2.20184,0.622559,
-2.17743,0.616455,
-2.16064,0.617981,
-2.13776,0.613403,
-2.11945,0.617981,
-2.09656,0.624084,
-2.08282,0.619507,
-2.06146,0.614929,
-2.0401,0.614929,
-2.02484,0.619507,
-2.00958,0.622559,
-1.9989,0.616455,
-1.98364,0.617981,
-1.97296,0.613403,
-1.96228,0.616455,
-1.95313,0.617981,
-1.94397,0.619507,
-1.93481,0.616455,
-1.92871,0.610352,
-1.91956,0.616455,
-1.91345,0.614929,
-1.90735,0.616455,
-1.89972,0.617981,
-1.89362,0.613403,
-1.88904,0.616455,
-1.88446,0.619507,
-1.87683,0.619507,
-1.87378,0.617981,
-1.87073,0.611877,
-1.86768,0.616455,
-1.87073,0.617981,
-1.86462,0.619507,
-1.86615,0.616455,
-1.86768,0.610352,
-1.86615,0.617981,
-1.8692,0.621033,
-1.8692,0.619507,
-1.87073,0.616455,
-1.87225,0.610352,
-1.87225,0.613403,
-1.87378,0.621033,
-1.87836,0.616455,
-1.88141,0.614929,
-1.88293,0.610352,
-1.88751,0.616455,
-1.88904,0.617981,
-1.89514,0.619507,
-1.89667,0.613403,
-1.89667,0.610352,
-1.90125,0.617981,
-1.90277,0.614929,
-1.90735,0.616455,
-1.91345,0.614929,
-1.91956,0.6073,
-1.92108,0.619507,
-1.92413,0.616455,
-1.93176,0.617981,
-1.93176,0.611877,
-1.93024,0.611877,
-1.92413,0.617981,
-1.92261,0.614929,
-1.91956,0.617981,
-1.91498,0.614929,
-1.91498,0.608826,
-1.91345,0.616455,
-1.91498,0.619507,
-1.9165,0.616455,
-1.91345,0.614929,
-1.91345,0.608826,
-1.91193,0.617981,
-1.91193,0.619507,
-1.9104,0.614929,
-1.91345,0.613403,
-1.91498,0.608826,
-1.91345,0.617981,
-1.9165,0.619507,
-1.91498,0.619507,
-1.92261,0.617981,
-1.92413,0.6073,
-1.92871,0.617981,
-1.93329,0.619507,
-1.93329,0.613403,
-1.93787,0.614929,
-1.94397,0.604248,
-1.9455,0.614929,
-1.9516,0.619507,
-1.9577,0.616455,
-1.96686,0.616455,
-1.96991,0.605774,
-1.97601,0.614929,
-1.98212,0.617981,
-1.98822,0.613403,
-1.98975,0.611877,
-1.9989,0.6073,
-2.00043,0.614929,
-2.00958,0.614929,
-2.01569,0.614929,
-2.02179,0.613403,
-2.02789,0.6073,
-2.03705,0.613403,
-2.0462,0.619507,
-2.05383,0.613403,
-2.05994,0.613403,
-2.06909,0.6073,
-2.0813,0.613403,
-2.08893,0.616455,
-2.09961,0.613403,
-2.10571,0.613403,
-2.11487,0.6073,
-2.11792,0.613403,
-2.12402,0.614929,
-2.1286,0.614929,
-2.13318,0.614929,
-2.13928,0.605774,
-2.14691,0.614929,
-2.15149,0.614929,
-2.15607,0.616455,
-2.16522,0.617981,
-2.17285,0.605774,
-2.17743,0.614929,
-2.18201,0.614929,
-2.18964,0.613403,
-2.19116,0.614929,
-2.19421,0.605774,
-2.20642,0.616455,
-2.21252,0.613403,
-2.22015,0.613403,
-2.23083,0.614929,
-2.23389,0.6073,
-2.24609,0.619507,
-2.25372,0.614929,
-2.25983,0.611877,
-2.26593,0.614929,
-2.27509,0.6073,
-2.28424,0.613403,
-2.29492,0.611877,
-2.30255,0.614929,
-2.30865,0.610352,
-2.31323,0.6073,
-2.32239,0.614929,
-2.33154,0.613403,
-2.34375,0.611877,
-2.35138,0.613403,
-2.35901,0.6073,
-2.36969,0.616455,
-2.37427,0.611877,
-2.388,0.613403,
-2.39258,0.613403,
-2.40021,0.6073,
-2.40631,0.614929,
-2.41699,0.614929,
-2.42615,0.614929,
-2.43683,0.613403,
-2.44751,0.6073,
-2.45514,0.616455,
-2.46735,0.613403,
-2.47498,0.616455,
-2.48108,0.611877,
-2.49176,0.608826,
-2.49634,0.614929,
-2.50397,0.611877,
-2.50702,0.613403,
-2.50702,0.608826,
-2.50702,0.605774,
-2.50397,0.614929,
-2.49939,0.613403,
-2.49023,0.613403,
-2.48108,0.6073,
-2.4704,0.602722,
-2.45514,0.613403,
-2.44293,0.613403,
-2.42462,0.611877,
-2.41089,0.608826,
-2.39105,0.6073,
-2.37427,0.610352,
-2.35138,0.613403,
-2.33459,0.610352,
-2.31781,0.6073,
-2.29797,0.608826,
-2.28119,0.611877,
-2.26288,0.613403,
-2.24609,0.611877,
-2.22473,0.610352,
-2.20947,0.605774,
-2.19421,0.611877,
-2.17896,0.613403,
-2.16522,0.605774,
-2.15149,0.6073,
-2.1347,0.608826,
-2.12402,0.610352,
-2.11182,0.610352,
-2.10266,0.610352,
-2.09198,0.604248,
-2.08588,0.605774,
-2.07825,0.6073,
-2.07672,0.608826,
-2.07367,0.608826,
-2.06909,0.604248,
-2.06604,0.6073,
-2.05841,0.610352,
-2.05841,0.610352,
-2.05688,0.610352,
-2.05536,0.604248,
-2.05078,0.608826,
-2.05231,0.610352,
-2.04468,0.608826,
-2.04773,0.6073,
-2.0462,0.604248,
-2.04315,0.605774,
-2.04163,0.610352,
-2.04163,0.610352,
-2.04315,0.611877,
-2.04468,0.604248,
-2.04468,0.602722,
-2.0462,0.610352,
-2.04926,0.613403,
-2.05231,0.613403,
-2.05688,0.602722,
-2.05841,0.6073,
-2.05536,0.608826,
-2.05994,0.610352,
-2.05688,0.610352,
-2.05688,0.602722,
-2.06451,0.604248,
-2.06604,0.610352,
-2.06909,0.611877,
-2.06757,0.610352,
-2.07062,0.602722,
-2.07214,0.605774,
-2.07214,0.6073,
-2.07214,0.610352,
-2.0752,0.610352,
-2.07825,0.608826,
-2.0752,0.602722,
-2.07672,0.6073,
-2.0752,0.608826,
-2.07672,0.608826,
-2.07062,0.6073,
-2.0752,0.602722,
-2.07214,0.610352,
-2.07062,0.610352,
-2.06604,0.608826,
-2.06757,0.605774,
-2.05688,0.6073,
-2.05383,0.605774,
-2.05383,0.6073,
-2.05383,0.605774,
-2.04926,0.602722,
-2.05078,0.6073,
-2.0462,0.6073,
-2.04926,0.6073,
-2.05078,0.604248,
-2.05231,0.604248,
-2.05231,0.605774,
-2.05536,0.608826,
-2.05383,0.602722,
-2.06451,0.608826,
-2.06909,0.605774,
-2.07062,0.602722,
-2.07214,0.605774,
-2.07367,0.608826,
-2.07672,0.608826,
-2.07825,0.604248,
-2.0813,0.605774,
-2.08282,0.6073,
-2.08588,0.610352,
-2.08588,0.6073,
-2.0874,0.604248,
-2.09045,0.604248,
-2.09503,0.605774,
-2.09961,0.604248,
-2.10114,0.608826,
-2.10419,0.602722,
-2.11029,0.604248,
-2.11639,0.605774,
-2.12097,0.608826,
-2.11945,0.608826,
-2.12402,0.605774,
-2.1286,0.604248,
-2.13318,0.604248,
-2.13928,0.6073,
-2.14691,0.605774,
-2.15759,0.608826,
-2.15912,0.605774,
-2.17285,0.605774,
-2.17896,0.610352,
-2.19116,0.6073,
-2.19879,0.605774,
-2.20947,0.601196,
-2.22015,0.605774,
-2.22168,0.605774,
-2.23236,0.6073,
-2.24457,0.605774,
-2.2522,0.602722,
-2.25983,0.605774,
-2.27051,0.605774,
-2.27814,0.6073,
-2.28271,0.6073,
-2.29034,0.604248,
-2.29797,0.604248,
-2.30865,0.6073,
-2.31628,0.608826,
-2.32391,0.604248,
-2.32849,0.6073,
-2.3407,0.602722,
-2.34528,0.6073,
-2.35291,0.6073,
-2.36206,0.605774,
-2.36359,0.604248,
-2.37122,0.604248,
-2.3819,0.604248,
-2.38953,0.6073,
-2.39563,0.605774,
-2.40173,0.602722,
-2.41394,0.602722,
-2.42462,0.605774,
-2.43225,0.604248,
-2.44446,0.605774,
-2.45514,0.602722,
-2.46582,0.604248,
-2.47955,0.605774,
-2.48718,0.608826,
-2.49481,0.604248,
-2.50549,0.602722,
-2.5116,0.602722,
-2.5177,0.608826,
-2.5238,0.604248,
-2.53143,0.602722,
-2.53754,0.602722,
-2.54364,0.602722,
-2.54974,0.608826,
-2.55737,0.605774,
-2.56195,0.604248,
-2.56348,0.604248,
-2.56958,0.601196,
-2.57263,0.6073,
-2.58179,0.6073,
-2.58331,0.604248,
-2.58789,0.602722,
-2.58484,0.601196,
-2.58484,0.608826,
-2.58636,0.605774,
-2.58026,0.602722,
-2.57568,0.604248,
-2.56805,0.598145,
-2.55585,0.604248,
-2.54669,0.605774,
-2.52686,0.602722,
-2.5116,0.605774,
-2.49634,0.59967,
-2.47803,0.604248,
-2.45972,0.6073,
-2.44293,0.601196,
-2.42157,0.602722,
-2.40326,0.59967,
-2.3819,0.608826,
-2.36206,0.608826,
-2.34528,0.604248,
-2.32849,0.604248,
-2.30865,0.598145,
-2.29492,0.605774,
-2.28119,0.608826,
-2.26288,0.602722,
-2.24762,0.602722,
-2.23694,0.59967,
-2.22473,0.610352,
-2.21252,0.6073,
-2.2049,0.604248,
-2.20184,0.604248,
-2.19116,0.602722,
-2.18353,0.605774,
-2.17438,0.6073,
-2.17438,0.602722,
-2.17133,0.604248,
-2.1637,0.604248,
-2.16064,0.6073,
-2.15759,0.6073,
-2.15607,0.602722,
-2.15759,0.604248,
-2.15759,0.602722,
-2.15607,0.605774,
-2.15607,0.608826,
-2.15607,0.602722,
-2.15302,0.604248,
-2.15607,0.602722,
-2.15454,0.605774,
-2.15454,0.6073,
-2.15302,0.604248,
-2.15454,0.604248,
-2.15454,0.602722,
-2.15912,0.6073,
-2.15912,0.605774,
-2.16522,0.602722,
-2.17133,0.6073,
-2.17743,0.604248,
-2.18048,0.601196,
-2.18048,0.6073,
-2.18201,0.602722,
-2.17896,0.602722,
-2.17743,0.601196,
-2.18048,0.604248,
-2.17133,0.6073,
-2.17285,0.605774,
-2.16827,0.602722,
-2.16827,0.602722,
-2.1698,0.605774,
-2.16827,0.604248,
-2.1698,0.605774,
-2.16827,0.602722,
-2.1698,0.602722,
-2.1698,0.6073,
-2.1698,0.604248,
-2.17133,0.604248,
-2.1637,0.602722,
-2.1637,0.604248,
-2.15912,0.605774,
-2.15607,0.605774,
-2.15454,0.604248,
-2.15149,0.602722,
-2.15302,0.601196,
-2.15149,0.608826,
-2.14844,0.605774,
-2.14996,0.601196,
-2.14996,0.604248,
-2.14996,0.602722,
-2.14844,0.605774,
-2.15454,0.6073,
-2.15302,0.604248,
-2.15302,0.605774,
-2.15149,0.604248,
-2.15607,0.605774,
-2.15912,0.604248,
-2.1637,0.602722,
-2.16217,0.602722,
-2.16522,0.59967,
-2.16827,0.604248,
-2.17133,0.604248,
-2.17133,0.604248,
-2.17133,0.601196,
-2.17133,0.602722,
-2.17285,0.605774,
-2.17743,0.6073,
-2.18353,0.6073,
-2.19116,0.604248,
-2.19727,0.59967,
-2.20642,0.605774,
-2.211,0.605774,
-2.21863,0.6073,
-2.22321,0.602722,
-2.22778,0.601196,
-2.23846,0.605774,
-2.24457,0.605774,
-2.2522,0.602722,
-2.2583,0.6073,
-2.26593,0.6073,
-2.27814,0.605774,
-2.28271,0.604248,
-2.2934,0.604248,
-2.29645,0.604248,
-2.30255,0.59967,
-2.31018,0.604248,
-2.31628,0.608826,
-2.32086,0.605774,
-2.32697,0.602722,
-2.33459,0.59967,
-2.33459,0.605774,
-2.34222,0.604248,
-2.34833,0.608826,
-2.35291,0.602722,
-2.36206,0.602722,
-2.37122,0.604248,
-2.37732,0.605774,
-2.38342,0.605774,
-2.38647,0.6073,
-2.39258,0.601196,
-2.39868,0.610352,
-2.40021,0.604248,
-2.40631,0.608826,
-2.41394,0.602722,
-2.42004,0.602722,
-2.42462,0.6073,
-2.42767,0.608826,
-2.43378,0.6073,
-2.43683,0.6073,
-2.44293,0.602722,
-2.44598,0.6073,
-2.45056,0.605774,
-2.45056,0.610352,
-2.45361,0.602722,
-2.45667,0.602722,
-2.46582,0.6073,
-2.4704,0.608826,
-2.47803,0.608826,
-2.48871,0.605774,
-2.49329,0.608826,
-2.49786,0.608826,
-2.50549,0.608826,
-2.51465,0.608826,
-2.52075,0.605774,
-2.52533,0.602722,
-2.53601,0.610352,
-2.53754,0.605774,
-2.54364,0.604248,
-2.55432,0.6073,
-2.5589,0.604248,
-2.56653,0.605774,
-2.57263,0.608826,
-2.57721,0.608826,
-2.58484,0.604248,
-2.58789,0.602722,
-2.59247,0.608826,
-2.59399,0.6073,
-2.59857,0.6073,
-2.6001,0.604248,
-2.60162,0.602722,
-2.59857,0.608826,
-2.59247,0.608826,
-2.58789,0.608826,
-2.57721,0.604248,
-2.56958,0.605774,
-2.5589,0.6073,
-2.54211,0.6073,
-2.52533,0.610352,
-2.51465,0.602722,
-2.49634,0.602722,
-2.48566,0.6073,
-2.46887,0.610352,
-2.45667,0.610352,
-2.43988,0.602722,
-2.4231,0.605774,
-2.40631,0.610352,
-2.39105,0.6073,
-2.38037,0.6073,
-2.36206,0.604248,
-2.3468,0.604248,
-2.33459,0.611877,
-2.31781,0.6073,
-2.30865,0.608826,
-2.2934,0.6073,
-2.28424,0.605774,
-2.27814,0.611877,
-2.27051,0.6073,
-2.2644,0.611877,
-2.25677,0.601196,
-2.24457,0.605774,
-2.24457,0.608826,
-2.24304,0.610352,
-2.23999,0.608826,
-2.23999,0.602722,
-2.23846,0.604248,
-2.24457,0.610352,
-2.24304,0.605774,
-2.24304,0.608826,
-2.24762,0.602722,
-2.24915,0.605774,
-2.25067,0.6073,
-2.25067,0.610352,
-2.25525,0.611877,
-2.25525,0.604248,
-2.25677,0.605774,
-2.2644,0.608826,
-2.26746,0.608826,
-2.27356,0.613403,
-2.27814,0.605774,
-2.28577,0.604248,
-2.28271,0.613403,
-2.28729,0.608826,
-2.29187,0.611877,
-2.29492,0.604248,
-2.29797,0.605774,
-2.3056,0.610352,
-2.30713,0.610352,
-2.30865,0.610352,
-2.31018,0.605774,
-2.30865,0.604248,
-2.31476,0.611877,
-2.31628,0.6073,
-2.31628,0.611877,
-2.31476,0.605774,
-2.30865,0.601196,
-2.31171,0.610352,
-2.30713,0.6073,
-2.30713,0.611877,
-2.3056,0.605774,
-2.30255,0.602722,
-2.29187,0.610352,
-2.28882,0.608826,
-2.28271,0.6073,
-2.27661,0.602722,
-2.27356,0.6073,
-2.26593,0.610352,
-2.26135,0.6073,
-2.25677,0.611877,
-2.2522,0.604248,
-2.24609,0.608826,
-2.24457,0.610352,
-2.23694,0.605774,
-2.23846,0.608826,
-2.23083,0.6073,
-2.22778,0.605774,
-2.22473,0.611877,
-2.22626,0.608826,
-2.22473,0.610352,
-2.22626,0.602722,
-2.22626,0.604248,
-2.23083,0.613403,
-2.23083,0.608826,
-2.23846,0.610352,
-2.24152,0.6073,
-2.24609,0.605774,
-2.2522,0.610352,
-2.25677,0.610352,
-2.26135,0.6073,
-2.26593,0.608826,
-2.27509,0.6073,
-2.27966,0.613403,
-2.28729,0.611877,
-2.29187,0.610352,
-2.30103,0.605774,
-2.30865,0.608826,
-2.31934,0.611877,
-2.32697,0.611877,
-2.33917,0.611877,
-2.3468,0.6073,
-2.35291,0.602722,
-2.36664,0.610352,
-2.37579,0.611877,
-2.38037,0.611877,
-2.39105,0.6073,
-2.39868,0.6073,
-2.40479,0.610352,
-2.41394,0.610352,
-2.4231,0.614929,
-2.43073,0.605774,
-2.43683,0.6073,
-2.44751,0.614929,
-2.45361,0.611877,
-2.45972,0.611877,
-2.46582,0.605774,
-2.46735,0.608826,
-2.46887,0.611877,
-2.48108,0.613403,
-2.48718,0.611877,
-2.49023,0.610352,
-2.50092,0.6073,
-2.50549,0.610352,
-2.51312,0.610352,
-2.51312,0.613403,
-2.52075,0.610352,
-2.5238,0.6073,
-2.52686,0.613403,
-2.52991,0.610352,
-2.52838,0.613403,
-2.53296,0.610352,
-2.53601,0.608826,
-2.54822,0.608826,
-2.54974,0.613403,
-2.55127,0.611877,
-2.5528,0.6073,
-2.55737,0.608826,
-2.56042,0.613403,
-2.565,0.613403,
-2.56958,0.613403,
-2.57721,0.6073,
-2.58484,0.610352,
-2.58942,0.614929,
-2.59705,0.611877,
-2.60162,0.614929,
-2.60468,0.608826,
-2.60925,0.611877,
-2.61536,0.611877,
-2.61841,0.614929,
-2.62299,0.608826,
-2.62604,0.608826,
-2.63214,0.610352,
-2.63519,0.613403,
-2.63214,0.616455,
-2.63519,0.613403,
-2.63672,0.610352,
-2.6413,0.608826,
-2.63977,0.610352,
-2.63977,0.617981,
-2.63824,0.611877,
-2.62604,0.611877,
-2.61841,0.605774,
-2.60925,0.613403,
-2.59094,0.613403,
-2.57568,0.608826,
-2.55737,0.611877,
-2.54211,0.604248,
-2.52686,0.610352,
-2.50397,0.613403,
-2.4826,0.613403,
-2.46277,0.605774,
-2.44598,0.608826,
-2.4292,0.613403,
-2.40936,0.616455,
-2.39105,0.616455,
-2.37427,0.605774,
-2.35748,0.613403,
-2.3407,0.613403,
-2.32544,0.617981,
-2.31171,0.611877,
-2.29492,0.6073,
-2.27966,0.611877,
-2.27203,0.614929,
-2.25525,0.614929,
-2.24762,0.611877,
-2.23389,0.605774,
-2.22473,0.610352,
-2.21863,0.614929,
-2.21405,0.617981,
-2.20947,0.611877,
-2.2049,0.6073,
-2.19879,0.608826,
-2.20337,0.613403,
-2.19879,0.617981,
-2.19879,0.608826,
-2.19879,0.613403,
-2.20184,0.613403,
-2.20337,0.613403,
-2.20642,0.617981,
-2.20795,0.614929,
-2.20947,0.611877,
-2.20795,0.608826,
-2.21252,0.610352,
-2.211,0.616455,
-2.211,0.613403,
-2.21252,0.610352,
-2.20947,0.610352,
-2.211,0.613403,
-2.21558,0.619507,
-2.21863,0.611877,
-2.22626,0.610352,
-2.22931,0.610352,
-2.23389,0.611877,
-2.24152,0.617981,
-2.24457,0.610352,
-2.24609,0.610352,
-2.24609,0.610352,
-2.24915,0.613403,
-2.24915,0.617981,
-2.25067,0.610352,
-2.25067,0.610352,
-2.25372,0.608826,
-2.25677,0.614929,
-2.25372,0.614929,
-2.25372,0.610352,
-2.2522,0.610352,
-2.24915,0.6073,
-2.24609,0.611877,
-2.24762,0.617981,
-2.24152,0.613403,
-2.23999,0.611877,
-2.23389,0.6073,
-2.23083,0.611877,
-2.22778,0.616455,
-2.22778,0.610352,
-2.22626,0.608826,
-2.22778,0.611877,
-2.22321,0.611877,
-2.22321,0.619507,
-2.21863,0.611877,
-2.2171,0.611877,
-2.21558,0.608826,
-2.21252,0.614929,
-2.21405,0.617981,
-2.211,0.614929,
-2.21252,0.610352,
-2.211,0.608826,
-2.2049,0.613403,
-2.211,0.617981,
-2.21252,0.611877,
-2.21252,0.610352,
-2.21558,0.610352,
-2.22015,0.613403,
-2.22473,0.619507,
-2.22473,0.616455,
-2.23083,0.610352,
-2.23236,0.613403,
-2.24152,0.613403,
-2.24304,0.617981,
-2.24762,0.610352,
-2.2522,0.610352,
-2.25525,0.610352,
-2.25983,0.613403,
-2.26288,0.621033,
-2.27051,0.613403,
-2.27661,0.611877,
-2.28119,0.610352,
-2.28882,0.613403,
-2.29645,0.617981,
-2.3056,0.613403,
-2.31323,0.610352,
-2.31781,0.608826,
-2.32544,0.613403,
-2.32849,0.621033,
-2.33307,0.617981,
-2.33917,0.610352,
-2.34375,0.611877,
-2.34833,0.614929,
-2.35748,0.622559,
-2.36511,0.613403,
-2.37427,0.611877,
-2.38037,0.608826,
-2.39105,0.617981,
-2.40021,0.619507,
-2.40631,0.613403,
-2.41089,0.611877,
-2.41394,0.613403,
-2.42004,0.611877,
-2.42157,0.619507,
-2.42462,0.611877,
-2.42615,0.614929,
-2.43073,0.608826,
-2.43073,0.613403,
-2.4353,0.619507,
-2.4353,0.611877,
-2.43683,0.611877,
-2.43835,0.613403,
-2.44293,0.616455,
-2.44751,0.621033,
-2.45209,0.610352,
-2.45667,0.613403,
-2.45819,0.610352,
-2.46735,0.613403,
-2.46735,0.621033,
-2.4704,0.610352,
-2.47803,0.610352,
-2.47955,0.610352,
-2.48718,0.616455,
-2.49329,0.616455,
-2.49786,0.611877,
-2.50092,0.611877,
-2.50397,0.611877,
-2.50854,0.614929,
-2.5116,0.621033,
-2.51465,0.613403,
-2.51465,0.614929,
-2.51923,0.613403,
-2.51923,0.617981,
-2.52075,0.619507,
-2.5238,0.614929,
-2.5177,0.611877,
-2.52075,0.610352,
-2.5116,0.617981,
-2.50549,0.619507,
-2.49786,0.613403,
-2.48566,0.616455,
-2.47192,0.613403,
-2.46124,0.617981,
-2.45209,0.619507,
-2.43835,0.611877,
-2.42157,0.616455,
-2.40479,0.613403,
-2.38953,0.616455,
-2.36969,0.621033,
-2.35138,0.613403,
-2.33459,0.613403,
-2.31628,0.616455,
-2.29492,0.622559,
-2.27966,0.619507,
-2.26135,0.617981,
-2.24304,0.614929,
-2.22321,0.613403,
-2.20337,0.619507,
-2.18811,0.619507,
-2.17438,0.617981,
-2.16064,0.614929,
-2.14844,0.613403,
-2.13776,0.619507,
-2.12402,0.617981,
-2.11182,0.613403,
-2.10266,0.617981,
-2.09351,0.616455,
-2.08435,0.621033,
-2.0813,0.617981,
-2.0752,0.616455,
-2.07062,0.614929,
-2.06146,0.611877,
-2.06146,0.621033,
-2.05231,0.619507,
-2.05231,0.614929,
-2.04926,0.616455,
-2.04926,0.617981,
-2.0462,0.621033,
-2.04468,0.617981,
-2.04468,0.614929,
-2.04315,0.616455,
-2.04468,0.614929,
-2.0462,0.624084,
-2.0462,0.617981,
-2.04773,0.616455,
-2.04773,0.611877,
-2.0462,0.613403,
-2.0462,0.621033,
-2.0462,0.616455,
-2.05078,0.616455,
-2.05688,0.613403,
-2.05841,0.614929,
-2.06451,0.624084,
-2.06909,0.617981,
-2.06909,0.616455,
-2.07214,0.616455,
-2.07825,0.614929,
-2.07977,0.622559,
-2.08435,0.616455,
-2.08435,0.616455,
-2.08893,0.619507,
-2.09045,0.614929,
-2.0874,0.624084,
-2.0874,0.621033,
-2.0874,0.617981,
-2.08588,0.617981,
-2.07977,0.614929,
-2.0813,0.622559,
-2.07214,0.622559,
-2.07214,0.613403,
-2.06146,0.614929,
-2.05841,0.614929,
-2.05536,0.619507,
-2.05231,0.617981,
-2.0462,0.617981,
-2.03857,0.610352,
-2.03857,0.614929,
-2.03094,0.619507,
-2.03094,0.621033,
-2.02637,0.616455,
-2.01874,0.614929,
-2.02179,0.613403,
-2.01263,0.621033,
-2.01263,0.619507,
-2.01263,0.619507,
-2.00806,0.613403,
-2.00348,0.616455,
-2.005,0.621033,
-2.00806,0.619507,
-2.00653,0.616455,
-2.00653,0.613403,
-2.00958,0.613403,
-2.00653,0.617981,
-2.005,0.621033,
-2.00806,0.617981,
-2.00348,0.614929,
-2.00806,0.619507,
-2.01111,0.616455,
-2.00958,0.617981,
-2.01721,0.616455,
-2.02026,0.616455,
-2.02332,0.613403,
-2.02637,0.622559,
-2.03094,0.619507,
-2.03552,0.617981,
-2.0401,0.614929,
-2.04926,0.614929,
-2.04926,0.619507,
-2.05688,0.619507,
-2.06604,0.616455,
-2.06909,0.616455,
-2.07977,0.614929,
-2.08893,0.617981,
-2.09656,0.619507,
-2.10876,0.621033,
-2.11182,0.616455,
-2.12402,0.614929,
-2.13013,0.619507,
-2.1347,0.622559,
-2.14844,0.616455,
-2.15454,0.614929,
-2.16217,0.617981,
-2.17133,0.619507,
-2.17896,0.619507,
-2.18811,0.621033,
-2.19269,0.617981,
-2.19727,0.614929,
-2.211,0.619507,
-2.21558,0.619507,
-2.22321,0.622559,
-2.23236,0.614929,
-2.23999,0.617981,
-2.24457,0.619507,
-2.2522,0.621033,
-2.26135,0.624084,
-2.27203,0.613403,
-2.27966,0.616455,
-2.28882,0.621033,
-2.2995,0.621033,
-2.31171,0.621033,
-2.31934,0.619507,
-2.32086,0.617981,
-2.33002,0.621033,
-2.33917,0.617981,
-2.34528,0.621033,
-2.35443,0.614929,
-2.36053,0.614929,
-2.36511,0.617981,
-2.36969,0.621033,
-2.37732,0.621033,
-2.3819,0.616455,
-2.38342,0.617981,
-2.38495,0.621033,
-2.38495,0.621033,
-2.3819,0.621033,
-2.38037,0.614929,
-2.37427,0.614929,
-2.37122,0.619507,
-2.36053,0.621033,
-2.35138,0.619507,
-2.33459,0.616455,
-2.32697,0.613403,
-2.31018,0.619507,
-2.29187,0.617981,
-2.27509,0.621033,
-2.25372,0.614929,
-2.22931,0.617981,
-2.2049,0.622559,
-2.18353,0.619507,
-2.16217,0.619507,
-2.1347,0.616455,
-2.11334,0.616455,
-2.09198,0.617981,
-2.06909,0.621033,
-2.0462,0.621033,
-2.02179,0.617981,
-2.00195,0.617981,
-1.97754,0.622559,
-1.96228,0.622559,
-1.94397,0.621033,
-1.92871,0.621033,
-1.91193,0.616455,
-1.89667,0.621033,
-1.87988,0.624084,
-1.86768,0.622559,
-1.85394,0.621033,
-1.83868,0.613403,
-1.828,0.619507,
-1.8158,0.617981,
-1.80817,0.621033,
-1.80511,0.621033,
-1.79901,0.616455,
-1.79443,0.622559,
-1.79138,0.616455,
-1.78223,0.624084,
-1.77765,0.619507,
-1.77765,0.619507,
-1.76697,0.624084,
-1.76697,0.622559,
-1.76239,0.624084,
-1.75781,0.622559,
-1.75476,0.619507,
-1.75018,0.619507,
-1.75171,0.619507,
-1.74866,0.622559,
-1.74713,0.619507,
-1.74408,0.619507,
-1.74408,0.622559,
-1.74255,0.621033,
-1.7395,0.621033,
-1.74103,0.617981,
-1.74408,0.619507,
-1.74408,0.622559,
-1.74561,0.622559,
-1.74866,0.624084,
-1.74713,0.621033,
-1.75476,0.617981,
-1.75629,0.622559,
-1.75629,0.621033,
-1.75934,0.621033,
-1.76086,0.622559,
-1.75629,0.619507,
-1.74866,0.621033,
-1.74866,0.621033,
-1.74408,0.624084,
-1.73492,0.619507,
-1.73187,0.621033,
-1.71814,0.622559,
-1.71356,0.622559,
-1.70593,0.622559,
-1.69678,0.622559,
-1.6922,0.616455,
-1.6861,0.621033,
-1.67542,0.621033,
-1.66626,0.62561,
-1.66016,0.621033,
-1.6571,0.617981,
-1.65253,0.624084,
-1.65253,0.622559,
-1.64337,0.62561,
-1.6449,0.621033,
-1.6449,0.621033,
-1.64642,0.624084,
-1.64642,0.627136,
-1.65253,0.627136,
-1.6571,0.621033,
-1.66016,0.617981,
-1.66473,0.622559,
-1.66626,0.622559,
-1.66931,0.624084,
-1.67084,0.622559,
-1.67389,0.622559,
-1.67542,0.624084,
-1.68152,0.621033,
-1.68152,0.627136,
-1.68762,0.621033,
-1.68915,0.621033,
-1.6983,0.622559,
-1.70593,0.621033,
-1.70898,0.627136,
-1.71204,0.624084,
-1.71661,0.622559,
-1.72424,0.622559,
-1.73187,0.622559,
-1.74103,0.63324,
-1.74561,0.622559,
-1.75018,0.624084,
-1.76086,0.621033,
-1.76849,0.627136,
-1.77765,0.627136,
-1.7868,0.622559,
-1.79443,0.622559,
-1.80359,0.62561,
-1.80817,0.627136,
-1.81732,0.628662,
-1.828,0.621033,
-1.83105,0.624084,
-1.83563,0.622559,
-1.83716,0.627136,
-1.84174,0.624084,
-1.84631,0.627136,
-1.85089,0.621033,
-1.86157,0.62561,
-1.86462,0.627136,
-1.87225,0.627136,
-1.87531,0.627136,
-1.88293,0.62561,
-1.89056,0.62561,
-1.90125,0.631714,
-1.90582,0.631714,
-1.90887,0.62561,
-1.92261,0.62561,
-1.92413,0.62561,
-1.93329,0.627136,
-1.94244,0.631714,
-1.95007,0.62561,
-1.95618,0.62561,
-1.96533,0.624084,
-1.97144,0.634766,
-1.97906,0.628662,
-1.98517,0.627136,
-1.99127,0.62561,
-1.99738,0.628662,
-2.005,0.631714,
-2.01111,0.631714,
-2.01721,0.627136,
-2.02332,0.62561,
-2.02637,0.628662,
-2.03094,0.634766,
-2.03705,0.634766,
-2.0401,0.627136,
-2.04315,0.62561,
-2.04163,0.628662,
-2.03705,0.63324,
-2.034,0.631714,
-2.03247,0.628662,
-2.02332,0.628662,
-2.01569,0.627136,
-2.00806,0.631714,
-1.99585,0.631714,
-1.98059,0.63324,
-1.96838,0.627136,
-1.9516,0.628662,
-1.94244,0.63324,
-1.92261,0.637817,
-1.9104,0.631714,
-1.89514,0.631714,
-1.87988,0.627136,
-1.86157,0.636292,
-1.84326,0.628662,
-1.82495,0.627136,
-1.80664,0.628662,
-1.7868,0.627136,
-1.77002,0.634766,
-1.75171,0.634766,
-1.73645,0.631714,
-1.72119,0.631714,
-1.70898,0.634766,
-1.69525,0.637817,
-1.68152,0.637817,
-1.67084,0.631714,
-1.66168,0.63324,
-1.65405,0.63324,
-1.64337,0.639343,
-1.64032,0.634766,
-1.63269,0.631714,
-1.62811,0.631714,
-1.62201,0.634766,
-1.61285,0.634766,
-1.60828,0.634766,
-1.6037,0.627136,
-1.5976,0.634766,
-1.59607,0.631714,
-1.58691,0.634766,
-1.57928,0.639343,
-1.57166,0.631714,
-1.57013,0.63324,
-1.5625,0.63324,
-1.55792,0.637817,
-1.55945,0.634766,
-1.55945,0.63324,
-1.56555,0.636292,
-1.57013,0.631714,
-1.57013,0.640869,
-1.57166,0.640869,
-1.57623,0.636292,
-1.57623,0.636292,
-1.58081,0.628662,
-1.58081,0.637817,
-1.58539,0.640869,
-1.58081,0.634766,
-1.58539,0.634766,
-1.58539,0.63324,
-1.58691,0.639343,
-1.58844,0.640869,
-1.58539,0.636292,
-1.58386,0.634766,
-1.58691,0.636292,
-1.58539,0.640869,
-1.58539,0.639343,
-1.58691,0.636292,
-1.58539,0.634766,
-1.57928,0.634766,
-1.57928,0.640869,
-1.57776,0.643921,
-1.57166,0.636292,
-1.56708,0.636292,
-1.5625,0.634766,
-1.56097,0.639343,
-1.5564,0.643921,
-1.55182,0.637817,
-1.54877,0.634766,
-1.55029,0.637817,
-1.54877,0.643921,
-1.55029,0.639343,
-1.55029,0.637817,
-1.54572,0.639343,
-1.54572,0.636292,
-1.54877,0.642395,
-1.54877,0.640869,
-1.54877,0.637817,
-1.55334,0.637817,
-1.55792,0.637817,
-1.56403,0.640869,
-1.57166,0.643921,
-1.57471,0.637817,
-1.57928,0.636292,
-1.58844,0.642395,
-1.59302,0.640869,
-1.6037,0.642395,
-1.60828,0.640869,
-1.61133,0.639343,
-1.62201,0.640869,
-1.62964,0.645447,
-1.63879,0.640869,
-1.64337,0.642395,
-1.65253,0.637817,
-1.66016,0.643921,
-1.66779,0.648499,
-1.67694,0.642395,
-1.6861,0.642395,
-1.69525,0.640869,
-1.70288,0.642395,
-1.71509,0.645447,
-1.72119,0.643921,
-1.72882,0.642395,
-1.73798,0.640869,
-1.74255,0.645447,
-1.74713,0.642395,
-1.75934,0.645447,
-1.76697,0.642395,
-1.77307,0.637817,
-1.78375,0.642395,
-1.79138,0.643921,
-1.79749,0.643921,
-1.80817,0.645447,
-1.81732,0.640869,
-1.82037,0.643921,
-1.83411,0.648499,
-1.83868,0.646973,
-1.84326,0.643921,
-1.85242,0.640869,
-1.85547,0.646973,
-1.86462,0.645447,
-1.87073,0.643921,
-1.87378,0.646973,
-1.88141,0.642395,
-1.89362,0.648499,
-1.90125,0.653076,
-1.91498,0.645447,
-1.92108,0.643921,
-1.92871,0.640869,
-1.93634,0.645447,
-1.94397,0.648499,
-1.94855,0.646973,
-1.9577,0.643921,
-1.96381,0.637817,
-1.96991,0.648499,
-1.97449,0.650024,
-1.98364,0.648499,
-1.99127,0.646973,
-1.9989,0.645447,
-2.00348,0.645447,
-2.00653,0.650024,
-2.01111,0.646973,
-2.00958,0.648499,
-2.00806,0.643921,
-2.00348,0.648499,
-1.99738,0.650024,
-1.98517,0.653076,
-1.97601,0.65155,
-1.96991,0.643921,
-1.95618,0.646973,
-1.93939,0.645447,
-1.92261,0.650024,
-1.9043,0.646973,
-1.88599,0.643921,
-1.86768,0.650024,
-1.85089,0.653076,
-1.828,0.650024,
-1.80817,0.648499,
-1.79138,0.643921,
-1.7746,0.646973,
-1.75171,0.650024,
-1.73187,0.653076,
-1.71204,0.650024,
-1.69373,0.640869,
-1.67542,0.648499,
-1.66168,0.65155,
-1.64795,0.650024,
-1.63422,0.650024,
-1.62201,0.640869,
-1.61133,0.650024,
-1.59912,0.65155,
-1.58691,0.654602,
-1.57318,0.65155,
-1.56555,0.637817,
-1.55945,0.65155,
-1.55029,0.648499,
-1.54572,0.648499,
-1.53656,0.650024,
-1.53351,0.642395,
-1.5274,0.653076,
-1.5213,0.65155,
-1.51215,0.65155,
-1.50604,0.650024,
-1.50757,0.646973,
-1.50452,0.650024,
-1.50146,0.65155,
-1.49536,0.650024,
-1.49078,0.650024,
-1.49078,0.643921,
-1.48773,0.653076,
-1.48468,0.654602,
-1.48315,0.648499,
-1.47705,0.650024,
-1.47705,0.645447,
-1.47705,0.650024,
-1.48163,0.654602,
-1.48315,0.654602,
-1.48468,0.65155,
-1.48621,0.643921,
-1.48621,0.653076,
-1.49231,0.653076,
-1.48926,0.65155,
-1.48926,0.654602,
-1.48621,0.646973,
-1.48315,0.650024,
-1.48468,0.657654,
-1.4801,0.653076,
-1.47552,0.653076,
-1.47247,0.643921,
-1.46942,0.650024,
-1.46942,0.654602,
-1.46332,0.654602,
-1.45874,0.65155,
-1.45264,0.645447,
-1.45264,0.653076,
-1.44196,0.654602,
-1.43738,0.654602,
-1.43127,0.654602,
-1.42822,0.648499,
-1.42517,0.650024,
-1.41907,0.650024,
-1.41907,0.65155,
-1.41754,0.65155,
-1.41296,0.642395,
-1.40839,0.656128,
-1.40686,0.653076,
-1.40228,0.653076,
-1.39923,0.656128,
-1.39771,0.643921,
-1.39465,0.654602,
-1.39313,0.653076,
-1.39465,0.653076,
-1.39618,0.65155,
-1.39923,0.642395,
-1.39465,0.653076,
-1.3916,0.65155,
-1.39313,0.654602,
-1.39465,0.656128,
-1.39618,0.643921,
-1.39923,0.653076,
-1.40228,0.654602,
-1.40686,0.656128,
-1.41296,0.653076,
-1.41907,0.646973,
-1.42365,0.653076,
-1.42822,0.654602,
-1.43738,0.653076,
-1.44196,0.653076,
-1.45111,0.650024,
-1.46027,0.657654,
-1.47095,0.656128,
-1.47552,0.65155,
-1.48773,0.653076,
-1.49384,0.650024,
-1.50146,0.656128,
-1.50757,0.654602,
-1.5152,0.657654,
-1.53046,0.653076,
-1.53809,0.650024,
-1.54877,0.653076,
-1.5564,0.656128,
-1.56555,0.656128,
-1.57166,0.650024,
-1.57623,0.65155,
-1.58691,0.657654,
-1.59454,0.653076,
-1.6037,0.65155,
-1.60828,0.65155,
-1.61743,0.650024,
-1.62201,0.654602,
-1.63116,0.654602,
-1.63574,0.653076,
-1.64337,0.648499,
-1.65558,0.650024,
-1.66016,0.653076,
-1.66779,0.654602,
-1.67236,0.654602,
-1.67999,0.65155,
-1.68915,0.653076,
-1.69525,0.657654,
-1.70288,0.654602,
-1.70593,0.654602,
-1.71356,0.648499,
-1.72119,0.650024,
-1.73492,0.657654,
-1.74103,0.657654,
-1.74713,0.656128,
-1.75781,0.650024,
-1.76849,0.65155,
-1.77612,0.654602,
-1.78223,0.653076,
-1.78986,0.654602,
-1.80206,0.648499,
-1.80664,0.65155,
-1.81427,0.653076,
-1.8219,0.657654,
-1.828,0.656128,
-1.83411,0.648499,
-1.83868,0.653076,
-1.83563,0.654602,
-1.83716,0.65918,
-1.82953,0.657654,
-1.828,0.650024,
-1.8158,0.65155,
-1.80664,0.653076,
-1.79443,0.654602,
-1.77917,0.654602,
-1.76239,0.646973,
-1.74408,0.650024,
-1.72577,0.654602,
-1.70593,0.657654,
-1.68304,0.656128,
-1.66016,0.646973,
-1.64032,0.65155,
-1.61896,0.653076,
-1.5976,0.656128,
-1.57928,0.656128,
-1.5564,0.650024,
-1.53351,0.653076,
-1.50757,0.653076,
-1.49078,0.656128,
-1.474,0.656128,
-1.45111,0.648499,
-1.43738,0.650024,
-1.42059,0.656128,
-1.40839,0.656128,
-1.39465,0.653076,
-1.37329,0.65155,
-1.36261,0.650024,
-1.3443,0.65155,
-1.33209,0.657654,
-1.31989,0.657654,
-1.3092,0.650024,
-1.297,0.648499,
-1.28784,0.653076,
-1.27411,0.657654,
-1.26343,0.656128,
-1.25427,0.654602,
-1.24359,0.65155,
-1.23444,0.656128,
-1.22681,0.654602,
-1.22375,0.657654,
-1.21765,0.65155,
-1.21307,0.650024,
-1.21002,0.654602,
-1.20239,0.656128,
-1.20544,0.653076,
-1.20544,0.653076,
-1.20087,0.650024,
-1.19934,0.657654,
-1.19781,0.653076,
-1.19934,0.654602,
-1.19934,0.65155,
-1.20697,0.65155,
-1.20544,0.657654,
-1.20239,0.657654,
-1.20697,0.656128,
-1.20544,0.650024,
-1.20697,0.653076,
-1.20697,0.653076,
-1.20239,0.653076,
-1.20544,0.654602,
-1.20239,0.65155,
-1.20087,0.648499,
-1.19476,0.653076,
-1.19476,0.656128,
-1.19476,0.654602,
-1.19629,0.653076,
-1.19476,0.65155,
-1.19629,0.653076,
-1.19324,0.656128,
-1.19171,0.656128,
-1.19019,0.654602,
-1.19171,0.653076,
-1.18713,0.65155,
-1.18561,0.656128,
-1.1795,0.656128,
-1.17645,0.653076,
-1.1734,0.65155,
-1.16577,0.653076,
-1.15967,0.656128,
-1.15814,0.656128,
-1.15509,0.653076,
-1.15509,0.650024,
-1.15204,0.654602,
-1.15356,0.657654,
-1.15356,0.656128,
-1.15204,0.654602,
-1.15204,0.65155,
-1.15204,0.650024,
-1.15204,0.657654,
-1.15051,0.656128,
-1.15204,0.653076,
-1.15509,0.653076,
-1.15204,0.650024,
-1.15051,0.656128,
-1.15356,0.653076,
-1.15356,0.653076,
-1.16425,0.653076,
-1.16577,0.650024,
-1.17493,0.656128,
-1.18103,0.654602,
-1.18713,0.65155,
-1.19629,0.65155,
-1.20239,0.648499,
-1.2146,0.656128,
-1.22375,0.656128,
-1.23291,0.654602,
-1.24207,0.65155,
-1.24969,0.645447,
-1.26038,0.660706,
-1.27411,0.656128,
-1.28632,0.653076,
-1.29089,0.650024,
-1.29852,0.653076,
-1.3092,0.656128,
-1.31226,0.654602,
-1.32141,0.656128,
-1.32141,0.650024,
-1.32599,0.65155,
-1.33514,0.656128,
-1.33667,0.654602,
-1.34277,0.653076,
-1.3504,0.653076,
-1.35498,0.65155,
-1.36566,0.654602,
-1.37329,0.653076,
-1.37939,0.65155,
-1.38702,0.653076,
-1.39313,0.65155,
-1.39618,0.654602,
-1.40076,0.654602,
-1.40839,0.653076,
-1.41754,0.654602,
-1.4267,0.65155,
-1.43127,0.65155,
-1.4389,0.654602,
-1.44348,0.656128,
-1.45264,0.653076,
-1.46332,0.65155,
-1.47095,0.653076,
-1.47705,0.654602,
-1.49078,0.65155,
-1.49689,0.656128,
-1.50604,0.648499,
-1.51672,0.654602,
-1.52283,0.653076,
-1.53351,0.650024,
-1.53961,0.653076,
-1.54877,0.653076,
-1.5564,0.653076,
-1.56403,0.653076,
-1.5686,0.654602,
-1.57471,0.654602,
-1.58386,0.648499,
-1.58844,0.654602,
-1.59912,0.654602,
-1.60217,0.653076,
-1.60675,0.653076,
-1.60522,0.65155,
-1.60522,0.657654,
-1.60522,0.656128,
-1.60217,0.654602,
-1.59454,0.653076,
-1.58691,0.648499,
-1.57623,0.654602,
-1.56403,0.65155,
-1.54572,0.650024,
-1.53198,0.654602,
-1.51215,0.653076,
-1.49994,0.656128,
-1.48163,0.656128,
-1.46484,0.653076,
-1.44348,0.656128,
-1.42212,0.653076,
-1.40381,0.657654,
-1.3855,0.654602,
-1.36566,0.654602,
-1.34583,0.654602,
-1.32904,0.650024,
-1.31226,0.65918,
-1.29242,0.654602,
-1.27106,0.654602,
-1.24664,0.65155,
-1.22681,0.648499,
-1.21002,0.654602,
-1.19324,0.654602,
-1.1734,0.653076,
-1.15814,0.656128,
-1.14136,0.648499,
-1.12762,0.654602,
-1.11542,0.654602,
-1.09863,0.657654,
-1.08795,0.65155,
-1.08032,0.65155,
-1.06964,0.654602,
-1.06201,0.654602,
-1.05438,0.656128,
-1.0498,0.653076,
-1.03912,0.653076,
-1.03455,0.654602,
-1.02234,0.656128,
-1.01776,0.654602,
-1.01471,0.65155,
-1.00708,0.650024,
-1.0025,0.653076,
-0.996399,0.653076,
-0.993347,0.657654,
-0.993347,0.653076,
-0.996399,0.654602,
-0.996399,0.656128,
-1.00098,0.654602,
-1.00098,0.654602,
-1.0025,0.650024,
-1.00555,0.648499,
-1.00403,0.653076,
-1.00708,0.656128,
-1.00861,0.653076,
-1.01013,0.65155,
-1.00861,0.646973,
-1.00861,0.65155,
-1.01013,0.654602,
-1.00861,0.656128,
-1.00403,0.65155,
-1.00403,0.65155,
-1.00555,0.65155,
-1.00098,0.653076,
-1.00098,0.656128,
-0.994873,0.65155,
-0.991821,0.646973,
-0.996399,0.653076,
-0.993347,0.653076,
-0.991821,0.65155,
-0.991821,0.650024,
-0.991821,0.646973,
-0.991821,0.654602,
-0.991821,0.65155,
-0.993347,0.653076,
-0.98877,0.648499,
-0.98877,0.65155,
-0.98877,0.656128,
-0.98877,0.65155,
-0.98877,0.654602,
-0.98877,0.646973,
-0.987244,0.653076,
-0.994873,0.656128,
-0.996399,0.650024,
-0.994873,0.654602,
-0.993347,0.650024,
-0.996399,0.65155,
-0.999451,0.654602,
-0.999451,0.650024,
-1.00555,0.656128,
-1.00861,0.648499,
-1.01013,0.650024,
-1.00861,0.654602,
-1.01318,0.650024,
-1.01624,0.654602,
-1.02539,0.65155,
-1.02386,0.648499,
-1.02844,0.650024,
-1.02997,0.65155,
-1.0376,0.653076,
-1.04218,0.646973,
-1.04828,0.65155,
-1.05438,0.650024,
-1.06049,0.650024,
-1.06812,0.65155,
-1.07269,0.650024,
-1.07727,0.65155,
-1.0849,0.650024,
-1.09253,0.653076,
-1.10168,0.656128,
-1.10474,0.646973,
-1.10931,0.645447,
-1.11694,0.653076,
-1.12,0.65155,
-1.1261,0.653076,
-1.13831,0.648499,
-1.14441,0.648499,
-1.15051,0.653076,
-1.16272,0.650024,
-1.16577,0.654602,
-1.17493,0.646973,
-1.18713,0.646973,
-1.19934,0.656128,
-1.20239,0.650024,
-1.21307,0.656128,
-1.2207,0.646973,
-1.22986,0.645447,
-1.23596,0.65155,
-1.24512,0.65155,
-1.2558,0.653076,
-1.26343,0.646973,
-1.27563,0.645447,
-1.28326,0.653076,
-1.28632,0.650024,
-1.29242,0.65155,
-1.30005,0.646973,
-1.30463,0.643921,
-1.31073,0.65155,
-1.31683,0.648499,
-1.32599,0.65155,
-1.33209,0.645447,
-1.3382,0.645447,
-1.34583,0.653076,
-1.3504,0.650024,
-1.35956,0.650024,
-1.36871,0.648499,
-1.37482,0.643921,
-1.38397,0.65155,
-1.39313,0.650024,
-1.40228,0.650024,
-1.41449,0.646973,
-1.4267,0.645447,
-1.43433,0.650024,
-1.44806,0.646973,
-1.45721,0.650024,
-1.46637,0.646973,
-1.4801,0.645447,
-1.48926,0.648499,
-1.49536,0.646973,
-1.49841,0.65155,
-1.49994,0.643921,
-1.49689,0.645447,
-1.49994,0.65155,
-1.49384,0.646973,
-1.48773,0.646973,
-1.4801,0.643921,
-1.46637,0.645447,
-1.45416,0.65155,
-1.44348,0.648499,
-1.43127,0.648499,
-1.41907,0.643921,
-1.40228,0.645447,
-1.3855,0.646973,
-1.36261,0.65155,
-1.34583,0.645447,
-1.32904,0.648499,
-1.30463,0.642395,
-1.28479,0.648499,
-1.26343,0.648499,
-1.24207,0.648499,
-1.22375,0.643921,
-1.19476,0.643921,
-1.17798,0.646973,
-1.15967,0.653076,
-1.13983,0.646973,
-1.12305,0.646973,
-1.10321,0.642395,
-1.08948,0.648499,
-1.06964,0.65155,
-1.05438,0.648499,
-1.04218,0.643921,
-1.02539,0.645447,
-1.01013,0.65155,
-0.999451,0.646973,
-0.98877,0.646973,
-0.978088,0.643921,
-0.968933,0.645447,
-0.961304,0.646973,
-0.9552,0.648499,
-0.946045,0.648499,
-0.942993,0.640869,
-0.93689,0.643921,
-0.926208,0.648499,
-0.923157,0.648499,
-0.917053,0.646973,
-0.91095,0.643921,
-0.906372,0.643921,
-0.900269,0.650024,
-0.90332,0.648499,
-0.90332,0.648499,
-0.901794,0.645447,
-0.901794,0.645447,
-0.90332,0.646973,
-0.904846,0.648499,
-0.906372,0.648499,
-0.909424,0.643921,
-0.907898,0.645447,
-0.907898,0.645447,
-0.909424,0.648499,
-0.909424,0.645447,
-0.91095,0.640869,
-0.917053,0.643921,
-0.915527,0.646973,
-0.91095,0.650024,
-0.906372,0.642395,
-0.901794,0.640869,
-0.897217,0.642395,
-0.892639,0.643921,
-0.888062,0.648499,
-0.888062,0.646973,
-0.886536,0.640869,
-0.88501,0.642395,
-0.880432,0.646973,
-0.87738,0.650024,
-0.874329,0.642395,
-0.869751,0.643921,
-0.865173,0.642395,
-0.857544,0.646973,
-0.856018,0.65155,
-0.852966,0.645447,
-0.849915,0.642395,
-0.846863,0.640869,
-0.846863,0.643921,
-0.845337,0.648499,
-0.845337,0.643921,
-0.842285,0.640869,
-0.840759,0.643921,
-0.842285,0.646973,
-0.842285,0.650024,
-0.842285,0.643921,
-0.842285,0.639343,
-0.845337,0.640869,
-0.85144,0.646973,
-0.856018,0.650024,
-0.862122,0.642395,
-0.862122,0.642395,
-0.866699,0.640869,
-0.874329,0.645447,
-0.875854,0.648499,
-0.88501,0.645447,
-0.892639,0.643921,
-0.898743,0.639343,
-0.907898,0.645447,
-0.914001,0.65155,
-0.921631,0.645447,
-0.927734,0.643921,
-0.939941,0.643921,
-0.944519,0.642395,
-0.952148,0.65155,
-0.959778,0.642395,
-0.968933,0.642395,
-0.978088,0.645447,
-0.985718,0.646973,
-0.98877,0.648499,
-0.994873,0.642395,
-1.00555,0.640869,
-1.01318,0.639343,
-1.02234,0.640869,
-1.02692,0.648499,
-1.0376,0.640869,
-1.0437,0.642395,
-1.04828,0.639343,
-1.05591,0.645447,
-1.06812,0.650024,
-1.07117,0.643921,
-1.07727,0.639343,
-1.0849,0.640869,
-1.09253,0.645447,
-1.10168,0.653076,
-1.10779,0.643921,
-1.11847,0.640869,
-1.12762,0.642395,
-1.13831,0.642395,
-1.14746,0.645447,
-1.15967,0.643921,
-1.1734,0.640869,
-1.18256,0.640869,
-1.19324,0.643921,
-1.20239,0.648499,
-1.21307,0.645447,
-1.22223,0.639343,
-1.23444,0.639343,
-1.24359,0.646973,
-1.25275,0.648499,
-1.2619,0.643921,
-1.27411,0.639343,
-1.28632,0.640869,
-1.29395,0.646973,
-1.30157,0.648499,
-1.31226,0.643921,
-1.32141,0.643921,
-1.33209,0.642395,
-1.34277,0.642395,
-1.35345,0.648499,
-1.36108,0.643921,
-1.37177,0.643921,
-1.37939,0.639343,
-1.38702,0.645447,
-1.39618,0.650024,
-1.40381,0.643921,
-1.40839,0.640869,
-1.41907,0.640869,
-1.42517,0.643921,
-1.42822,0.645447,
-1.43585,0.639343,
-1.4389,0.640869,
-1.43738,0.643921,
-1.4389,0.645447,
-1.43433,0.648499,
-1.43127,0.646973,
-1.4267,0.643921,
-1.41754,0.640869,
-1.41144,0.648499,
-1.39465,0.646973,
-1.38092,0.640869,
-1.35956,0.642395,
-1.3382,0.642395,
-1.31836,0.646973,
-1.29852,0.646973,
-1.28021,0.645447,
-1.25732,0.642395,
-1.23749,0.643921,
-1.2146,0.646973,
-1.19324,0.646973,
-1.17493,0.642395,
-1.15204,0.642395,
-1.13068,0.640869,
-1.10779,0.650024,
-1.08643,0.645447,
-1.06964,0.639343,
-1.04828,0.640869,
-1.02539,0.643921,
-1.00708,0.650024,
-0.985718,0.645447,
-0.970459,0.639343,
-0.950623,0.642395,
-0.93689,0.642395,
-0.921631,0.648499,
-0.906372,0.648499,
-0.889587,0.642395,
-0.87738,0.642395,
-0.862122,0.642395,
-0.852966,0.650024,
-0.845337,0.645447,
-0.837708,0.642395,
-0.83313,0.642395,
-0.823975,0.643921,
-0.819397,0.650024,
-0.811768,0.648499,
-0.804138,0.642395,
-0.802612,0.640869,
-0.798035,0.642395,
-0.793457,0.650024,
-0.790405,0.646973,
-0.790405,0.640869,
-0.785828,0.642395,
-0.787354,0.639343,
-0.787354,0.650024,
-0.788879,0.645447,
-0.785828,0.642395,
-0.793457,0.640869,
-0.798035,0.639343,
-0.799561,0.648499,
-0.801086,0.643921,
-0.804138,0.643921,
-0.805664,0.643921,
-0.805664,0.640869,
-0.808716,0.648499,
-0.808716,0.645447,
-0.811768,0.643921,
-0.810242,0.639343,
-0.811768,0.640869,
-0.814819,0.646973,
-0.820923,0.645447,
-0.823975,0.642395,
-0.830078,0.646973,
-0.83313,0.640869,
-0.831604,0.645447,
-0.83313,0.642395,
-0.834656,0.640869,
-0.831604,0.642395,
-0.834656,0.640869,
-0.836182,0.648499,
-0.830078,0.643921,
-0.83313,0.640869,
-0.828552,0.642395,
-0.831604,0.639343,
-0.83313,0.646973,
-0.830078,0.645447,
-0.834656,0.640869,
-0.83313,0.642395,
-0.839233,0.639343,
-0.843811,0.646973,
-0.845337,0.645447,
-0.85144,0.643921,
-0.856018,0.640869,
-0.862122,0.640869,
-0.863647,0.645447,
-0.869751,0.646973,
-0.878906,0.643921,
-0.886536,0.642395,
-0.891113,0.640869,
-0.898743,0.645447,
-0.90332,0.643921,
-0.915527,0.645447,
-0.921631,0.640869,
-0.933838,0.642395,
-0.941467,0.645447,
-0.949097,0.645447,
-0.959778,0.642395,
-0.971985,0.639343,
-0.978088,0.639343,
-0.985718,0.643921,
-0.993347,0.642395,
-1.00708,0.643921,
-1.01471,0.640869,
-1.02234,0.640869,
-1.03455,0.645447,
-1.04218,0.645447,
-1.04675,0.639343,
-1.05591,0.642395,
-1.06812,0.639343,
-1.0788,0.643921,
-1.08643,0.643921,
-1.09711,0.645447,
-1.10321,0.640869,
-1.11237,0.643921,
-1.12152,0.642395,
-1.13373,0.642395,
-1.14594,0.645447,
-1.15204,0.639343,
-1.16272,0.639343,
-1.17493,0.642395,
-1.18103,0.645447,
-1.18713,0.643921,
-1.19324,0.640869,
-1.2085,0.639343,
-1.21613,0.642395,
-1.22528,0.642395,
-1.23444,0.643921,
-1.24359,0.636292,
-1.2558,0.637817,
-1.26343,0.645447,
-1.27411,0.642395,
-1.28021,0.643921,
-1.28937,0.637817,
-1.3031,0.637817,
-1.31683,0.643921,
-1.32599,0.642395,
-1.3382,0.643921,
-1.3504,0.637817,
-1.36108,0.636292,
-1.37177,0.643921,
-1.38702,0.642395,
-1.39771,0.643921,
-1.41296,0.636292,
-1.42059,0.636292,
-1.43127,0.642395,
-1.44348,0.640869,
-1.45111,0.643921,
-1.45569,0.639343,
-1.46942,0.636292,
-1.4801,0.640869,
-1.48773,0.639343,
-1.49841,0.640869,
-1.50452,0.637817,
-1.51672,0.634766,
-1.52588,0.642395,
-1.5274,0.639343,
-1.53351,0.643921,
-1.53351,0.639343,
-1.53198,0.634766,
-1.52893,0.639343,
-1.52283,0.637817,
-1.51672,0.643921,
-1.51062,0.639343,
-1.49994,0.634766,
-1.48926,0.640869,
-1.47705,0.639343,
-1.4679,0.642395,
-1.44958,0.634766,
-1.4328,0.634766,
-1.42212,0.640869,
-1.40381,0.637817,
-1.39008,0.640869,
-1.37024,0.637817,
-1.35498,0.637817,
-1.33667,0.639343,
-1.31989,0.637817,
-1.30005,0.637817,
-1.28326,0.637817,
-1.26648,0.634766,
-1.24969,0.639343,
-1.23444,0.640869,
-1.21765,0.640869,
-1.20697,0.634766,
-1.19019,0.634766,
-1.18256,0.639343,
-1.17035,0.637817,
-1.15967,0.639343,
-1.15356,0.634766,
-1.14441,0.631714,
-1.13983,0.637817,
-1.13678,0.636292,
-1.13068,0.637817,
-1.12915,0.637817,
-1.12915,0.639343,
-1.12762,0.639343,
-1.12305,0.636292,
-1.12762,0.639343,
-1.12457,0.636292,
-1.12762,0.634766,
-1.12915,0.636292,
-1.1322,0.640869,
-1.13373,0.637817,
-1.13831,0.636292,
-1.14288,0.63324,
-1.14136,0.637817,
-1.14441,0.637817,
-1.14441,0.639343,
-1.14746,0.637817,
-1.15051,0.63324,
-1.15662,0.634766,
-1.15814,0.636292,
-1.16119,0.639343,
-1.16425,0.636292,
-1.1673,0.636292,
-1.17035,0.634766,
-1.17188,0.636292,
-1.17493,0.639343,
-1.1734,0.63324,
-1.17798,0.636292,
-1.1795,0.637817,
-1.1795,0.637817,
-1.18103,0.639343,
-1.17645,0.636292,
-1.17493,0.63324,
-1.17493,0.634766,
-1.17645,0.637817,
-1.17035,0.639343,
-1.17493,0.634766,
-1.17493,0.63324,
-1.17645,0.63324,
-1.17798,0.639343,
-1.1795,0.637817,
-1.18103,0.637817,
-1.17798,0.634766,
-1.17645,0.634766,
-1.17645,0.637817,
-1.17493,0.634766,
-1.1734,0.640869,
-1.17035,0.63324,
-1.17035,0.63324,
-1.17645,0.639343,
-1.17493,0.637817,
-1.17493,0.636292,
-1.18256,0.634766,
-1.18256,0.636292,
-1.18713,0.639343,
-1.19629,0.639343,
-1.20087,0.631714,
-1.2085,0.634766,
-1.21002,0.634766,
-1.21765,0.637817,
-1.22375,0.636292,
-1.22681,0.634766,
-1.23444,0.634766,
-1.24054,0.637817,
-1.24817,0.637817,
-1.2558,0.637817,
-1.26038,0.631714,
-1.26648,0.63324,
-1.27869,0.63324,
-1.28632,0.639343,
-1.29547,0.636292,
-1.30157,0.636292,
-1.31226,0.63324,
-1.31989,0.634766,
-1.32599,0.639343,
-1.33057,0.63324,
-1.33667,0.634766,
-1.34583,0.636292,
-1.35498,0.634766,
-1.36261,0.640869,
-1.37482,0.637817,
-1.3855,0.63324,
-1.39465,0.636292,
-1.40533,0.634766,
-1.41907,0.637817,
-1.4267,0.639343,
-1.43585,0.63324,
-1.44958,0.63324,
-1.45416,0.63324,
-1.46942,0.637817,
-1.47705,0.636292,
-1.49078,0.63324,
-1.50146,0.636292,
-1.50604,0.63324,
-1.51978,0.636292,
-1.52893,0.636292,
-1.53809,0.63324,
-1.55029,0.637817,
-1.55487,0.634766,
-1.5686,0.637817,
-1.57318,0.634766,
-1.58386,0.631714,
-1.59607,0.63324,
-1.6037,0.63324,
-1.61743,0.637817,
-1.62506,0.637817,
-1.63269,0.631714,
-1.63879,0.634766,
-1.64642,0.636292,
-1.65253,0.637817,
-1.66168,0.636292,
-1.67236,0.631714,
-1.68304,0.631714,
-1.6922,0.63324,
-1.70441,0.639343,
-1.71204,0.637817,
-1.72272,0.628662,
-1.73645,0.63324,
-1.74713,0.634766,
-1.76086,0.639343,
-1.77002,0.637817,
-1.78223,0.631714,
-1.79291,0.63324,
-1.80054,0.634766,
-1.80969,0.640869,
-1.81122,0.636292,
-1.81274,0.63324,
-1.81427,0.63324,
-1.80969,0.63324,
-1.80664,0.636292,
-1.79596,0.639343,
-1.78375,0.631714,
-1.7746,0.634766,
-1.76239,0.627136,
-1.74255,0.636292,
-1.73187,0.636292,
-1.71509,0.634766,
-1.69678,0.631714,
-1.67694,0.631714,
-1.66016,0.637817,
-1.63879,0.637817,
-1.62048,0.634766,
-1.60065,0.63324,
-1.57776,0.631714,
-1.55945,0.637817,
-1.53961,0.639343,
-1.5213,0.63324,
-1.49994,0.634766,
-1.4801,0.63324,
-1.46484,0.637817,
-1.44958,0.636292,
-1.4328,0.63324,
-1.42059,0.631714,
-1.40381,0.631714,
-1.38702,0.634766,
-1.37329,0.636292,
-1.35803,0.636292,
-1.34735,0.63324,
-1.3382,0.634766,
-1.32904,0.634766,
-1.31531,0.636292,
-1.31226,0.63324,
-1.30157,0.63324,
-1.297,0.631714,
-1.28937,0.636292,
-1.28174,0.636292,
-1.28326,0.63324,
-1.27716,0.636292,
-1.27563,0.634766,
-1.26648,0.639343,
-1.26953,0.636292,
-1.26801,0.631714,
-1.26648,0.63324,
-1.26953,0.63324,
-1.27106,0.636292,
-1.27411,0.63324,
-1.27716,0.63324,
-1.27716,0.628662,
-1.27869,0.631714,
-1.28326,0.63324,
-1.28326,0.634766,
-1.28937,0.631714,
-1.29395,0.627136,
-1.29852,0.634766,
-1.3031,0.63324,
-1.31226,0.631714,
-1.31683,0.631714,
-1.31836,0.624084,
-1.32446,0.634766,
-1.32904,0.637817,
-1.33362,0.63324,
-1.33514,0.63324,
-1.3382,0.627136,
-1.34277,0.63324,
-1.34583,0.637817,
-1.34735,0.634766,
-1.3504,0.631714,
-1.3504,0.627136,
-1.34735,0.636292,
-1.3443,0.639343,
-1.33667,0.637817,
-1.3382,0.63324,
-1.33362,0.628662,
-1.33057,0.63324,
-1.33209,0.639343,
-1.33057,0.634766,
-1.33362,0.634766,
-1.33514,0.628662,
-1.3382,0.631714,
-1.33362,0.634766,
-1.33514,0.63324,
-1.33209,0.634766,
-1.33057,0.631714,
-1.33362,0.628662,
-1.32904,0.636292,
-1.33514,0.639343,
-1.33209,0.634766,
-1.33514,0.628662,
-1.34277,0.634766,
-1.34888,0.63324,
-1.35803,0.526428,
-1.36566,0.617981,
-1.37177,0.621033,
-1.37939,0.631714,
-1.38702,0.631714,
-1.3916,0.631714,
-1.39771,0.636292,
-1.40228,0.622559,
-1.40228,0.631714,
-1.40381,0.636292,
-1.39771,0.63324,
-1.39923,0.627136,
-1.40228,0.624084,
-1.40686,0.63324,
-1.40839,0.637817,
-1.41754,0.634766,
-1.42365,0.634766,
-1.43127,0.622559,
-1.44348,0.631714,
-1.45111,0.637817,
-1.46332,0.634766,
-1.47095,0.634766,
-1.48315,0.622559,
-1.49231,0.634766,
-1.50299,0.634766,
-1.51672,0.631714,
-1.53351,0.63324,
-1.54419,0.62561,
-1.5625,0.631714,
-1.57318,0.636292,
-1.58539,0.634766,
-1.5976,0.634766,
-1.61285,0.622559,
-1.62048,0.636292,
-1.62354,0.63324,
-1.63116,0.634766,
-1.64032,0.631714,
-1.6449,0.622559,
-1.65253,0.631714,
-1.66016,0.631714,
-1.66321,0.636292,
-1.67694,0.631714,
-1.68915,0.622559,
-1.69983,0.634766,
-1.70746,0.631714,
-1.72272,0.634766,
-1.72729,0.63324,
-1.74103,0.622559,
-1.74561,0.628662,
-1.75934,0.634766,
-1.77155,0.63324,
-1.77765,0.631714,
-1.78986,0.622559,
-1.80054,0.631714,
-1.81274,0.63324,
-1.82495,0.628662,
-1.83563,0.634766,
-1.84784,0.624084,
-1.85852,0.631714,
-1.86768,0.63324,
-1.87683,0.63324,
-1.88141,0.63324,
-1.88599,0.624084,
-1.88599,0.628662,
-1.89514,0.628662,
-1.89819,0.63324,
-1.90125,0.628662,
-1.90125,0.62561,
-1.9043,0.631714,
-1.90582,0.628662,
-1.89972,0.627136,
-1.89972,0.628662,
-1.89819,0.621033,
-1.89514,0.628662,
-1.89056,0.634766,
-1.88141,0.628662,
-1.87683,0.62561,
-1.86615,0.624084,
-1.85547,0.634766,
-1.84479,0.628662,
-1.828,0.62561,
-1.81732,0.627136,
-1.80359,0.62561,
-1.7868,0.631714,
-1.77002,0.631714,
-1.75018,0.631714,
-1.7395,0.62561,
-1.72119,0.622559,
-1.70898,0.628662,
-1.69525,0.63324,
-1.67542,0.63324,
-1.66016,0.62561,
-1.6449,0.622559,
-1.63422,0.627136,
-1.61743,0.63324,
-1.60675,0.631714,
-1.59607,0.62561,
-1.58081,0.62561,
-1.57013,0.628662,
-1.55945,0.628662,
-1.54877,0.627136,
-1.53961,0.62561,
-1.53198,0.624084,
-1.52435,0.627136,
-1.51672,0.627136,
-1.51062,0.62561,
-1.50146,0.622559,
-1.49536,0.62561,
-1.49078,0.628662,
-1.48468,0.627136,
-1.48468,0.628662,
-1.48468,0.619507,
-1.48468,0.624084,
-1.48163,0.627136,
-1.48468,0.627136,
-1.48468,0.628662,
-1.48773,0.622559,
-1.49231,0.62561,
-1.49231,0.631714,
-1.49841,0.628662,
-1.50146,0.631714,
-1.50757,0.621033,
-1.50909,0.622559,
-1.50909,0.627136,
-1.51978,0.627136,
-1.52588,0.628662,
-1.53351,0.621033,
-1.54419,0.624084,
-1.54419,0.627136,
-1.55029,0.62561,
-1.5564,0.628662,
-1.5625,0.619507,
-1.56403,0.622559,
-1.56555,0.624084,
-1.56555,0.627136,
-1.57013,0.622559,
-1.57166,0.619507,
-1.57166,0.624084,
-1.57776,0.62561,
-1.57623,0.624084,
-1.57928,0.622559,
-1.58081,0.621033,
-1.58539,0.624084,
-1.58539,0.62561,
-1.58844,0.627136,
-1.58691,0.627136,
-1.58691,0.617981,
-1.58997,0.619507,
-1.58539,0.622559,
-1.58691,0.627136,
-1.58844,0.628662,
-1.58691,0.621033,
-1.58691,0.621033,
-1.58844,0.624084,
-1.59149,0.62561,
-1.58997,0.622559,
-1.59454,0.624084,
-1.5976,0.621033,
-1.60065,0.624084,
-1.60217,0.62561,
-1.60217,0.627136,
-1.59912,0.622559,
-1.6037,0.624084,
-1.6037,0.622559,
-1.60522,0.627136,
-1.61133,0.627136,
-1.61133,0.621033,
-1.61438,0.622559,
-1.61896,0.624084,
-1.62506,0.624084,
-1.62811,0.628662,
-1.63574,0.622559,
-1.64337,0.622559,
-1.64642,0.621033,
-1.65253,0.628662,
-1.6571,0.62561,
-1.66473,0.624084,
-1.67236,0.621033,
-1.67847,0.621033,
-1.69067,0.628662,
-1.69678,0.627136,
-1.70593,0.621033,
-1.71051,0.624084,
-1.71814,0.622559,
