-2.00653,0.737
-2.03094,0.744629
-2.05688,0.746155
-2.08282,0.741577
-2.11182,0.743103
-2.13776,0.738525
-2.17133,0.749207
-2.20337,0.747681
-2.23694,0.741577
-2.26746,0.741577
-2.3056,0.741577
-2.3407,0.747681
-2.37885,0.746155
-2.41547,0.741577
-2.45056,0.738525
-2.48108,0.741577
-2.50702,0.747681
-2.53448,0.746155
-2.55737,0.740051
-2.58179,0.743103
-2.59399,0.741577
-2.60468,0.747681
-2.61536,0.746155
-2.62146,0.740051
-2.62451,0.741577
-2.63062,0.741577
-2.63062,0.746155
-2.63214,0.747681
-2.62451,0.744629
-2.61993,0.741577
-2.6123,0.740051
-2.60468,0.752258
-2.59552,0.747681
-2.58331,0.743103
-2.58026,0.741577
-2.56958,0.740051
-2.565,0.750732
-2.5589,0.747681
-2.55432,0.741577
-2.54364,0.743103
-2.53754,0.741577
-2.53296,0.749207
-2.52991,0.741577
-2.52686,0.740051
-2.53143,0.743103
-2.53448,0.740051
-2.53601,0.747681
-2.54364,0.747681
-2.55432,0.743103
-2.56195,0.743103
-2.56958,0.741577
-2.57721,0.747681
-2.58789,0.747681
-2.6001,0.741577
-2.60925,0.740051
-2.62146,0.740051
-2.63519,0.746155
-2.65045,0.747681
-2.66113,0.741577
-2.67181,0.743103
-2.69012,0.743103
-2.70386,0.749207
-2.71759,0.749207
-2.73132,0.738525
-2.74506,0.744629
-2.76642,0.741577
-2.78015,0.752258
-2.79694,0.747681
-2.81067,0.741577
-2.8244,0.744629
-2.84119,0.740051
-2.85797,0.750732
-2.8717,0.749207
-2.88696,0.740051
-2.90527,0.743103
-2.92358,0.743103
-2.93884,0.752258
-2.96021,0.747681
-2.97546,0.738525
-2.99072,0.743103
-3.00903,0.744629
-3.02429,0.749207
-3.0426,0.750732
-3.06244,0.743103
-3.08228,0.743103
-3.10364,0.743103
-3.12195,0.749207
-3.14636,0.752258
-3.1662,0.741577
-3.17841,0.743103
-3.20129,0.743103
-3.22113,0.752258
-3.24402,0.747681
-3.25928,0.741577
-3.28369,0.744629
-3.30353,0.744629
-3.32336,0.749207
-3.34473,0.746155
-3.36304,0.738525
-3.38287,0.744629
-3.40881,0.744629
-3.42865,0.753784
-3.44849,0.749207
-3.46069,0.743103
-3.47137,0.746155
-3.47443,0.744629
-3.47443,0.753784
-3.4668,0.753784
-3.45612,0.741577
-3.44391,0.747681
-3.42407,0.746155
-3.40271,0.753784
-3.37067,0.752258
-3.32794,0.746155
-3.29132,0.743103
-3.24707,0.747681
-3.19519,0.752258
-3.14178,0.750732
-3.08838,0.743103
-3.03345,0.744629
-2.98004,0.744629
-2.91901,0.752258
-2.86255,0.753784
-2.80762,0.744629
-2.75421,0.743103
-2.69928,0.747681
-2.64435,0.752258
-2.59247,0.752258
-2.53906,0.744629
-2.48718,0.743103
-2.43988,0.747681
-2.39563,0.752258
-2.35748,0.750732
-2.31781,0.746155
-2.28424,0.744629
-2.25372,0.743103
-2.22778,0.756836
-2.2049,0.747681
-2.18353,0.744629
-2.16827,0.741577
-2.15607,0.744629
-2.14386,0.750732
-2.13623,0.752258
-2.1286,0.747681
-2.1225,0.741577
-2.12555,0.743103
-2.13013,0.750732
-2.13318,0.750732
-2.13928,0.746155
-2.14844,0.743103
-2.15912,0.746155
-2.17133,0.75531
-2.18658,0.749207
-2.20795,0.744629
-2.22778,0.741577
-2.24915,0.746155
-2.27356,0.752258
-2.29645,0.750732
-2.32391,0.746155
-2.34985,0.743103
-2.38342,0.744629
-2.40936,0.750732
-2.43225,0.749207
-2.45667,0.746155
-2.48108,0.741577
-2.50397,0.744629
-2.52838,0.749207
-2.54669,0.747681
-2.56805,0.743103
-2.58484,0.738525
-2.59705,0.747681
-2.60773,0.749207
-2.62146,0.744629
-2.62604,0.743103
-2.63672,0.741577
-2.63977,0.744629
-2.64282,0.750732
-2.64435,0.746155
-2.6413,0.738525
-2.64282,0.738525
-2.63824,0.743103
-2.63214,0.750732
-2.63214,0.746155
-2.62756,0.744629
-2.62451,0.740051
-2.62299,0.744629
-2.61841,0.749207
-2.61688,0.746155
-2.61688,0.744629
-2.61078,0.741577
-2.60773,0.743103
-2.6062,0.747681
-2.61078,0.746155
-2.61078,0.746155
-2.6123,0.740051
-2.6123,0.744629
-2.61993,0.749207
-2.62299,0.746155
-2.62604,0.741577
-2.63367,0.740051
-2.64587,0.746155
-2.65656,0.750732
-2.66571,0.747681
-2.67334,0.743103
-2.68097,0.737
-2.69318,0.746155
-2.70233,0.752258
-2.70996,0.744629
-2.72217,0.743103
-2.73132,0.737
-2.74658,0.744629
-2.76031,0.752258
-2.77405,0.744629
-2.78625,0.741577
-2.79694,0.740051
-2.81372,0.746155
-2.83203,0.747681
-2.85034,0.744629
-2.8656,0.743103
-2.88086,0.737
-2.90222,0.746155
-2.9129,0.744629
-2.93121,0.741577
-2.94647,0.741577
-2.96173,0.735474
-2.97546,0.746155
-2.98767,0.744629
-3.01056,0.741577
-3.02277,0.741577
-3.04108,0.740051
-3.05786,0.743103
-3.07312,0.746155
-3.09296,0.743103
-3.11279,0.744629
-3.12653,0.737
-3.14331,0.743103
-3.16162,0.749207
-3.18146,0.740051
-3.20129,0.743103
-3.2196,0.735474
-3.23639,0.746155
-3.25165,0.746155
-3.26843,0.743103
-3.28369,0.740051
-3.30505,0.735474
-3.31573,0.743103
-3.33405,0.752258
-3.35236,0.741577
-3.36456,0.740051
-3.37982,0.737
-3.39661,0.744629
-3.41339,0.749207
-3.42712,0.740051
-3.44086,0.741577
-3.44696,0.732422
-3.45764,0.746155
-3.45917,0.747681
-3.45612,0.744629
-3.44849,0.743103
-3.44086,0.732422
-3.42255,0.746155
-3.39966,0.746155
-3.3783,0.741577
-3.3493,0.744629
-3.31573,0.733948
-3.27301,0.747681
-3.22876,0.744629
-3.18451,0.741577
-3.13873,0.740051
-3.08838,0.727844
-3.0365,0.744629
-2.98615,0.743103
-2.93427,0.743103
-2.88086,0.743103
-2.83051,0.732422
-2.7771,0.743103
-2.72675,0.741577
-2.67639,0.743103
-2.63367,0.741577
-2.58942,0.730896
-2.55127,0.741577
-2.5116,0.746155
-2.46887,0.740051
-2.43683,0.740051
-2.40631,0.730896
-2.38037,0.744629
-2.35748,0.743103
-2.33459,0.741577
-2.31781,0.741577
-2.30713,0.730896
-2.29187,0.741577
-2.28577,0.746155
-2.28271,0.738525
-2.28119,0.738525
-2.28424,0.726318
-2.28729,0.740051
-2.29187,0.744629
-2.30255,0.743103
-2.31323,0.740051
-2.32391,0.727844
-2.3407,0.738525
-2.35901,0.744629
-2.37122,0.740051
-2.39258,0.738525
-2.41241,0.724792
-2.43988,0.738525
-2.45972,0.740051
-2.48108,0.740051
-2.50549,0.737
-2.53143,0.726318
-2.55737,0.740051
-2.58179,0.740051
-2.60773,0.743103
-2.63062,0.737
-2.6535,0.723267
-2.66724,0.737
-2.68402,0.741577
-2.70081,0.738525
-2.71454,0.740051
-2.73132,0.724792
-2.73895,0.741577
-2.74658,0.738525
-2.75269,0.738525
-2.75574,0.735474
-2.75421,0.720215
-2.75574,0.738525
-2.75421,0.740051
-2.74506,0.738525
-2.73895,0.737
-2.73438,0.724792
-2.72675,0.740051
-2.72217,0.740051
-2.71454,0.738525
-2.70691,0.733948
-2.70081,0.724792
-2.69165,0.743103
-2.68402,0.740051
-2.67792,0.735474
-2.67334,0.737
-2.66724,0.723267
-2.66571,0.737
-2.66571,0.738525
-2.66113,0.737
-2.65808,0.735474
-2.65503,0.721741
-2.6535,0.740051
-2.6535,0.738525
-2.6535,0.737
-2.64893,0.733948
-2.65503,0.721741
-2.6535,0.733948
-2.65961,0.738525
-2.66571,0.737
-2.67029,0.733948
-2.67792,0.723267
-2.69012,0.733948
-2.69928,0.738525
-2.70538,0.733948
-2.71912,0.735474
-2.73438,0.720215
-2.74506,0.738525
-2.75421,0.737
-2.76642,0.737
-2.78015,0.735474
-2.79388,0.723267
-2.80914,0.733948
-2.8244,0.740051
-2.84119,0.735474
-2.85034,0.735474
-2.8717,0.721741
-2.89459,0.732422
-2.91138,0.738525
-2.93427,0.737
-2.95258,0.737
-2.97546,0.718689
-2.9953,0.727844
-3.01666,0.733948
-3.03802,0.737
-3.05328,0.733948
-3.07617,0.720215
-3.0899,0.735474
-3.10822,0.733948
-3.125,0.735474
-3.14636,0.733948
-3.1662,0.720215
-3.18604,0.735474
-3.20587,0.732422
-3.22418,0.735474
-3.24097,0.730896
-3.26233,0.717163
-3.28369,0.733948
-3.30353,0.730896
-3.32184,0.735474
-3.3493,0.726318
-3.37677,0.723267
-3.39508,0.737
-3.41644,0.733948
-3.43475,0.735474
-3.45001,0.727844
-3.46375,0.720215
-3.47748,0.733948
-3.49121,0.730896
-3.50189,0.732422
-3.51257,0.726318
-3.52173,0.723267
-3.5202,0.735474
-3.51563,0.730896
-3.51257,0.727844
-3.49884,0.726318
-3.48816,0.720215
-3.4668,0.733948
-3.44543,0.730896
-3.41492,0.730896
-3.37982,0.724792
-3.34473,0.720215
-3.30353,0.733948
-3.25623,0.730896
-3.20587,0.726318
-3.15247,0.721741
-3.10059,0.721741
-3.04565,0.730896
-2.99377,0.727844
-2.93427,0.727844
-2.88086,0.723267
-2.83051,0.720215
-2.7771,0.727844
-2.7298,0.726318
-2.67487,0.730896
-2.62451,0.720215
-2.57721,0.718689
-2.53296,0.732422
-2.49481,0.727844
-2.45972,0.726318
-2.4292,0.721741
-2.39868,0.717163
-2.36969,0.724792
-2.3468,0.726318
-2.32086,0.727844
-2.30255,0.721741
-2.28882,0.715637
-2.27509,0.730896
-2.26288,0.726318
-2.2583,0.726318
-2.2522,0.718689
-2.24915,0.721741
-2.24762,0.730896
-2.24457,0.727844
-2.24609,0.723267
-2.24915,0.718689
-2.25067,0.718689
-2.25372,0.726318
-2.26135,0.724792
-2.27051,0.724792
-2.27814,0.715637
-2.29187,0.718689
-2.30103,0.723267
-2.31781,0.726318
-2.33917,0.724792
-2.35291,0.718689
-2.37122,0.718689
-2.38953,0.726318
-2.40631,0.724792
-2.42157,0.723267
-2.43835,0.717163
-2.44904,0.718689
-2.46124,0.721741
-2.47345,0.726318
-2.48871,0.724792
-2.49481,0.715637
-2.50092,0.718689
-2.50549,0.720215
-2.51617,0.726318
-2.51312,0.721741
-2.5116,0.715637
-2.5116,0.717163
-2.50549,0.723267
-2.50549,0.723267
-2.49329,0.718689
-2.48871,0.714111
-2.48413,0.715637
-2.47498,0.721741
-2.46735,0.721741
-2.46429,0.721741
-2.45972,0.712585
-2.45209,0.715637
-2.44446,0.721741
-2.43835,0.720215
-2.43225,0.721741
-2.42767,0.709534
-2.4231,0.717163
-2.41394,0.718689
-2.41394,0.721741
-2.40936,0.720215
-2.40631,0.709534
-2.40173,0.712585
-2.40173,0.720215
-2.39868,0.721741
-2.40021,0.720215
-2.40021,0.712585
-2.40479,0.718689
-2.40479,0.717163
-2.41089,0.721741
-2.41699,0.724792
-2.41852,0.71106
-2.42462,0.715637
-2.42767,0.715637
-2.44293,0.720215
-2.44904,0.720215
-2.45972,0.708008
-2.46887,0.714111
-2.48108,0.717163
-2.49329,0.721741
-2.5116,0.720215
-2.52228,0.71106
-2.53296,0.714111
-2.54669,0.715637
-2.565,0.721741
-2.58331,0.723267
-2.59857,0.708008
-2.61688,0.71106
-2.63214,0.717163
-2.65198,0.720215
-2.66724,0.720215
-2.6886,0.708008
-2.70538,0.712585
-2.72675,0.712585
-2.74353,0.717163
-2.76489,0.718689
-2.77863,0.708008
-2.79388,0.712585
-2.80762,0.712585
-2.8244,0.718689
-2.83661,0.715637
-2.85187,0.709534
-2.86713,0.709534
-2.87781,0.712585
-2.89459,0.717163
-2.9068,0.715637
-2.92358,0.706482
-2.93884,0.712585
-2.948,0.712585
-2.96783,0.715637
-2.98004,0.718689
-2.99988,0.708008
-3.01514,0.71106
-3.03192,0.712585
-3.04413,0.715637
-3.05939,0.715637
-3.07617,0.708008
-3.0838,0.708008
-3.10059,0.712585
-3.11279,0.720215
-3.12347,0.714111
-3.13568,0.709534
-3.14484,0.709534
-3.14789,0.71106
-3.14941,0.715637
-3.14636,0.715637
-3.13568,0.71106
-3.12195,0.708008
-3.10669,0.709534
-3.08838,0.715637
-3.06854,0.715637
-3.03802,0.709534
-3.0014,0.709534
-2.96326,0.712585
-2.91901,0.714111
-2.87933,0.712585
-2.82898,0.708008
-2.78015,0.708008
-2.72522,0.709534
-2.67334,0.720215
-2.62146,0.714111
-2.565,0.706482
-2.50854,0.709534
-2.45819,0.709534
-2.41089,0.717163
-2.36206,0.717163
-2.31781,0.71106
-2.27356,0.708008
-2.23236,0.708008
-2.18964,0.715637
-2.15302,0.714111
-2.11487,0.709534
-2.08282,0.709534
-2.05383,0.70343
-2.03247,0.717163
-2.00806,0.712585
-1.98822,0.708008
-1.97449,0.706482
-1.95923,0.706482
-1.9455,0.71106
-1.93329,0.709534
-1.92413,0.706482
-1.92413,0.704956
-1.91803,0.706482
-1.91498,0.714111
-1.91193,0.712585
-1.91193,0.708008
-1.91345,0.708008
-1.9165,0.704956
-1.92413,0.712585
-1.93329,0.712585
-1.94702,0.706482
-1.96533,0.706482
-1.97449,0.70343
-1.9928,0.71106
-2.01263,0.709534
-2.03247,0.704956
-2.05231,0.706482
-2.06909,0.70343
-2.0874,0.712585
-2.10419,0.712585
-2.12097,0.708008
-2.13928,0.704956
-2.15302,0.704956
-2.16522,0.709534
-2.17438,0.714111
-2.18658,0.706482
-2.19421,0.706482
-2.2049,0.700378
-2.211,0.712585
-2.21863,0.71106
-2.22015,0.706482
-2.22015,0.71106
-2.21863,0.70343
-2.21863,0.71106
-2.21863,0.708008
-2.2171,0.708008
-2.21405,0.704956
-2.2049,0.700378
-2.19421,0.708008
-2.19269,0.715637
-2.18201,0.709534
-2.17743,0.706482
-2.1698,0.704956
-2.15912,0.71106
-2.14996,0.708008
-2.14386,0.709534
-2.13776,0.70343
-2.1286,0.700378
-2.12555,0.712585
-2.11945,0.709534
-2.11792,0.706482
-2.11639,0.704956
-2.11334,0.700378
-2.11334,0.717163
-2.11334,0.71106
-2.11182,0.706482
-2.11639,0.706482
-2.11334,0.701904
-2.1225,0.712585
-2.1225,0.704956
-2.1286,0.708008
-2.13623,0.704956
-2.13776,0.700378
-2.14691,0.71106
-2.14996,0.708008
-2.15912,0.706482
-2.17133,0.70343
-2.1759,0.701904
-2.18658,0.708008
-2.19574,0.706482
-2.20947,0.708008
-2.22168,0.704956
-2.23236,0.694275
-2.24457,0.712585
-2.25372,0.706482
-2.26746,0.704956
-2.27814,0.70343
-2.29492,0.698853
-2.31171,0.708008
-2.32391,0.71106
-2.33612,0.71106
-2.35138,0.701904
-2.36664,0.698853
-2.3819,0.706482
-2.39563,0.708008
-2.41394,0.706482
-2.42615,0.704956
-2.44293,0.698853
-2.45361,0.704956
-2.4704,0.708008
-2.49023,0.704956
-2.50397,0.704956
-2.51923,0.698853
-2.52838,0.709534
-2.54211,0.706482
-2.56042,0.704956
-2.57416,0.706482
-2.58942,0.701904
-2.60773,0.71106
-2.62299,0.708008
-2.63977,0.704956
-2.65656,0.704956
-2.67029,0.700378
-2.68707,0.712585
-2.69928,0.706482
-2.70996,0.706482
-2.72369,0.704956
-2.73743,0.701904
-2.74963,0.712585
-2.76337,0.706482
-2.78015,0.706482
-2.79388,0.708008
-2.80304,0.701904
-2.81219,0.706482
-2.81372,0.708008
-2.81372,0.706482
-2.81219,0.706482
-2.80304,0.700378
-2.79236,0.706482
-2.77252,0.709534
-2.74963,0.704956
-2.72675,0.706482
-2.69623,0.700378
-2.65961,0.708008
-2.61536,0.706482
-2.57721,0.706482
-2.53143,0.706482
-2.48566,0.695801
-2.4353,0.70343
-2.38647,0.706482
-2.33917,0.70343
-2.29034,0.704956
-2.24304,0.698853
-2.19727,0.70343
-2.14844,0.709534
-2.10724,0.706482
-2.06604,0.706482
-2.01874,0.70343
-1.97754,0.704956
-1.94092,0.708008
-1.89972,0.708008
-1.86462,0.704956
-1.83563,0.70343
-1.80359,0.704956
-1.77765,0.709534
-1.75018,0.704956
-1.73035,0.708008
-1.71509,0.700378
-1.70288,0.706482
-1.68915,0.709534
-1.67542,0.704956
-1.66321,0.70343
-1.66016,0.700378
-1.65863,0.71106
-1.6571,0.708008
-1.65863,0.701904
-1.66473,0.706482
-1.66931,0.700378
-1.67694,0.712585
-1.6861,0.709534
-1.6983,0.704956
-1.70593,0.701904
-1.71509,0.698853
-1.7334,0.709534
-1.74408,0.706482
-1.75934,0.708008
-1.77307,0.708008
-1.78986,0.698853
-1.80206,0.708008
-1.81427,0.708008
-1.83105,0.70343
-1.84631,0.704956
-1.86615,0.700378
-1.87836,0.709534
-1.89362,0.70343
-1.90277,0.701904
-1.9104,0.701904
-1.91803,0.701904
-1.92261,0.708008
-1.92719,0.706482
-1.93176,0.708008
-1.93481,0.701904
-1.93481,0.698853
-1.93787,0.708008
-1.93634,0.70343
-1.93634,0.706482
-1.93634,0.70343
-1.93481,0.700378
-1.93024,0.704956
-1.92413,0.706482
-1.91956,0.706482
-1.9104,0.701904
-1.90735,0.695801
-1.89819,0.70343
-1.89362,0.704956
-1.88141,0.70343
-1.88141,0.706482
-1.87836,0.700378
-1.87531,0.708008
-1.87378,0.70343
-1.87378,0.701904
-1.87225,0.70343
-1.87073,0.698853
-1.87378,0.704956
-1.87531,0.704956
-1.88141,0.70343
-1.88141,0.700378
-1.88446,0.700378
-1.88751,0.706482
-1.89362,0.706482
-1.89972,0.706482
-1.9043,0.70343
-1.91193,0.694275
-1.91803,0.704956
-1.92719,0.706482
-1.93634,0.706482
-1.94397,0.70343
-1.94855,0.698853
-1.96228,0.704956
-1.96838,0.70343
-1.98212,0.701904
-1.9928,0.700378
-2.00348,0.694275
-2.01416,0.708008
-2.02637,0.704956
-2.03857,0.704956
-2.05231,0.700378
-2.06451,0.698853
-2.07825,0.706482
-2.09351,0.704956
-2.10724,0.701904
-2.11945,0.70343
-2.1347,0.698853
-2.14539,0.704956
-2.15759,0.70343
-2.1759,0.70343
-2.19116,0.700378
-2.211,0.698853
-2.22626,0.70343
-2.24457,0.701904
-2.25983,0.706482
-2.27509,0.695801
-2.29187,0.695801
-2.31171,0.701904
-2.32544,0.700378
-2.34375,0.704956
-2.35443,0.698853
-2.36969,0.698853
-2.39105,0.704956
-2.40936,0.700378
-2.42462,0.701904
-2.44293,0.695801
-2.45514,0.695801
-2.47345,0.70343
-2.48871,0.700378
-2.50397,0.706482
-2.52228,0.692749
-2.53906,0.694275
-2.5589,0.701904
-2.57111,0.698853
-2.59247,0.701904
-2.61078,0.694275
-2.62604,0.694275
-2.63977,0.701904
-2.65045,0.700378
-2.65961,0.704956
-2.66571,0.694275
-2.66571,0.692749
-2.66266,0.70343
-2.65503,0.700378
-2.64587,0.706482
-2.62756,0.694275
-2.60315,0.692749
-2.58636,0.701904
-2.55585,0.700378
-2.5238,0.701904
-2.49176,0.695801
-2.45209,0.695801
-2.40936,0.70343
-2.36359,0.700378
-2.32086,0.701904
-2.27661,0.698853
-2.23236,0.692749
-2.18811,0.701904
-2.14233,0.700378
-2.10266,0.701904
-2.05383,0.691223
-2.01111,0.694275
-1.96991,0.701904
-1.93024,0.698853
-1.89056,0.704956
-1.85394,0.694275
-1.81427,0.694275
-1.78223,0.700378
-1.74713,0.700378
-1.71814,0.704956
-1.6922,0.691223
-1.66931,0.694275
-1.64948,0.698853
-1.63422,0.698853
-1.62354,0.704956
-1.6098,0.689697
-1.60217,0.691223
-1.59912,0.700378
-1.59607,0.701904
-1.5976,0.70343
-1.59607,0.689697
-1.60065,0.689697
-1.6037,0.698853
-1.60522,0.700378
-1.61438,0.701904
-1.62506,0.691223
-1.63269,0.688171
-1.64337,0.698853
-1.66016,0.701904
-1.67542,0.70343
-1.68762,0.691223
-1.70441,0.692749
-1.72272,0.698853
-1.74103,0.695801
-1.75934,0.701904
-1.7746,0.694275
-1.79138,0.688171
-1.80817,0.698853
-1.82495,0.694275
-1.84174,0.701904
-1.85547,0.691223
-1.8692,0.689697
-1.87378,0.698853
-1.88446,0.694275
-1.89667,0.701904
-1.90125,0.691223
-1.90582,0.691223
-1.90735,0.700378
-1.9104,0.695801
-1.90887,0.70343
-1.90887,0.688171
-1.90887,0.688171
-1.90582,0.698853
-1.9043,0.691223
-1.89972,0.700378
-1.89514,0.689697
-1.88599,0.689697
-1.87988,0.698853
-1.87073,0.695801
-1.8692,0.701904
-1.86005,0.68512
-1.85242,0.686646
-1.84937,0.698853
-1.84631,0.691223
-1.84479,0.701904
-1.84174,0.686646
-1.83868,0.688171
-1.84631,0.695801
-1.84174,0.692749
-1.84479,0.698853
-1.84937,0.686646
-1.85242,0.686646
-1.85547,0.698853
-1.86005,0.694275
-1.86768,0.694275
-1.87378,0.68512
-1.87836,0.691223
-1.88141,0.698853
-1.89056,0.694275
-1.89514,0.700378
-1.90582,0.686646
-1.91498,0.688171
-1.92413,0.695801
-1.93481,0.692749
-1.94092,0.695801
-1.9577,0.68512
-1.96991,0.68512
-1.97754,0.698853
-1.98822,0.692749
-2.00348,0.695801
-2.01416,0.689697
-2.02484,0.686646
-2.03552,0.695801
-2.04926,0.691223
-2.05994,0.698853
-2.07672,0.688171
-2.09045,0.683594
-2.10419,0.692749
-2.11945,0.694275
-2.13776,0.695801
-2.15149,0.688171
-2.16827,0.682068
-2.18353,0.691223
-2.19727,0.691223
-2.21558,0.694275
-2.22931,0.68512
-2.25067,0.686646
-2.26746,0.689697
-2.28577,0.692749
-2.29797,0.694275
-2.31781,0.683594
-2.33459,0.683594
-2.34985,0.698853
-2.36206,0.692749
-2.388,0.694275
-2.40326,0.688171
-2.42157,0.680542
-2.43988,0.689697
-2.45667,0.688171
-2.47498,0.695801
-2.49176,0.683594
-2.51312,0.68512
-2.53143,0.691223
-2.54974,0.689697
-2.56042,0.692749
-2.58026,0.683594
-2.58942,0.683594
-2.6062,0.688171
-2.62146,0.691223
-2.62909,0.692749
-2.63672,0.68512
-2.6413,0.683594
-2.64435,0.692749
-2.64435,0.688171
-2.63672,0.695801
-2.62451,0.683594
-2.6062,0.68512
-2.58942,0.688171
-2.56653,0.689697
-2.54669,0.689697
-2.52075,0.682068
-2.48718,0.682068
-2.45361,0.689697
-2.42004,0.688171
-2.37579,0.692749
-2.33307,0.680542
-2.28577,0.680542
-2.24152,0.689697
-2.19574,0.692749
-2.14691,0.688171
-2.09045,0.68512
-2.04468,0.67749
-1.99738,0.688171
-1.94702,0.691223
-1.90277,0.686646
-1.86005,0.680542
-1.82495,0.679016
-1.78223,0.689697
-1.74713,0.691223
-1.71509,0.686646
-1.68152,0.67749
-1.66016,0.682068
-1.63727,0.689697
-1.61743,0.689697
-1.59454,0.689697
-1.57318,0.682068
-1.5625,0.679016
-1.54877,0.688171
-1.53656,0.686646
-1.52893,0.68512
-1.5213,0.683594
-1.51215,0.679016
-1.5152,0.691223
-1.51062,0.689697
-1.5152,0.688171
-1.5152,0.682068
-1.51672,0.679016
-1.5213,0.686646
-1.52435,0.691223
-1.53198,0.68512
-1.53961,0.679016
-1.55182,0.682068
-1.56097,0.689697
-1.57471,0.689697
-1.58539,0.686646
-1.5976,0.679016
-1.61438,0.682068
-1.63116,0.686646
-1.6449,0.688171
-1.66168,0.682068
-1.67542,0.682068
-1.6861,0.682068
-1.69525,0.682068
-1.70898,0.689697
-1.71509,0.683594
-1.72272,0.675964
-1.72577,0.675964
-1.73035,0.68512
-1.7334,0.683594
-1.73492,0.682068
-1.7395,0.675964
-1.73645,0.679016
-1.73645,0.68512
-1.73035,0.68512
-1.72424,0.680542
-1.71814,0.680542
-1.71356,0.680542
-1.70593,0.68512
-1.69678,0.683594
-1.68762,0.680542
-1.67694,0.675964
-1.66931,0.67749
-1.66473,0.682068
-1.65253,0.683594
-1.64642,0.682068
-1.64337,0.67749
-1.63879,0.67749
-1.63269,0.683594
-1.62964,0.68512
-1.62354,0.682068
-1.62354,0.680542
-1.62354,0.680542
-1.62506,0.683594
-1.62659,0.683594
-1.62811,0.67749
-1.62964,0.67749
-1.63422,0.679016
-1.63727,0.683594
-1.64337,0.686646
-1.65558,0.67749
-1.66321,0.682068
-1.67389,0.680542
-1.68304,0.680542
-1.69373,0.683594
-1.70746,0.679016
-1.71661,0.67749
-1.72577,0.679016
-1.73645,0.680542
-1.74866,0.686646
-1.75629,0.675964
-1.76849,0.675964
-1.77612,0.680542
-1.79138,0.682068
-1.80511,0.683594
-1.81732,0.675964
-1.83411,0.675964
-1.85242,0.67749
-1.86615,0.67749
-1.87988,0.68512
-1.89667,0.675964
-1.91193,0.674438
-1.92719,0.679016
-1.94092,0.67749
-1.9577,0.686646
-1.97144,0.675964
-1.98517,0.674438
-2.00195,0.67749
-2.01416,0.682068
-2.02637,0.68512
-2.0401,0.675964
-2.04926,0.668335
-2.06757,0.67749
-2.07672,0.680542
-2.09351,0.683594
-2.10876,0.674438
-2.12555,0.671387
-2.14081,0.675964
-2.15149,0.680542
-2.1698,0.686646
-2.18658,0.674438
-2.20642,0.669861
-2.22168,0.675964
-2.23999,0.680542
-2.2583,0.683594
-2.27661,0.675964
-2.2934,0.675964
-2.31171,0.674438
-2.32544,0.67749
-2.34528,0.682068
-2.35748,0.672913
-2.37427,0.674438
-2.38037,0.671387
-2.388,0.682068
-2.38953,0.682068
-2.38495,0.674438
-2.3819,0.674438
-2.36664,0.674438
-2.35596,0.679016
-2.33917,0.683594
-2.31628,0.674438
-2.29492,0.674438
-2.26746,0.672913
-2.23694,0.675964
-2.19727,0.680542
-2.15759,0.67749
-2.11639,0.671387
-2.07672,0.672913
-2.02484,0.67749
-1.97906,0.682068
-1.93024,0.674438
-1.87836,0.669861
-1.83105,0.669861
-1.77917,0.67749
-1.72882,0.683594
-1.67542,0.672913
-1.62354,0.669861
-1.57623,0.671387
-1.53198,0.675964
-1.48773,0.68512
-1.44653,0.674438
-1.40533,0.668335
-1.37177,0.668335
-1.34583,0.679016
-1.31836,0.683594
-1.29089,0.672913
-1.26801,0.669861
-1.24817,0.669861
-1.22833,0.679016
-1.2146,0.68512
-1.2085,0.672913
-1.19629,0.669861
-1.19019,0.669861
-1.18103,0.67749
-1.17798,0.68512
-1.17798,0.669861
-1.17645,0.671387
-1.18103,0.671387
-1.18561,0.674438
-1.19019,0.683594
-1.19476,0.668335
-1.20544,0.672913
-1.21765,0.669861
-1.22375,0.674438
-1.22986,0.68512
-1.24512,0.671387
-1.25885,0.672913
-1.26495,0.669861
-1.27563,0.679016
-1.28326,0.682068
-1.29242,0.674438
-1.30157,0.671387
-1.31226,0.672913
-1.31989,0.672913
-1.32751,0.683594
-1.33667,0.671387
-1.34583,0.672913
-1.3504,0.672913
-1.35803,0.669861
-1.36108,0.68512
-1.36566,0.671387
-1.36871,0.671387
-1.37177,0.665283
-1.37482,0.674438
-1.37787,0.682068
-1.37482,0.671387
-1.37787,0.671387
-1.37482,0.669861
-1.37024,0.674438
-1.37177,0.686646
-1.36566,0.669861
-1.36414,0.669861
-1.36108,0.668335
-1.35803,0.672913
-1.35803,0.682068
-1.35345,0.668335
-1.3504,0.668335
-1.34888,0.668335
-1.34583,0.672913
-1.33972,0.679016
-1.3443,0.668335
-1.34277,0.666809
-1.34735,0.668335
-1.34735,0.671387
-1.34735,0.680542
-1.34735,0.666809
-1.34888,0.669861
-1.35345,0.671387
-1.35956,0.674438
-1.36719,0.680542
-1.37482,0.666809
-1.3916,0.669861
-1.40076,0.665283
-1.41602,0.674438
-1.4267,0.683594
-1.4389,0.669861
-1.45264,0.671387
-1.46484,0.666809
-1.48163,0.674438
-1.49384,0.675964
-1.50757,0.671387
-1.51978,0.669861
-1.53351,0.668335
-1.55029,0.669861
-1.5625,0.679016
-1.57623,0.671387
-1.59302,0.669861
-1.60675,0.666809
-1.62659,0.675964
-1.6449,0.679016
-1.66473,0.671387
-1.67847,0.669861
-1.69678,0.668335
-1.71356,0.672913
-1.73187,0.67749
-1.75171,0.669861
-1.77002,0.668335
-1.78986,0.668335
-1.80817,0.672913
-1.828,0.679016
-1.84631,0.671387
-1.86615,0.666809
-1.87836,0.662231
-1.89667,0.672913
-1.91345,0.67749
-1.93481,0.669861
-1.95007,0.671387
-1.96686,0.666809
-1.98212,0.672913
-2.00043,0.680542
-2.01569,0.671387
-2.03247,0.671387
-2.04926,0.669861
-2.06909,0.671387
-2.0874,0.675964
-2.10571,0.668335
-2.1225,0.668335
-2.13928,0.669861
-2.15454,0.672913
-2.17285,0.679016
-2.18811,0.671387
-2.20184,0.671387
-2.2171,0.666809
-2.23083,0.674438
-2.24457,0.679016
-2.24762,0.669861
-2.25067,0.668335
-2.24762,0.665283
-2.24304,0.675964
-2.23694,0.679016
-2.22015,0.666809
-2.20337,0.666809
-2.18048,0.668335
-2.15149,0.674438
-2.11792,0.679016
-2.08435,0.665283
-2.04315,0.669861
-2.00043,0.669861
-1.95007,0.67749
-1.90125,0.675964
-1.85089,0.668335
-1.79901,0.666809
-1.75018,0.660706
-1.70135,0.675964
-1.65405,0.672913
-1.60217,0.669861
-1.55334,0.669861
-1.50757,0.668335
-1.46179,0.679016
-1.41602,0.674438
-1.37329,0.666809
-1.33362,0.666809
-1.3031,0.666809
-1.26648,0.675964
-1.24054,0.674438
-1.2146,0.669861
-1.18866,0.668335
-1.17188,0.665283
-1.15509,0.679016
-1.14136,0.672913
-1.12762,0.668335
-1.12,0.669861
-1.11847,0.666809
-1.11542,0.675964
-1.11542,0.674438
-1.11847,0.668335
-1.12152,0.665283
-1.12762,0.665283
-1.1322,0.67749
-1.14136,0.672913
-1.15204,0.666809
-1.1673,0.668335
-1.17645,0.666809
-1.19171,0.675964
-1.2085,0.674438
-1.22375,0.666809
-1.24054,0.669861
-1.25732,0.665283
-1.27411,0.675964
-1.29242,0.671387
-1.30463,0.668335
-1.32141,0.668335
-1.33362,0.669861
-1.35193,0.675964
-1.36108,0.672913
-1.37787,0.669861
-1.3855,0.666809
-1.39923,0.665283
-1.40839,0.674438
-1.41754,0.672913
-1.42212,0.669861
-1.42517,0.668335
-1.43127,0.666809
-1.43433,0.67749
-1.43738,0.671387
-1.4389,0.668335
-1.44043,0.668335
-1.44806,0.665283
-1.44958,0.67749
-1.44806,0.674438
-1.44806,0.668335
-1.44958,0.668335
-1.44653,0.665283
-1.4389,0.680542
-1.44043,0.672913
-1.44196,0.666809
-1.44196,0.668335
-1.4389,0.662231
-1.43433,0.675964
-1.4328,0.671387
-1.43433,0.672913
-1.43127,0.668335
-1.4328,0.665283
-1.43585,0.679016
-1.44196,0.672913
-1.44958,0.672913
-1.45264,0.665283
-1.46027,0.665283
-1.46484,0.679016
-1.47247,0.674438
-1.48315,0.668335
-1.49231,0.665283
-1.50146,0.666809
-1.5152,0.679016
-1.52283,0.674438
-1.53503,0.669861
-1.54572,0.665283
-1.55945,0.668335
-1.57013,0.675964
-1.58386,0.674438
-1.59912,0.669861
-1.61438,0.665283
-1.62964,0.666809
-1.64948,0.679016
-1.66473,0.672913
-1.6861,0.669861
-1.6983,0.665283
-1.72119,0.666809
-1.74103,0.67749
-1.75934,0.672913
-1.77917,0.668335
-1.79596,0.665283
-1.80969,0.668335
-1.82495,0.67749
-1.84174,0.668335
-1.8631,0.669861
-1.87988,0.668335
-1.89667,0.671387
-1.90887,0.67749
-1.92413,0.671387
-1.94092,0.669861
-1.95465,0.666809
-1.97449,0.669861
-1.98975,0.679016
-2.00653,0.675964
-2.02637,0.669861
-2.04315,0.666809
-2.05841,0.666809
-2.07977,0.675964
-2.09656,0.666809
-2.11639,0.669861
-2.13776,0.665283
-2.15302,0.660706
-2.17133,0.67749
-2.18964,0.669861
-2.20642,0.666809
-2.22015,0.668335
-2.23694,0.668335
-2.24915,0.674438
-2.26288,0.669861
-2.27966,0.671387
-2.30103,0.666809
-2.31628,0.665283
-2.33917,0.675964
-2.35596,0.672913
-2.37427,0.668335
-2.388,0.666809
-2.40479,0.662231
-2.41547,0.672913
-2.4231,0.672913
-2.4231,0.671387
-2.41699,0.662231
-2.40936,0.660706
-2.3941,0.669861
-2.37732,0.669861
-2.35291,0.669861
-2.32697,0.665283
-2.29797,0.666809
-2.2644,0.671387
-2.22321,0.671387
-2.18658,0.669861
-2.14691,0.65918
-2.10114,0.665283
-2.05231,0.675964
-2.00348,0.669861
-1.95313,0.671387
-1.90277,0.665283
-1.85242,0.665283
-1.80206,0.671387
-1.74866,0.669861
-1.70135,0.668335
-1.65558,0.665283
-1.61285,0.666809
-1.57166,0.672913
-1.53046,0.671387
-1.49078,0.671387
-1.45721,0.662231
-1.42365,0.666809
-1.39618,0.671387
-1.36414,0.669861
-1.3443,0.669861
-1.31989,0.666809
-1.30157,0.668335
-1.28784,0.669861
-1.27716,0.668335
-1.26801,0.668335
-1.26038,0.662231
-1.2558,0.662231
-1.2558,0.671387
-1.25885,0.671387
-1.25885,0.669861
-1.26495,0.665283
-1.27716,0.662231
-1.28174,0.669861
-1.29395,0.671387
-1.3031,0.669861
-1.31531,0.662231
-1.33209,0.665283
-1.34735,0.671387
-1.36261,0.665283
-1.37939,0.665283
-1.39771,0.665283
-1.41907,0.665283
-1.43433,0.669861
-1.45264,0.669861
-1.47095,0.669861
-1.48926,0.660706
-1.50604,0.665283
-1.51978,0.666809
-1.53503,0.668335
-1.55792,0.668335
-1.5686,0.662231
-1.58691,0.662231
-1.5976,0.668335
-1.60675,0.671387
-1.61285,0.669861
-1.61896,0.660706
-1.62506,0.65918
-1.63116,0.669861
-1.63422,0.668335
-1.63422,0.665283
-1.63574,0.666809
-1.63727,0.662231
-1.63727,0.671387
-1.63727,0.669861
-1.63422,0.669861
-1.63116,0.660706
-1.62964,0.662231
-1.62811,0.668335
-1.62201,0.666809
-1.61896,0.672913
-1.61438,0.660706
-1.61438,0.660706
-1.61133,0.668335
-1.6098,0.669861
-1.61133,0.671387
-1.6098,0.665283
-1.60522,0.65918
-1.6098,0.662231
-1.60828,0.669861
-1.61438,0.669861
-1.62201,0.657654
-1.62964,0.660706
-1.64032,0.669861
-1.65405,0.666809
-1.66321,0.674438
-1.67236,0.662231
-1.68915,0.662231
-1.70135,0.668335
-1.71509,0.666809
-1.73187,0.671387
-1.74408,0.65918
-1.76392,0.660706
-1.7807,0.665283
-1.79901,0.669861
-1.8158,0.671387
-1.83411,0.662231
-1.84937,0.65918
-1.86768,0.666809
-1.88293,0.666809
-1.89972,0.669861
-1.91803,0.65918
-1.93481,0.65918
-1.9516,0.662231
-1.97144,0.668335
-1.98975,0.671387
-2.01416,0.660706
-2.03094,0.65918
-2.05078,0.668335
-2.07214,0.666809
-2.09198,0.668335
-2.11182,0.660706
-2.1286,0.65918
-2.14996,0.666809
-2.17285,0.660706
-2.18811,0.669861
-2.20947,0.660706
-2.22473,0.660706
-2.24152,0.662231
-2.25983,0.666809
-2.27509,0.668335
-2.2934,0.65918
-2.30865,0.656128
-2.32239,0.662231
-2.33917,0.662231
-2.35596,0.665283
-2.37427,0.660706
-2.39258,0.65918
-2.40479,0.662231
-2.42615,0.662231
-2.44446,0.666809
-2.45972,0.65918
-2.47345,0.657654
-2.48871,0.662231
-2.50092,0.660706
-2.52075,0.662231
-2.53601,0.65918
-2.55432,0.656128
-2.57111,0.662231
-2.59399,0.665283
-2.61688,0.665283
-2.63062,0.654602
-2.64893,0.654602
-2.66266,0.65918
-2.67334,0.660706
-2.68097,0.665283
-2.69165,0.653076
-2.69928,0.656128
-2.70386,0.662231
-2.70081,0.662231
-2.69623,0.662231
-2.69165,0.656128
-2.67639,0.656128
-2.66571,0.65918
-2.64587,0.662231
-2.62146,0.662231
-2.59399,0.656128
-2.55737,0.654602
-2.52228,0.662231
-2.48108,0.662231
-2.43835,0.666809
-2.39105,0.656128
-2.3468,0.657654
-2.2995,0.665283
-2.25067,0.660706
-2.19269,0.666809
-2.14233,0.660706
-2.09045,0.656128
-2.03857,0.662231
-1.98364,0.662231
-1.93787,0.665283
-1.89056,0.662231
-1.84631,0.656128
-1.80359,0.660706
-1.75934,0.660706
-1.72119,0.662231
-1.68304,0.662231
-1.65405,0.653076
-1.62201,0.65918
-1.6037,0.65918
-1.57928,0.660706
-1.55945,0.660706
-1.53656,0.654602
-1.52435,0.65918
-1.5152,0.660706
-1.50757,0.662231
-1.50452,0.660706
-1.50146,0.653076
-1.49841,0.657654
-1.49384,0.65918
-1.49994,0.657654
-1.50299,0.65918
-1.50909,0.654602
-1.5213,0.660706
-1.52588,0.662231
-1.54114,0.662231
-1.55487,0.65918
-1.56708,0.654602
-1.58081,0.657654
-1.59607,0.65918
-1.61743,0.660706
-1.62964,0.657654
-1.64795,0.654602
-1.66626,0.65918
-1.67999,0.656128
-1.6983,0.660706
-1.71204,0.657654
-1.72729,0.656128
-1.74255,0.657654
-1.75476,0.656128
-1.76697,0.65918
-1.77917,0.656128
-1.7868,0.654602
-1.79901,0.656128
-1.81122,0.656128
-1.81732,0.65918
-1.82648,0.654602
-1.828,0.653076
-1.83716,0.656128
-1.84021,0.654602
-1.83868,0.662231
-1.84326,0.653076
-1.84326,0.654602
-1.83411,0.657654
-1.83105,0.653076
-1.82648,0.65918
-1.8219,0.653076
-1.81885,0.65155
-1.8158,0.656128
-1.80969,0.65155
-1.80817,0.65918
-1.80969,0.65155
-1.80969,0.654602
-1.80817,0.654602
-1.80969,0.657654
-1.80511,0.65918
-1.80664,0.648499
-1.80817,0.653076
-1.81274,0.653076
-1.8158,0.656128
-1.81885,0.65918
-1.8219,0.65155
-1.82953,0.65155
-1.83411,0.654602
-1.84174,0.654602
-1.85394,0.65918
-1.8692,0.653076
-1.87988,0.653076
-1.89667,0.656128
-1.9104,0.656128
-1.92413,0.65918
-1.94092,0.65155
-1.95465,0.653076
-1.97296,0.656128
-1.99127,0.657654
-2.005,0.657654
-2.02179,0.656128
-2.03705,0.653076
-2.05078,0.654602
-2.06604,0.656128
-2.07977,0.65918
-2.09656,0.654602
-2.11334,0.654602
-2.12708,0.654602
-2.14386,0.65918
-2.16064,0.657654
-2.17438,0.65155
-2.19116,0.65155
-2.20642,0.657654
-2.22321,0.654602
-2.24152,0.657654
-2.25677,0.654602
-2.27051,0.65155
-2.29187,0.653076
-2.31171,0.65155
-2.32849,0.657654
-2.34985,0.653076
-2.36359,0.653076
-2.38037,0.653076
-2.39716,0.656128
-2.41547,0.657654
-2.42767,0.654602
-2.44751,0.653076
-2.45972,0.65155
-2.4704,0.65155
-2.49023,0.656128
-2.50244,0.650024
-2.51923,0.65155
-2.53448,0.656128
-2.54822,0.654602
-2.565,0.654602
-2.58331,0.650024
-2.59399,0.650024
-2.60925,0.653076
-2.62299,0.653076
-2.6413,0.65918
-2.65961,0.65155
-2.67792,0.648499
-2.6947,0.650024
-2.71301,0.654602
-2.7298,0.656128
-2.74506,0.650024
-2.76184,0.650024
-2.77405,0.654602
-2.79236,0.654602
-2.80457,0.657654
-2.82135,0.650024
-2.83356,0.650024
-2.84119,0.648499
-2.84882,0.653076
-2.84729,0.653076
-2.85645,0.650024
-2.8595,0.650024
-2.85187,0.653076
-2.84119,0.653076
-2.82898,0.654602
-2.80762,0.646973
-2.7832,0.648499
-2.75421,0.650024
-2.71454,0.65155
-2.67792,0.656128
-2.63672,0.650024
-2.59552,0.650024
-2.54669,0.648499
-2.49786,0.654602
-2.44598,0.656128
-2.3941,0.648499
-2.34222,0.645447
-2.28882,0.648499
-2.23999,0.653076
-2.18506,0.654602
-2.13318,0.650024
-2.08282,0.646973
-2.034,0.648499
-1.98669,0.654602
-1.94397,0.654602
-1.89972,0.650024
-1.85852,0.645447
-1.8158,0.650024
-1.77917,0.656128
-1.74561,0.654602
-1.71814,0.650024
-1.69373,0.646973
-1.67542,0.648499
-1.65558,0.656128
-1.6449,0.654602
-1.62964,0.648499
-1.62048,0.646973
-1.61743,0.645447
-1.61438,0.654602
-1.61438,0.653076
-1.61285,0.648499
-1.61743,0.650024
-1.62506,0.645447
-1.63269,0.653076
-1.64032,0.653076
-1.65253,0.645447
-1.66626,0.646973
-1.68152,0.648499
-1.70288,0.657654
-1.72119,0.65155
-1.7395,0.648499
-1.75934,0.645447
-1.7746,0.646973
-1.79749,0.654602
-1.81427,0.650024
-1.83258,0.646973
-1.85394,0.642395
-1.87378,0.65155
-1.89056,0.653076
-1.90887,0.653076
-1.92413,0.646973
-1.94244,0.646973
-1.9516,0.643921
-1.96686,0.65155
-1.97144,0.650024
-1.98212,0.646973
-1.98517,0.648499
-1.98975,0.643921
-1.98822,0.65155
-1.98669,0.650024
-1.98822,0.648499
-1.98822,0.646973
-1.98364,0.646973
-1.98517,0.654602
-1.98364,0.65155
-1.98364,0.648499
-1.98059,0.646973
-1.97449,0.646973
-1.96991,0.653076
-1.96381,0.650024
-1.9577,0.646973
-1.9516,0.645447
-1.9455,0.643921
-1.94092,0.65155
-1.93634,0.653076
-1.92871,0.646973
-1.92261,0.643921
-1.92261,0.643921
-1.91803,0.654602
-1.9165,0.65155
-1.92108,0.646973
-1.92719,0.645447
-1.92719,0.646973
-1.93329,0.654602
-1.93939,0.650024
-1.94092,0.646973
-1.95007,0.645447
-1.95313,0.645447
-1.96533,0.653076
-1.97144,0.648499
-1.97754,0.646973
-1.99127,0.645447
-2.005,0.642395
-2.01874,0.653076
-2.03094,0.650024
-2.04773,0.646973
-2.06146,0.645447
-2.07672,0.646973
-2.09045,0.653076
-2.11029,0.648499
-2.12555,0.645447
-2.14233,0.643921
-2.16064,0.643921
-2.17896,0.65155
-2.19269,0.646973
-2.20947,0.646973
-2.22626,0.645447
-2.24304,0.645447
-2.26288,0.65155
-2.27966,0.650024
-2.29797,0.643921
-2.31781,0.646973
-2.33307,0.646973
-2.35748,0.653076
-2.37579,0.653076
-2.38953,0.643921
-2.40936,0.650024
-2.42615,0.648499
-2.44598,0.653076
-2.46277,0.65155
-2.4826,0.645447
-2.49939,0.646973
-2.51617,0.642395
-2.52991,0.648499
-2.55127,0.653076
-2.56348,0.645447
-2.58484,0.645447
-2.6001,0.642395
-2.61841,0.653076
-2.63672,0.650024
-2.65045,0.645447
-2.66724,0.646973
-2.68097,0.640869
-2.70386,0.653076
-2.72369,0.648499
-2.7359,0.642395
-2.75421,0.646973
-2.76947,0.643921
-2.79236,0.65155
-2.80457,0.648499
-2.82135,0.642395
-2.83356,0.648499
-2.84424,0.645447
-2.85645,0.648499
-2.8656,0.648499
-2.87628,0.645447
-2.89307,0.643921
-2.90375,0.643921
-2.92358,0.653076
-2.93121,0.648499
-2.94189,0.642395
-2.948,0.643921
-2.95258,0.643921
-2.9541,0.65155
-2.95258,0.650024
-2.948,0.643921
-2.94037,0.643921
-2.92053,0.645447
-2.90375,0.650024
-2.87781,0.645447
-2.84729,0.637817
-2.81219,0.643921
-2.77405,0.645447
-2.73132,0.653076
-2.68707,0.650024
-2.63519,0.639343
-2.58636,0.643921
-2.52838,0.645447
-2.46735,0.650024
-2.40936,0.65155
-2.34375,0.639343
-2.28271,0.642395
-2.22015,0.642395
-2.15912,0.650024
-2.09503,0.646973
-2.03552,0.643921
-1.97754,0.642395
-1.91956,0.642395
-1.86768,0.653076
-1.81427,0.648499
-1.76239,0.640869
-1.71509,0.643921
-1.67084,0.645447
-1.63422,0.650024
-1.6037,0.65155
-1.57471,0.643921
-1.54877,0.643921
-1.5274,0.642395
-1.51062,0.650024
-1.49384,0.650024
-1.48315,0.642395
-1.47705,0.645447
-1.46637,0.643921
-1.46484,0.65155
-1.46179,0.65155
-1.46027,0.642395
-1.46332,0.645447
-1.4679,0.645447
-1.47095,0.648499
-1.48163,0.650024
-1.48926,0.643921
-1.50146,0.646973
-1.51215,0.646973
-1.53046,0.65155
-1.54877,0.650024
-1.57013,0.643921
-1.59149,0.640869
-1.6098,0.642395
-1.63116,0.650024
-1.64795,0.648499
-1.66168,0.642395
-1.68152,0.642395
-1.69983,0.643921
-1.71356,0.648499
-1.72424,0.650024
-1.73187,0.639343
-1.7395,0.640869
-1.74866,0.642395
-1.75629,0.650024
-1.76086,0.648499
-1.76697,0.642395
-1.76849,0.643921
-1.76697,0.643921
-1.76849,0.648499
-1.76544,0.650024
-1.76239,0.642395
-1.75781,0.640869
-1.75476,0.642395
-1.75018,0.648499
-1.74408,0.650024
-1.74255,0.640869
-1.73492,0.642395
-1.72424,0.639343
-1.71509,0.648499
-1.70593,0.65155
-1.70135,0.642395
-1.6922,0.642395
-1.68304,0.639343
-1.67847,0.646973
-1.67847,0.650024
-1.67084,0.640869
-1.67236,0.640869
-1.67236,0.639343
-1.67236,0.646973
-1.67694,0.645447
-1.68152,0.642395
-1.68762,0.640869
-1.69983,0.639343
-1.70746,0.648499
-1.71509,0.648499
-1.72729,0.643921
-1.73645,0.640869
-1.74713,0.642395
-1.75781,0.648499
-1.77002,0.650024
-1.78223,0.643921
-1.80359,0.636292
-1.8158,0.642395
-1.83258,0.645447
-1.84784,0.646973
-1.86768,0.642395
-1.88599,0.637817
-1.90125,0.642395
-1.91803,0.646973
-1.93939,0.646973
-1.95313,0.640869
-1.97144,0.639343
-1.98975,0.643921
-2.00348,0.648499
-2.02026,0.648499
-2.03857,0.643921
-2.05841,0.640869
-2.0752,0.640869
-2.09198,0.648499
-2.11182,0.645447
-2.13318,0.640869
-2.14996,0.640869
-2.1637,0.643921
-2.18506,0.645447
-2.20184,0.648499
-2.22321,0.643921
-2.24304,0.637817
-2.26288,0.643921
-2.28271,0.650024
-2.3056,0.648499
-2.32086,0.642395
-2.34222,0.637817
-2.35596,0.645447
-2.37427,0.646973
-2.39716,0.645447
-2.41394,0.637817
-2.43073,0.637817
-2.45209,0.643921
-2.47345,0.646973
-2.49023,0.645447
-2.50092,0.642395
-2.5177,0.634766
-2.53754,0.645447
-2.55432,0.648499
-2.565,0.643921
-2.58331,0.645447
-2.59857,0.639343
-2.6062,0.642395
-2.62146,0.646973
-2.63519,0.640869
-2.65045,0.643921
-2.66418,0.634766
-2.67944,0.642395
-2.69623,0.648499
-2.70691,0.642395
-2.72217,0.642395
-2.73438,0.637817
-2.74658,0.642395
-2.76184,0.646973
-2.77405,0.642395
-2.78931,0.640869
-2.79999,0.636292
-2.81219,0.642395
-2.8244,0.648499
-2.83203,0.645447
-2.83508,0.640869
-2.83356,0.636292
-2.83203,0.645447
-2.82593,0.645447
-2.81067,0.642395
-2.79236,0.637817
-2.76642,0.637817
-2.73438,0.637817
-2.70233,0.643921
-2.65961,0.640869
-2.6123,0.640869
-2.5589,0.63324
-2.50549,0.639343
-2.44598,0.646973
-2.38647,0.640869
-2.31781,0.640869
-2.2522,0.631714
-2.18506,0.643921
-2.11792,0.643921
-2.04926,0.640869
-1.97906,0.639343
-1.91193,0.63324
-1.84479,0.642395
-1.7807,0.645447
-1.71509,0.640869
-1.6571,0.637817
-1.60217,0.634766
-1.55334,0.643921
-1.49994,0.643921
-1.45569,0.640869
-1.41754,0.637817
-1.37787,0.63324
-1.3443,0.645447
-1.31683,0.643921
-1.297,0.640869
-1.27716,0.639343
-1.2619,0.634766
-1.25122,0.643921
-1.24207,0.645447
-1.23444,0.640869
-1.23444,0.639343
-1.23444,0.639343
-1.23291,0.643921
-1.23596,0.646973
-1.24054,0.643921
-1.24817,0.640869
-1.26038,0.636292
-1.27411,0.646973
-1.28632,0.648499
-1.3092,0.642395
-1.32294,0.640869
-1.3382,0.63324
-1.35803,0.645447
-1.38092,0.648499
-1.39465,0.639343
-1.41449,0.642395
-1.42975,0.634766
-1.44806,0.645447
-1.46332,0.646973
-1.48163,0.639343
-1.49841,0.640869
-1.50604,0.63324
-1.52435,0.645447
-1.53503,0.646973
-1.54572,0.639343
-1.56097,0.640869
-1.57013,0.634766
-1.57928,0.642395
-1.58386,0.646973
-1.58691,0.640869
-1.58844,0.640869
-1.58844,0.63324
-1.59149,0.645447
-1.58539,0.643921
-1.58081,0.639343
-1.58081,0.637817
-1.57471,0.628662
-1.5686,0.643921
-1.56097,0.643921
-1.55334,0.642395
-1.54419,0.636292
-1.53961,0.63324
-1.53351,0.643921
-1.52588,0.643921
-1.51672,0.643921
-1.5152,0.637817
-1.5152,0.63324
-1.51978,0.643921
-1.51825,0.643921
-1.51825,0.642395
-1.5213,0.636292
-1.52435,0.631714
-1.52588,0.643921
-1.53046,0.642395
-1.53809,0.642395
-1.54419,0.636292
-1.55487,0.627136
-1.56555,0.642395
-1.57928,0.648499
-1.59607,0.640869
-1.61285,0.637817
-1.63116,0.63324
-1.6449,0.640869
-1.66168,0.645447
-1.67542,0.640869
-1.69525,0.639343
-1.71356,0.631714
-1.7334,0.645447
-1.75018,0.642395
-1.76849,0.643921
-1.78528,0.640869
-1.80817,0.631714
-1.828,0.642395
-1.85089,0.645447
-1.87073,0.642395
-1.89056,0.639343
-1.91193,0.628662
-1.93329,0.640869
-1.95313,0.643921
-1.97601,0.642395
-1.9989,0.640869
-2.01874,0.627136
-2.04315,0.639343
-2.06604,0.643921
-2.08893,0.640869
-2.11029,0.642395
-2.13623,0.62561
-2.15454,0.640869
-2.18048,0.640869
-2.19879,0.642395
-2.22321,0.639343
-2.24457,0.627136
-2.26593,0.642395
-2.28424,0.642395
-2.31018,0.642395
-2.32697,0.639343
-2.35138,0.628662
-2.37122,0.640869
-2.38647,0.639343
-2.40479,0.639343
-2.4292,0.637817
-2.44446,0.627136
-2.46277,0.643921
-2.4826,0.640869
-2.49634,0.642395
-2.5116,0.639343
-2.52533,0.628662
-2.53754,0.642395
-2.5528,0.642395
-2.565,0.640869
-2.57416,0.642395
-2.59247,0.627136
-2.60315,0.643921
-2.61993,0.642395
-2.63062,0.642395
-2.64587,0.639343
-2.65808,0.627136
-2.67792,0.642395
-2.69775,0.640869
-2.71149,0.642395
-2.72827,0.642395
-2.74811,0.62561
-2.76184,0.640869
-2.77557,0.642395
-2.79694,0.642395
-2.81067,0.637817
-2.82898,0.627136
-2.84271,0.639343
-2.85645,0.642395
-2.8656,0.640869
-2.8717,0.639343
-2.87323,0.62561
-2.87476,0.640869
-2.86865,0.640869
-2.85645,0.639343
-2.84271,0.636292
-2.8183,0.624084
-2.79236,0.634766
-2.75574,0.637817
-2.71149,0.639343
-2.67181,0.634766
-2.62299,0.627136
-2.56958,0.637817
-2.51617,0.639343
-2.45667,0.639343
-2.3941,0.636292
-2.33002,0.62561
-2.2644,0.636292
-2.19879,0.637817
-2.12708,0.637817
-2.05994,0.637817
-1.9989,0.627136
-1.93176,0.636292
-1.87378,0.639343
-1.8158,0.639343
-1.75934,0.637817
-1.70898,0.628662
-1.65558,0.636292
-1.61743,0.640869
-1.57166,0.639343
-1.53046,0.636292
-1.50452,0.62561
-1.47095,0.637817
-1.45111,0.639343
-1.42517,0.637817
-1.41144,0.636292
-1.40228,0.627136
-1.39465,0.639343
-1.3916,0.640869
-1.3916,0.636292
-1.3916,0.637817
-1.39618,0.624084
-1.40381,0.637817
-1.41602,0.637817
-1.4267,0.634766
-1.44653,0.636292
-1.46637,0.627136
-1.48468,0.636292
-1.50604,0.639343
-1.5274,0.639343
-1.55487,0.634766
-1.57623,0.62561
-1.60065,0.639343
-1.62354,0.639343
-1.6449,0.637817
-1.66779,0.634766
-1.69373,0.627136
-1.71814,0.636292
-1.74255,0.634766
-1.76239,0.634766
-1.7807,0.634766
-1.80511,0.62561
-1.82495,0.636292
-1.84021,0.636292
-1.85547,0.634766
-1.87531,0.634766
-1.88293,0.62561
-1.89362,0.639343
-1.90277,0.637817
-1.90582,0.636292
-1.91193,0.631714
-1.91193,0.627136
-1.90582,0.637817
-1.90582,0.63324
-1.89667,0.637817
-1.89819,0.63324
-1.89667,0.624084
-1.88751,0.636292
-1.88446,0.634766
-1.87836,0.63324
-1.87073,0.628662
-1.8631,0.624084
-1.85547,0.636292
-1.84937,0.634766
-1.84174,0.636292
-1.84021,0.628662
-1.84174,0.627136
-1.83563,0.636292
-1.828,0.637817
-1.83105,0.634766
-1.83105,0.627136
-1.83563,0.628662
-1.83563,0.639343
-1.83716,0.634766
-1.83868,0.631714
-1.84479,0.631714
-1.85394,0.622559
-1.86005,0.636292
-1.87225,0.637817
-1.88293,0.636292
-1.89667,0.627136
-1.9043,0.62561
-1.91803,0.634766
-1.93787,0.63324
-1.96228,0.636292
-1.97754,0.627136
-2.00195,0.624084
-2.01874,0.634766
-2.04163,0.63324
-2.06451,0.634766
-2.08282,0.627136
-2.10266,0.627136
-2.12097,0.637817
-2.13928,0.634766
-2.15759,0.636292
-2.17438,0.624084
-2.19574,0.62561
-2.21405,0.634766
-2.23694,0.63324
-2.26135,0.634766
-2.28271,0.628662
-2.30255,0.62561
-2.32086,0.63324
-2.34375,0.63324
-2.36206,0.634766
-2.3819,0.621033
-2.40173,0.624084
-2.42004,0.63324
-2.43835,0.634766
-2.45667,0.63324
-2.47498,0.624084
-2.49176,0.627136
-2.51312,0.631714
-2.52991,0.636292
-2.54364,0.634766
-2.56042,0.622559
-2.58026,0.62561
-2.59705,0.628662
-2.61688,0.634766
-2.63062,0.631714
-2.65198,0.624084
-2.66724,0.62561
-2.68555,0.63324
-2.70691,0.63324
-2.72369,0.627136
-2.74048,0.619507
-2.76184,0.631714
-2.77557,0.63324
-2.79541,0.63324
-2.81372,0.631714
-2.82898,0.624084
-2.84576,0.62561
-2.86407,0.627136
-2.88239,0.628662
-2.9007,0.634766
-2.91443,0.621033
-2.93427,0.624084
-2.95105,0.628662
-2.96478,0.63324
-2.98309,0.63324
-3.0014,0.621033
-3.02124,0.62561
-3.03955,0.627136
-3.05786,0.627136
-3.07159,0.636292
-3.0838,0.622559
-3.09601,0.622559
-3.11279,0.63324
-3.1189,0.627136
-3.12347,0.63324
-3.12805,0.621033
-3.12805,0.624084
-3.12195,0.627136
-3.10974,0.63324
-3.09601,0.636292
-3.07465,0.619507
-3.04718,0.628662
-3.01208,0.627136
-2.97394,0.631714
-2.93427,0.63324
-2.88391,0.622559
-2.83051,0.62561
-2.7771,0.628662
-2.72369,0.63324
-2.66418,0.634766
-2.60315,0.621033
-2.53906,0.624084
-2.4704,0.628662
-2.40173,0.631714
-2.3407,0.631714
-2.27509,0.619507
-2.211,0.622559
-2.14844,0.627136
-2.0874,0.631714
-2.03094,0.628662
-1.98364,0.617981
-1.93939,0.62561
-1.89362,0.624084
-1.85547,0.634766
-1.82495,0.63324
-1.79291,0.619507
-1.77002,0.628662
-1.74866,0.628662
-1.72882,0.63324
-1.71356,0.631714
-1.70135,0.622559
-1.69373,0.627136
-1.68762,0.627136
-1.67847,0.628662
-1.67999,0.627136
-1.68304,0.621033
-1.69067,0.62561
-1.70441,0.627136
-1.71204,0.634766
-1.72729,0.631714
-1.74561,0.622559
-1.76849,0.62561
-1.79138,0.62561
-1.81885,0.627136
-1.84326,0.628662
-1.87073,0.619507
-1.89972,0.624084
-1.92413,0.627136
-1.95465,0.63324
-1.98059,0.634766
-2.00958,0.622559
-2.03552,0.62561
-2.05841,0.627136
-2.08282,0.628662
-2.10724,0.627136
-2.12708,0.622559
-2.14539,0.62561
-2.16064,0.627136
-2.1759,0.628662
-2.19269,0.628662
-2.20184,0.621033
-2.20642,0.624084
-2.211,0.62561
-2.211,0.628662
-2.21558,0.628662
-2.2171,0.622559
-2.21252,0.621033
-2.20795,0.624084
-2.20184,0.631714
-2.19269,0.631714
-2.18964,0.621033
-2.18201,0.622559
-2.17133,0.621033
-2.16522,0.634766
-2.15607,0.628662
-2.14691,0.624084
-2.13623,0.624084
-2.12555,0.621033
-2.11792,0.631714
-2.11029,0.627136
-2.10724,0.622559
-2.10419,0.624084
-2.09503,0.624084
-2.09198,0.628662
-2.09351,0.624084
-2.09351,0.619507
-2.09656,0.622559
-2.10419,0.622559
-2.11029,0.628662
-2.11334,0.62561
-2.11792,0.624084
-2.13013,0.622559
-2.13776,0.622559
-2.14996,0.62561
-2.16217,0.627136
-2.18048,0.622559
-2.19574,0.621033
-2.21405,0.624084
-2.22931,0.627136
-2.24915,0.627136
-2.26593,0.622559
-2.28577,0.619507
-2.30255,0.621033
-2.32697,0.627136
-2.34375,0.62561
-2.36359,0.622559
-2.38647,0.621033
-2.40936,0.621033
-2.42615,0.627136
-2.44598,0.627136
-2.46735,0.622559
-2.49023,0.622559
-2.50702,0.622559
-2.52686,0.628662
-2.54822,0.628662
-2.56653,0.622559
-2.58331,0.622559
-2.59705,0.621033
-2.61688,0.631714
-2.63367,0.628662
-2.65656,0.619507
-2.67334,0.624084
-2.6947,0.621033
-2.71454,0.62561
-2.73438,0.628662
-2.75726,0.624084
-2.77557,0.621033
-2.79846,0.622559
-2.8183,0.628662
-2.83661,0.62561
-2.85645,0.621033
-2.87018,0.621033
-2.89154,0.619507
-2.90375,0.631714
-2.93121,0.62561
-2.948,0.622559
-2.96326,0.622559
-2.97852,0.619507
-2.99988,0.627136
-3.01666,0.627136
-3.03345,0.624084
-3.04565,0.622559
-3.06244,0.617981
-3.0777,0.628662
-3.09143,0.62561
-3.10669,0.62561
-3.1189,0.622559
-3.13263,0.619507
-3.14789,0.628662
-3.1601,0.624084
-3.17535,0.624084
-3.18298,0.621033
-3.20129,0.619507
-3.21808,0.627136
-3.23334,0.627136
-3.24707,0.621033
-3.2608,0.621033
-3.27454,0.619507
-3.28217,0.627136
-3.29437,0.627136
-3.302,0.622559
-3.30658,0.621033
-3.30353,0.616455
-3.29742,0.628662
-3.28827,0.624084
-3.27454,0.619507
-3.25623,0.617981
-3.22876,0.616455
-3.19977,0.631714
-3.16162,0.62561
-3.12042,0.622559
-3.07007,0.621033
-3.01514,0.613403
-2.95868,0.627136
-2.89459,0.62561
-2.82593,0.619507
-2.75421,0.622559
-2.67944,0.613403
-2.6062,0.624084
-2.53601,0.624084
-2.46582,0.621033
-2.39563,0.619507
-2.32697,0.614929
-2.26746,0.627136
-2.20337,0.62561
-2.14386,0.622559
-2.08435,0.621033
-2.03247,0.616455
-1.98212,0.62561
-1.93176,0.624084
-1.88599,0.622559
-1.84479,0.621033
-1.81274,0.614929
-1.7807,0.62561
-1.75171,0.624084
-1.73187,0.621033
-1.71509,0.619507
-1.70288,0.616455
-1.68915,0.621033
-1.6861,0.628662
-1.67999,0.622559
-1.67999,0.622559
-1.6861,0.617981
-1.68915,0.62561
-1.69525,0.62561
-1.70593,0.622559
-1.72119,0.619507
-1.73187,0.617981
-1.74408,0.62561
-1.76392,0.624084
-1.77612,0.621033
-1.79443,0.619507
-1.81732,0.616455
-1.83716,0.628662
-1.85852,0.624084
-1.87988,0.622559
-1.89972,0.621033
-1.92413,0.622559
-1.94855,0.631714
-1.97449,0.62561
-1.99585,0.622559
-2.01416,0.619507
-2.034,0.617981
-2.04773,0.62561
-2.06909,0.62561
-2.07672,0.624084
-2.09045,0.621033
-2.09656,0.621033
-2.10876,0.628662
-2.11029,0.622559
-2.11334,0.619507
-2.11792,0.621033
-2.11639,0.617981
-2.1225,0.627136
-2.11639,0.624084
-2.11334,0.624084
-2.11487,0.619507
-2.11029,0.613403
-2.10419,0.62561
-2.10266,0.622559
-2.09503,0.621033
-2.09198,0.622559
-2.08588,0.616455
-2.07977,0.624084
-2.07367,0.622559
-2.07214,0.619507
-2.06604,0.621033
-2.05994,0.619507
-2.05078,0.622559
-2.04468,0.624084
-2.04468,0.62561
-2.04315,0.621033
-2.04163,0.616455
-2.04315,0.616455
-2.04773,0.622559
-2.04773,0.621033
-2.05841,0.619507
-2.05841,0.617981
-2.06604,0.621033
-2.0752,0.624084
-2.08588,0.617981
-2.08893,0.619507
-2.10114,0.617981
-2.11487,0.619507
-2.12708,0.622559
-2.13928,0.622559
-2.15912,0.619507
-2.17285,0.614929
-2.18964,0.619507
-2.20642,0.624084
-2.22626,0.622559
-2.24609,0.617981
-2.26593,0.616455
-2.29034,0.619507
-2.31018,0.621033
-2.33002,0.622559
-2.34833,0.624084
-2.36969,0.619507
-2.39105,0.619507
-2.41089,0.622559
-2.43073,0.622559
-2.45209,0.621033
-2.47345,0.616455
-2.49481,0.622559
-2.51617,0.62561
-2.53601,0.621033
-2.5589,0.621033
-2.58026,0.617981
-2.59857,0.624084
-2.6123,0.627136
-2.63367,0.622559
-2.65198,0.622559
-2.66876,0.617981
-2.69012,0.62561
-2.70996,0.627136
-2.72827,0.624084
-2.74658,0.622559
-2.76642,0.619507
-2.77863,0.62561
-2.80151,0.624084
-2.81677,0.622559
-2.83661,0.621033
-2.85492,0.617981
-2.87628,0.627136
-2.89001,0.624084
-2.90833,0.621033
-2.92969,0.619507
-2.94952,0.617981
-2.96478,0.627136
-2.98157,0.622559
-2.99988,0.619507
-3.01361,0.621033
-3.03345,0.616455
-3.04871,0.624084
-3.06396,0.624084
-3.07617,0.622559
-3.09753,0.621033
-3.10822,0.619507
-3.125,0.624084
-3.14178,0.622559
-3.15552,0.622559
-3.17383,0.617981
-3.18298,0.611877
-3.19519,0.62561
-3.20892,0.624084
-3.22113,0.622559
-3.22876,0.622559
-3.24402,0.617981
-3.24554,0.62561
-3.25165,0.622559
-3.25165,0.619507
-3.24554,0.616455
-3.23944,0.617981
-3.22113,0.619507
-3.19519,0.622559
-3.16772,0.621033
-3.13721,0.617981
-3.09753,0.614929
-3.05176,0.62561
-3.00446,0.622559
-2.95105,0.621033
-2.89612,0.621033
-2.83661,0.616455
-2.771,0.624084
-2.70691,0.622559
-2.63977,0.621033
-2.57111,0.621033
-2.50397,0.614929
-2.43378,0.62561
-2.36816,0.624084
-2.3056,0.622559
-2.24152,0.617981
-2.17743,0.614929
-2.11945,0.622559
-2.06604,0.624084
-2.01569,0.621033
-1.97144,0.619507
-1.92871,0.614929
-1.88446,0.622559
-1.85394,0.621033
-1.82037,0.622559
-1.79901,0.619507
-1.77002,0.617981
-1.75476,0.622559
-1.73645,0.617981
-1.72424,0.622559
-1.71814,0.619507
-1.71204,0.614929
-1.70746,0.622559
-1.71051,0.624084
-1.71204,0.622559
-1.72272,0.617981
-1.72882,0.617981
-1.74103,0.622559
-1.75629,0.622559
-1.77155,0.621033
-1.78223,0.614929
-1.80206,0.616455
-1.82037,0.621033
-1.84174,0.622559
-1.86005,0.621033
-1.87225,0.619507
-1.89667,0.614929
-1.9165,0.62561
-1.93634,0.621033
-1.95618,0.624084
-1.97906,0.616455
-1.99738,0.614929
-2.01874,0.621033
-2.03705,0.619507
-2.05231,0.621033
-2.06909,0.617981
-2.07977,0.614929
-2.09351,0.621033
-2.10571,0.617981
-2.10876,0.621033
-2.11487,0.617981
-2.11639,0.613403
-2.11945,0.624084
-2.12097,0.621033
-2.11945,0.619507
-2.11487,0.617981
-2.11487,0.614929
-2.11029,0.62561
-2.10724,0.622559
-2.10266,0.622559
-2.09198,0.616455
-2.08893,0.614929
-2.08435,0.622559
-2.0752,0.621033
-2.06757,0.619507
-2.05994,0.616455
-2.05383,0.613403
-2.04926,0.622559
-2.04468,0.621033
-2.0462,0.622559
-2.04163,0.616455
-2.0401,0.611877
-2.0401,0.617981
-2.03705,0.617981
-2.0401,0.621033
-2.03857,0.614929
-2.04773,0.613403
-2.04926,0.619507
-2.05536,0.617981
-2.06451,0.622559
-2.07062,0.610352
-2.07825,0.608826
-2.08282,0.621033
-2.09045,0.619507
-2.10114,0.619507
-2.12097,0.613403
-2.1347,0.613403
-2.14996,0.617981
-2.1698,0.619507
-2.18811,0.621033
-2.2049,0.614929
-2.22321,0.613403
-2.24304,0.622559
-2.25983,0.614929
-2.28119,0.621033
-2.29797,0.611877
-2.31934,0.613403
-2.34222,0.614929
-2.36511,0.617981
-2.38495,0.619507
-2.40479,0.613403
-2.42462,0.614929
-2.44904,0.617981
-2.46887,0.621033
-2.49329,0.622559
-2.51617,0.613403
-2.53601,0.611877
-2.5589,0.621033
-2.58179,0.619507
-2.60162,0.619507
-2.62146,0.613403
-2.63977,0.614929
-2.66113,0.619507
-2.67792,0.617981
-2.70081,0.624084
-2.72064,0.613403
-2.74048,0.613403
-2.76031,0.622559
-2.77405,0.616455
-2.79846,0.619507
-2.81372,0.613403
-2.83508,0.611877
-2.85492,0.619507
-2.8717,0.621033
-2.89001,0.624084
-2.90527,0.613403
-2.92664,0.611877
-2.94189,0.616455
-2.95868,0.619507
-2.97089,0.622559
-2.98309,0.610352
-2.99988,0.616455
-3.01208,0.621033
-3.02887,0.621033
-3.0426,0.621033
-3.05786,0.610352
-3.07465,0.611877
-3.08838,0.616455
-3.10211,0.619507
-3.11432,0.619507
-3.12805,0.611877
-3.14026,0.614929
-3.15704,0.617981
-3.1723,0.616455
-3.18756,0.619507
-3.19672,0.611877
-3.2074,0.611877
-3.21503,0.617981
-3.21808,0.617981
-3.2196,0.617981
-3.2196,0.611877
-3.22113,0.613403
-3.21808,0.617981
-3.21198,0.616455
-3.19977,0.621033
-3.17535,0.610352
-3.14789,0.610352
-3.11737,0.617981
-3.08685,0.614929
-3.04871,0.617981
-3.00751,0.610352
-2.95563,0.610352
-2.90527,0.616455
-2.84729,0.614929
-2.79388,0.617981
-2.73132,0.611877
-2.66876,0.610352
-2.60315,0.614929
-2.53906,0.616455
-2.47192,0.617981
-2.41089,0.613403
-2.34528,0.611877
-2.28271,0.616455
-2.21405,0.616455
-2.15912,0.619507
-2.10114,0.610352
-2.04163,0.610352
-1.98975,0.616455
-1.94092,0.616455
-1.9043,0.624084
-1.8631,0.611877
-1.83105,0.610352
-1.80359,0.617981
-1.77765,0.616455
-1.75934,0.621033
-1.74255,0.6073
-1.73035,0.608826
-1.72119,0.617981
-1.71509,0.614929
-1.70898,0.622559
-1.70746,0.610352
-1.70898,0.610352
-1.71661,0.617981
-1.72424,0.616455
-1.73798,0.621033
-1.74561,0.610352
-1.76086,0.611877
-1.7807,0.619507
-1.79443,0.616455
-1.80969,0.621033
-1.83105,0.610352
-1.85089,0.611877
-1.87073,0.617981
-1.89362,0.616455
-1.91956,0.617981
-1.94244,0.611877
-1.96533,0.608826
-1.99127,0.617981
-2.01416,0.613403
-2.02789,0.614929
-2.04926,0.608826
-2.06451,0.608826
-2.07825,0.617981
-2.09198,0.616455
-2.10419,0.621033
-2.11639,0.6073
-2.1225,0.6073
-2.1286,0.619507
-2.13013,0.617981
-2.13013,0.617981
-2.1286,0.610352
-2.12555,0.608826
-2.1225,0.616455
-2.11945,0.613403
-2.11487,0.616455
-2.11487,0.608826
-2.10571,0.6073
-2.10114,0.617981
-2.09198,0.616455
-2.08435,0.616455
-2.0752,0.608826
-2.06604,0.608826
-2.06451,0.616455
-2.05536,0.616455
-2.04926,0.617981
-2.04315,0.610352
-2.03857,0.6073
-2.034,0.619507
-2.034,0.614929
-2.03247,0.616455
-2.03094,0.608826
-2.034,0.605774
-2.034,0.616455
-2.03094,0.611877
-2.03247,0.617981
-2.03857,0.611877
-2.04315,0.604248
-2.05231,0.614929
-2.05688,0.613403
-2.06604,0.616455
-2.07214,0.608826
-2.08435,0.604248
-2.09503,0.616455
-2.10571,0.613403
-2.11945,0.616455
-2.13928,0.605774
-2.15302,0.604248
-2.17285,0.614929
-2.19116,0.614929
-2.20795,0.616455
-2.22931,0.605774
-2.24915,0.605774
-2.26593,0.611877
-2.28424,0.613403
-2.30103,0.614929
-2.32086,0.604248
-2.3407,0.602722
-2.35596,0.610352
-2.37427,0.611877
-2.39105,0.613403
-2.40631,0.605774
-2.4292,0.602722
-2.44598,0.613403
-2.46429,0.613403
-2.4826,0.614929
-2.49786,0.6073
-2.51617,0.604248
-2.53448,0.614929
-2.55127,0.611877
-2.56805,0.613403
-2.58636,0.605774
-2.60468,0.602722
-2.62146,0.611877
-2.63672,0.616455
-2.6535,0.611877
-2.67029,0.6073
-2.68707,0.608826
-2.70081,0.611877
-2.71454,0.614929
-2.72675,0.613403
-2.74048,0.6073
-2.75574,0.605774
-2.77405,0.613403
-2.78625,0.610352
-2.80609,0.608826
-2.81525,0.605774
-2.83051,0.601196
-2.84424,0.613403
-2.85645,0.613403
-2.86865,0.616455
-2.88086,0.604248
-2.89459,0.602722
-2.90833,0.611877
-2.91901,0.611877
-2.93274,0.611877
-2.95105,0.602722
-2.96173,0.604248
-2.97089,0.613403
-2.9892,0.608826
-3.00293,0.613403
-3.01971,0.604248
-3.02887,0.602722
-3.03955,0.611877
-3.04413,0.614929
-3.05176,0.611877
-3.05786,0.605774
-3.05786,0.595093
-3.05328,0.610352
-3.0426,0.611877
-3.03192,0.611877
-3.01208,0.604248
-2.9892,0.601196
-2.96021,0.610352
-2.92511,0.613403
-2.88544,0.610352
-2.84424,0.604248
-2.79999,0.602722
-2.74658,0.610352
-2.69318,0.608826
-2.63367,0.6073
-2.57416,0.6073
-2.51312,0.601196
-2.45056,0.613403
-2.388,0.611877
-2.32391,0.608826
-2.26135,0.604248
-2.20337,0.602722
-2.14233,0.6073
-2.0813,0.613403
-2.02332,0.608826
-1.96838,0.604248
-1.91345,0.602722
-1.86157,0.610352
-1.80664,0.610352
-1.76544,0.605774
-1.72424,0.605774
-1.68762,0.59967
-1.65253,0.610352
-1.62201,0.611877
-1.59607,0.610352
-1.57623,0.602722
-1.56097,0.601196
-1.55182,0.610352
-1.54266,0.613403
-1.54114,0.6073
-1.53961,0.601196
-1.53656,0.602722
-1.54114,0.608826
-1.54572,0.613403
-1.55487,0.605774
-1.56708,0.604248
-1.57928,0.602722
-1.59454,0.6073
-1.61133,0.610352
-1.63116,0.608826
-1.6571,0.602722
-1.67847,0.608826
-1.70288,0.611877
-1.73187,0.613403
-1.75781,0.608826
-1.78223,0.598145
-1.80817,0.602722
-1.83258,0.610352
-1.85852,0.611877
-1.87836,0.608826
-1.89972,0.6073
-1.9165,0.604248
-1.93176,0.610352
-1.94397,0.610352
-1.95313,0.608826
-1.95618,0.6073
-1.96381,0.604248
-1.97144,0.610352
-1.97296,0.610352
-1.97144,0.605774
-1.96991,0.604248
-1.96838,0.602722
-1.96838,0.608826
-1.96228,0.613403
-1.95618,0.605774
-1.94855,0.602722
-1.94092,0.6073
-1.93329,0.611877
-1.92413,0.608826
-1.91498,0.6073
-1.90277,0.604248
-1.89667,0.604248
-1.88599,0.610352
-1.87683,0.610352
-1.86768,0.604248
-1.86005,0.601196
-1.85242,0.6073
-1.84784,0.6073
-1.84326,0.611877
-1.84174,0.604248
-1.84021,0.59967
-1.84021,0.604248
-1.84174,0.608826
-1.84326,0.613403
-1.84631,0.604248
-1.85089,0.604248
-1.86005,0.605774
-1.86768,0.6073
-1.87531,0.613403
-1.88293,0.602722
-1.89514,0.598145
-1.9043,0.604248
-1.92108,0.6073
-1.93481,0.613403
-1.9455,0.604248
-1.96686,0.598145
-1.98059,0.604248
-1.9928,0.608826
-2.01416,0.614929
-2.02789,0.602722
-2.04773,0.59967
-2.05994,0.604248
-2.0813,0.610352
-2.09656,0.611877
-2.11639,0.602722
-2.1347,0.601196
-2.15454,0.6073
-2.17285,0.608826
-2.18811,0.611877
-2.20947,0.604248
-2.23236,0.602722
-2.25525,0.604248
-2.27509,0.608826
-2.29492,0.613403
-2.30865,0.605774
-2.33002,0.601196
-2.35138,0.604248
-2.36969,0.608826
-2.388,0.613403
-2.41089,0.604248
-2.42615,0.604248
-2.44904,0.6073
-2.46582,0.6073
-2.48413,0.610352
-2.50549,0.601196
-2.52228,0.604248
-2.54059,0.605774
-2.55737,0.610352
-2.57111,0.611877
-2.58942,0.602722
-2.6062,0.605774
-2.62146,0.604248
-2.63672,0.6073
-2.65198,0.614929
-2.66876,0.604248
-2.68555,0.602722
-2.69928,0.604248
-2.71301,0.608826
-2.73132,0.613403
-2.74048,0.59967
-2.75726,0.602722
-2.77557,0.601196
-2.79083,0.6073
-2.81067,0.613403
-2.82745,0.602722
-2.84119,0.601196
-2.85187,0.601196
-2.8656,0.608826
-2.87018,0.613403
-2.87781,0.604248
-2.88391,0.59967
-2.89459,0.601196
-2.89154,0.610352
-2.89001,0.613403
-2.88544,0.602722
-2.86865,0.59967
-2.85492,0.604248
-2.82898,0.610352
-2.79999,0.617981
-2.76184,0.604248
-2.71912,0.59967
-2.67181,0.59967
-2.61993,0.6073
-2.56042,0.616455
-2.50244,0.604248
-2.43683,0.602722
-2.36969,0.59967
-2.30103,0.6073
-2.23083,0.614929
-2.16217,0.602722
-2.08893,0.59967
-2.01416,0.602722
-1.94397,0.602722
-1.87073,0.610352
-1.79749,0.601196
-1.73035,0.601196
-1.66473,0.601196
-1.60065,0.605774
-1.54114,0.614929
-1.48163,0.602722
-1.42822,0.602722
-1.37787,0.601196
-1.33057,0.605774
-1.28632,0.613403
-1.25275,0.602722
-1.22375,0.602722
-1.19629,0.601196
-1.17188,0.6073
-1.15051,0.616455
-1.13831,0.605774
-1.1261,0.59967
-1.11542,0.59967
-1.11237,0.6073
-1.10626,0.616455
-1.10931,0.604248
-1.11084,0.602722
-1.11694,0.602722
-1.12305,0.6073
-1.1322,0.614929
-1.14594,0.598145
-1.15509,0.604248
-1.1734,0.601196
-1.19171,0.605774
-1.20544,0.614929
-1.22528,0.59967
-1.24512,0.59967
-1.26953,0.604248
-1.28784,0.6073
-1.3092,0.613403
-1.33362,0.602722
-1.35956,0.602722
-1.37787,0.604248
-1.39618,0.6073
-1.41449,0.616455
-1.42975,0.605774
-1.44348,0.59967
-1.45874,0.601196
-1.46942,0.605774
-1.474,0.616455
-1.48468,0.602722
-1.48926,0.602722
-1.49536,0.602722
-1.49536,0.608826
-1.49841,0.616455
-1.49536,0.601196
-1.49384,0.598145
-1.49536,0.59967
-1.48926,0.6073
-1.48315,0.613403
-1.47552,0.605774
-1.46484,0.601196
-1.45569,0.602722
-1.44806,0.605774
-1.43433,0.613403
-1.4267,0.605774
-1.42059,0.604248
-1.40839,0.602722
-1.40076,0.610352
-1.39313,0.613403
-1.38397,0.605774
-1.37482,0.605774
-1.36719,0.601196
-1.36719,0.6073
-1.36414,0.614929
-1.36414,0.602722
-1.36566,0.604248
-1.36566,0.59967
-1.37482,0.608826
-1.38397,0.613403
-1.39008,0.604248
-1.39771,0.601196
-1.40533,0.59967
-1.41907,0.6073
-1.42975,0.611877
-1.44653,0.604248
-1.45721,0.59967
-1.474,0.601196
-1.49078,0.6073
-1.50909,0.611877
-1.52435,0.6073
-1.54572,0.602722
-1.56555,0.601196
-1.58844,0.604248
-1.60675,0.611877
-1.63422,0.605774
-1.65558,0.601196
-1.67847,0.605774
-1.6983,0.608826
-1.71814,0.611877
-1.74255,0.605774
-1.76392,0.602722
-1.78986,0.602722
-1.81427,0.605774
-1.83563,0.613403
-1.86157,0.604248
-1.88446,0.602722
-1.90735,0.602722
-1.93481,0.608826
-1.9516,0.611877
-1.97754,0.604248
-1.99127,0.6073
-2.01263,0.602722
-2.03094,0.611877
-2.04773,0.613403
-2.06909,0.602722
-2.08435,0.605774
-2.10419,0.602722
-2.1225,0.6073
-2.14081,0.613403
-2.16064,0.601196
-2.1759,0.6073
-2.19421,0.602722
-2.21252,0.608826
-2.22626,0.608826
-2.24152,0.604248
-2.2583,0.602722
-2.27356,0.605774
-2.28577,0.608826
-2.29797,0.613403
-2.31628,0.601196
-2.32697,0.602722
-2.3407,0.602722
-2.35291,0.608826
-2.36664,0.611877
-2.38647,0.601196
-2.40479,0.602722
-2.42157,0.602722
-2.44293,0.608826
-2.45667,0.613403
-2.47498,0.602722
-2.48871,0.602722
-2.50549,0.604248
-2.52075,0.608826
-2.53601,0.613403
-2.54669,0.6073
-2.55737,0.604248
-2.56653,0.601196
-2.57416,0.610352
-2.57568,0.611877
-2.57416,0.605774
-2.56653,0.601196
-2.55432,0.602722
-2.53601,0.610352
-2.50854,0.611877
-2.47803,0.604248
-2.44293,0.602722
-2.39716,0.602722
-2.34985,0.611877
-2.29645,0.611877
-2.23999,0.605774
-2.17743,0.6073
-2.11182,0.604248
-2.04468,0.614929
-1.97449,0.611877
-1.9043,0.6073
-1.83105,0.602722
-1.76239,0.6073
-1.68915,0.614929
-1.61896,0.611877
-1.54877,0.6073
-1.4801,0.608826
-1.41602,0.604248
-1.34735,0.616455
-1.28784,0.614929
-1.23444,0.602722
-1.18408,0.608826
-1.13678,0.604248
-1.09711,0.614929
-1.05743,0.611877
-1.02081,0.608826
-0.993347,0.608826
-0.971985,0.604248
-0.950623,0.616455
-0.938416,0.613403
-0.920105,0.608826
-0.914001,0.6073
-0.907898,0.608826
-0.907898,0.617981
-0.91095,0.611877
-0.918579,0.608826
-0.926208,0.605774
-0.938416,0.610352
-0.944519,0.616455
-0.959778,0.611877
-0.98114,0.608826
-1.00098,0.605774
-1.01624,0.605774
-1.04065,0.619507
-1.06812,0.613403
-1.091,0.6073
-1.11237,0.605774
-1.13831,0.6073
-1.15814,0.616455
-1.18866,0.613403
-1.2146,0.608826
-1.23749,0.6073
-1.2619,0.605774
-1.28174,0.614929
-1.30463,0.613403
-1.32294,0.608826
-1.33972,0.6073
-1.35498,0.602722
-1.36719,0.614929
-1.38092,0.613403
-1.39008,0.610352
-1.39771,0.608826
-1.40381,0.605774
-1.40686,0.617981
-1.40533,0.608826
-1.40228,0.6073
-1.40076,0.6073
-1.39618,0.604248
-1.3916,0.617981
-1.39008,0.610352
-1.3855,0.608826
-1.37939,0.610352
-1.36871,0.601196
-1.36871,0.619507
-1.36261,0.611877
-1.35956,0.608826
-1.35193,0.605774
-1.34888,0.605774
-1.34583,0.617981
-1.33972,0.614929
-1.33972,0.608826
-1.33667,0.6073
-1.33667,0.608826
-1.33362,0.617981
-1.33667,0.611877
-1.34277,0.608826
-1.34735,0.6073
-1.35193,0.605774
-1.36261,0.617981
-1.36871,0.611877
-1.37939,0.6073
-1.3855,0.605774
-1.39771,0.6073
-1.41144,0.616455
-1.42822,0.610352
-1.44806,0.6073
-1.46027,0.604248
-1.4801,0.6073
-1.49841,0.617981
-1.5213,0.611877
-1.54266,0.608826
-1.56403,0.604248
-1.58539,0.6073
-1.60675,0.614929
-1.62811,0.610352
-1.65253,0.608826
-1.67694,0.6073
-1.69983,0.604248
-1.72119,0.616455
-1.74561,0.611877
-1.7746,0.6073
-1.79749,0.605774
-1.82037,0.604248
-1.84021,0.613403
-1.86462,0.613403
-1.88751,0.608826
-1.9043,0.6073
-1.92719,0.604248
-1.94855,0.614929
-1.96686,0.613403
-1.98975,0.608826
-2.00806,0.610352
-2.03094,0.604248
-2.04926,0.614929
-2.06909,0.614929
-2.08893,0.608826
-2.10876,0.6073
-2.12402,0.605774
-2.14539,0.613403
-2.16217,0.613403
-2.18201,0.610352
-2.20184,0.6073
-2.2171,0.605774
-2.23236,0.614929
-2.24915,0.614929
-2.27051,0.611877
-2.28119,0.610352
-2.30103,0.608826
-2.31781,0.611877
-2.33154,0.613403
-2.35138,0.608826
-2.36359,0.6073
-2.38037,0.608826
-2.39563,0.617981
-2.41241,0.614929
-2.4292,0.611877
-2.44751,0.604248
-2.46277,0.6073
-2.48108,0.614929
-2.49786,0.614929
-2.51465,0.614929
-2.53448,0.6073
-2.55127,0.604248
-2.56348,0.613403
-2.58179,0.611877
-2.59705,0.613403
-2.60925,0.6073
-2.62146,0.604248
-2.63519,0.611877
-2.64587,0.614929
-2.65656,0.611877
-2.66113,0.602722
-2.65808,0.6073
-2.65503,0.614929
-2.64282,0.614929
-2.63672,0.611877
-2.61993,0.608826
-2.59552,0.6073
-2.56348,0.614929
-2.52533,0.614929
-2.48566,0.616455
-2.43988,0.604248
-2.39105,0.608826
-2.33917,0.616455
-2.27966,0.610352
-2.22168,0.616455
-2.16217,0.608826
-2.09656,0.605774
-2.034,0.617981
-1.96533,0.614929
-1.89972,0.614929
-1.83411,0.608826
-1.77002,0.608826
-1.70898,0.616455
-1.64642,0.614929
-1.59149,0.614929
-1.53198,0.6073
-1.48163,0.605774
-1.42975,0.611877
-1.37939,0.614929
-1.3382,0.613403
-1.30005,0.6073
-1.26801,0.608826
-1.23444,0.614929
-1.2146,0.614929
-1.19476,0.613403
-1.17798,0.608826
-1.16425,0.608826
-1.15814,0.614929
-1.15509,0.613403
-1.16119,0.614929
-1.16272,0.610352
-1.17035,0.610352
-1.18408,0.613403
-1.19324,0.613403
-1.21002,0.619507
-1.22375,0.610352
-1.24512,0.6073
-1.2619,0.613403
-1.27869,0.614929
-1.30157,0.617981
-1.32446,0.608826
-1.3504,0.608826
-1.37482,0.613403
-1.40076,0.614929
-1.42822,0.617981
-1.46027,0.6073
-1.4801,0.611877
-1.50299,0.613403
-1.52588,0.616455
-1.55029,0.616455
-1.5686,0.6073
-1.58844,0.608826
-1.60675,0.614929
-1.61743,0.616455
-1.63269,0.617981
-1.64337,0.604248
-1.65405,0.610352
-1.66168,0.616455
-1.66626,0.616455
-1.67236,0.614929
-1.67084,0.610352
-1.66931,0.6073
-1.66779,0.614929
-1.66626,0.616455
-1.66473,0.616455
-1.6571,0.608826
-1.64795,0.608826
-1.6449,0.616455
-1.64337,0.614929
-1.63727,0.617981
-1.63269,0.6073
-1.62964,0.610352
-1.62811,0.614929
-1.62048,0.616455
-1.62201,0.622559
-1.61896,0.610352
-1.61896,0.6073
-1.61896,0.613403
-1.61896,0.613403
-1.62354,0.619507
-1.62506,0.610352
-1.62964,0.608826
-1.63422,0.611877
-1.64185,0.614929
-1.64948,0.621033
-1.65863,0.611877
-1.66626,0.6073
-1.67389,0.613403
-1.68152,0.616455
-1.69373,0.619507
-1.70288,0.611877
-1.71509,0.610352
-1.72882,0.610352
-1.74408,0.611877
-1.76544,0.616455
-1.78223,0.610352
-1.80206,0.610352
-1.82037,0.610352
-1.84326,0.613403
-1.86005,0.616455
-1.88293,0.608826
-1.90582,0.6073
-1.93024,0.613403
-1.95007,0.614929
-1.97144,0.616455
-1.99585,0.608826
-2.01111,0.605774
-2.03094,0.611877
-2.04926,0.613403
-2.07062,0.613403
-2.09045,0.6073
-2.11639,0.610352
-2.13318,0.611877
-2.15302,0.611877
-2.17743,0.613403
-2.19879,0.6073
-2.2171,0.608826
-2.24304,0.611877
-2.2644,0.613403
-2.28271,0.616455
-2.30255,0.608826
-2.32239,0.611877
-2.34222,0.613403
-2.36206,0.614929
-2.38037,0.617981
-2.39868,0.608826
-2.42462,0.608826
-2.43988,0.613403
-2.45667,0.614929
-2.47803,0.617981
-2.49634,0.611877
-2.51312,0.6073
-2.52838,0.614929
-2.54669,0.613403
-2.56348,0.613403
-2.58331,0.616455
-2.6001,0.6073
-2.61841,0.614929
-2.63519,0.614929
-2.65198,0.617981
-2.66571,0.614929
-2.67792,0.608826
-2.6947,0.613403
-2.70691,0.610352
-2.72522,0.619507
-2.73895,0.616455
-2.75421,0.6073
-2.76794,0.614929
-2.7832,0.614929
-2.79541,0.614929
-2.81067,0.617981
-2.82898,0.610352
-2.83661,0.611877
-2.85492,0.611877
-2.86407,0.617981
-2.87933,0.613403
-2.89001,0.608826
-2.89612,0.614929
-2.9007,0.610352
-2.90833,0.614929
-2.90833,0.611877
-2.90375,0.608826
-2.88696,0.608826
-2.8717,0.611877
-2.84882,0.613403
-2.82135,0.611877
-2.78931,0.608826
-2.74963,0.610352
-2.70691,0.614929
-2.66113,0.614929
-2.6062,0.610352
-2.55432,0.608826
-2.49634,0.611877
-2.43073,0.611877
-2.36816,0.611877
-2.30255,0.610352
-2.23694,0.608826
-2.17133,0.613403
-2.10419,0.610352
-2.03857,0.611877
-1.97754,0.6073
-1.91498,0.608826
-1.86005,0.613403
-1.80817,0.611877
-1.75781,0.613403
-1.70441,0.608826
-1.66168,0.6073
-1.62354,0.610352
-1.58844,0.610352
-1.55334,0.614929
-1.52435,0.605774
-1.50146,0.605774
-1.47705,0.613403
-1.46332,0.613403
-1.44806,0.611877
-1.43433,0.604248
-1.42822,0.605774
-1.42365,0.610352
-1.4267,0.610352
-1.4267,0.611877
-1.44043,0.604248
-1.44958,0.605774
-1.46027,0.610352
-1.47552,0.610352
-1.48926,0.611877
-1.50909,0.6073
-1.52435,0.605774
-1.55029,0.611877
-1.57166,0.608826
-1.59912,0.610352
-1.62506,0.610352
-1.6571,0.605774
-1.68152,0.608826
-1.71204,0.610352
-1.7395,0.617981
-1.76697,0.604248
-1.79138,0.605774
-1.80969,0.608826
-1.83258,0.608826
-1.85242,0.613403
-1.86768,0.608826
-1.88446,0.605774
-1.89667,0.608826
-1.90887,0.610352
-1.92108,0.614929
-1.92413,0.6073
-1.93024,0.605774
-1.93787,0.608826
-1.94244,0.611877
-1.94092,0.613403
-1.93939,0.608826
-1.93787,0.608826
-1.93024,0.610352
-1.92719,0.610352
-1.91803,0.611877
-1.90887,0.608826
-1.90277,0.6073
-1.89514,0.608826
-1.88446,0.6073
-1.87378,0.613403
-1.86615,0.6073
-1.86157,0.604248
-1.85394,0.608826
-1.84784,0.613403
-1.84784,0.614929
-1.84326,0.605774
-1.83868,0.6073
-1.84021,0.610352
-1.83563,0.608826
-1.83868,0.611877
-1.84174,0.605774
-1.84631,0.6073
-1.84784,0.608826
-1.85394,0.613403
-1.86462,0.610352
-1.87531,0.6073
-1.88446,0.6073
-1.89362,0.605774
-1.89972,0.608826
-1.91345,0.611877
-1.92413,0.604248
-1.93787,0.6073
-1.95007,0.605774
-1.96838,0.6073
-1.98212,0.611877
-2.00043,0.6073
-2.01416,0.605774
-2.03094,0.608826
-2.04773,0.608826
-2.06451,0.613403
-2.08435,0.6073
-2.10419,0.608826
-2.12402,0.608826
-2.14386,0.6073
-2.16827,0.613403
-2.18964,0.602722
-2.20795,0.605774
-2.22626,0.6073
-2.24304,0.608826
-2.26288,0.608826
-2.28424,0.602722
-2.30255,0.608826
-2.32544,0.605774
-2.34222,0.608826
-2.35901,0.611877
-2.38037,0.604248
-2.39868,0.602722
-2.42157,0.6073
-2.44293,0.6073
-2.46277,0.610352
-2.48566,0.604248
-2.50854,0.602722
-2.53296,0.604248
-2.5528,0.611877
-2.56805,0.608826
-2.58942,0.605774
-2.60315,0.6073
-2.62299,0.6073
-2.63977,0.611877
-2.65198,0.611877
-2.66571,0.604248
-2.68402,0.604248
-2.69775,0.610352
-2.71301,0.613403
-2.73285,0.611877
-2.74811,0.604248
-2.76031,0.604248
-2.7771,0.604248
-2.79388,0.6073
-2.80914,0.610352
-2.82898,0.608826
-2.84729,0.604248
-2.86255,0.605774
-2.87628,0.611877
-2.89001,0.608826
-2.90833,0.605774
-2.92664,0.604248
-2.94189,0.605774
-2.96021,0.610352
-2.97394,0.610352
-2.98767,0.605774
-2.99988,0.601196
-3.01361,0.6073
-3.01666,0.610352
-3.02734,0.610352
-3.02429,0.605774
-3.02277,0.605774
-3.01819,0.604248
-3.00598,0.614929
-2.98462,0.608826
-2.95868,0.605774
-2.92664,0.604248
-2.89154,0.604248
-2.84729,0.610352
-2.79846,0.608826
-2.74658,0.604248
-2.68707,0.604248
-2.62604,0.602722
-2.56042,0.6073
-2.49176,0.608826
-2.41852,0.601196
-2.3468,0.602722
-2.27356,0.602722
-2.19727,0.6073
-2.1225,0.610352
-2.04926,0.604248
-1.97296,0.602722
-1.90582,0.602722
-1.83258,0.610352
-1.76392,0.6073
-1.70288,0.602722
-1.63879,0.602722
-1.58081,0.602722
-1.52588,0.611877
-1.474,0.6073
-1.42365,0.602722
-1.38092,0.601196
-1.34583,0.605774
-1.31073,0.611877
-1.28174,0.6073
-1.26038,0.604248
-1.24359,0.601196
-1.23138,0.59967
-1.22223,0.610352
-1.21765,0.6073
-1.2146,0.602722
-1.2146,0.601196
-1.21613,0.601196
-1.22681,0.610352
-1.23444,0.610352
-1.24664,0.604248
-1.25885,0.601196
-1.27716,0.605774
-1.29547,0.608826
-1.31531,0.610352
-1.33362,0.602722
-1.35803,0.602722
-1.38397,0.59967
-1.40686,0.6073
-1.43433,0.608826
-1.46332,0.604248
-1.48773,0.602722
-1.51215,0.604248
-1.53656,0.608826
-1.55945,0.611877
-1.58539,0.605774
-1.60522,0.602722
-1.62201,0.602722
-1.64185,0.611877
-1.6571,0.6073
-1.66626,0.59967
-1.67389,0.602722
-1.68304,0.601196
-1.68915,0.6073
-1.6922,0.6073
-1.69067,0.601196
-1.68762,0.605774
-1.68304,0.601196
-1.67694,0.608826
-1.67084,0.605774
-1.66321,0.602722
-1.66168,0.602722
-1.65558,0.59967
-1.64642,0.613403
-1.64337,0.6073
-1.63422,0.598145
-1.62811,0.602722
-1.62201,0.601196
-1.61438,0.611877
-1.6098,0.6073
-1.6037,0.601196
-1.60065,0.602722
-1.60065,0.601196
-1.59607,0.610352
-1.5976,0.608826
-1.59912,0.601196
-1.59607,0.601196
-1.5976,0.602722
-1.5976,0.608826
-1.60217,0.6073
-1.60675,0.59967
-1.61438,0.602722
-1.62354,0.59967
-1.63116,0.6073
-1.64185,0.6073
-1.65558,0.598145
-1.66779,0.602722
-1.6922,0.59967
-1.70746,0.6073
-1.72424,0.608826
-1.74103,0.59967
-1.76086,0.598145
-1.77917,0.601196
-1.80206,0.610352
-1.8219,0.6073
-1.84326,0.59967
-1.86615,0.593567
-1.87988,0.59967
-1.9043,0.608826
-1.93329,0.6073
-1.95313,0.601196
-1.97906,0.59967
-2.00043,0.598145
-2.02332,0.602722
-2.0462,0.605774
-2.06604,0.598145
-2.09198,0.601196
-2.11334,0.598145
-2.13318,0.6073
-2.15302,0.605774
-2.17285,0.59967
-2.18964,0.598145
-2.211,0.59967
-2.22931,0.6073
-2.25067,0.604248
-2.27661,0.598145
-2.29034,0.595093
-2.31171,0.601196
-2.33002,0.605774
-2.35138,0.6073
-2.36816,0.598145
-2.38953,0.59967
-2.41089,0.601196
-2.42767,0.6073
-2.45056,0.610352
-2.46429,0.598145
-2.48718,0.595093
-2.50549,0.59967
-2.51923,0.605774
-2.53754,0.608826
-2.54974,0.601196
-2.56805,0.598145
-2.58484,0.59967
-2.59552,0.610352
-2.61536,0.610352
-2.62909,0.601196
-2.64587,0.59967
-2.66571,0.59967
-2.67944,0.605774
-2.6947,0.6073
-2.70996,0.601196
-2.72522,0.601196
-2.74048,0.59967
-2.75879,0.6073
-2.77405,0.605774
-2.78931,0.59967
-2.80609,0.598145
-2.82135,0.59967
-2.83203,0.6073
-2.84119,0.6073
-2.84729,0.602722
-2.8595,0.595093
-2.8595,0.59967
-2.85797,0.604248
-2.85492,0.605774
-2.84119,0.595093
-2.82135,0.59967
-2.79541,0.598145
-2.76337,0.601196
-2.72675,0.6073
-2.67792,0.601196
-2.62909,0.59967
-2.57263,0.59967
-2.51617,0.602722
-2.44904,0.605774
-2.3819,0.601196
-2.31018,0.601196
-2.23694,0.598145
-2.15759,0.605774
-2.0813,0.605774
-2.00043,0.59967
-1.91803,0.598145
-1.83868,0.598145
-1.75934,0.608826
-1.68152,0.605774
-1.60522,0.59967
-1.53809,0.598145
-1.46942,0.598145
-1.40381,0.605774
-1.34583,0.6073
-1.29242,0.59967
-1.23749,0.593567
-1.19171,0.59967
-1.14746,0.605774
-1.11237,0.605774
-1.07727,0.59967
-1.0498,0.593567
-1.02386,0.602722
-1.00861,0.6073
-0.993347,0.602722
-0.98114,0.59967
-0.976563,0.592041
-0.973511,0.601196
-0.973511,0.604248
-0.982666,0.604248
-0.991821,0.598145
-1.00403,0.593567
-1.01929,0.601196
-1.03607,0.605774
-1.05438,0.605774
-1.07574,0.59967
-1.09253,0.593567
-1.11847,0.604248
-1.14441,0.6073
-1.1734,0.605774
-1.19781,0.601196
-1.22528,0.595093
-1.25275,0.59967
-1.27869,0.605774
-1.30615,0.6073
-1.33514,0.601196
-1.35498,0.593567
-1.38245,0.602722
-1.40228,0.604248
-1.41907,0.604248
-1.43127,0.59967
-1.44348,0.593567
-1.45721,0.602722
-1.4679,0.605774
-1.47552,0.602722
-1.48468,0.59967
-1.48773,0.598145
-1.49078,0.604248
-1.49231,0.604248
-1.49078,0.601196
-1.49078,0.59967
-1.48468,0.595093
-1.48163,0.602722
-1.47552,0.604248
-1.46942,0.604248
-1.46027,0.59967
-1.44958,0.59967
-1.44348,0.602722
-1.43127,0.6073
-1.42059,0.601196
-1.41144,0.59967
-1.40228,0.593567
-1.39313,0.601196
-1.38092,0.605774
-1.37939,0.601196
-1.37177,0.595093
-1.37177,0.595093
-1.36871,0.604248
-1.37329,0.605774
-1.37177,0.601196
-1.37482,0.59967
-1.38092,0.593567
-1.38702,0.601196
-1.39313,0.602722
-1.40076,0.602722
-1.41144,0.598145
-1.42212,0.593567
-1.43738,0.602722
-1.45264,0.602722
-1.4679,0.602722
-1.48773,0.601196
-1.49841,0.593567
-1.51672,0.6073
-1.53503,0.605774
-1.55334,0.601196
-1.57166,0.59967
-1.5976,0.590515
-1.61438,0.602722
-1.63727,0.604248
-1.6571,0.601196
-1.67542,0.595093
-1.69983,0.590515
-1.72119,0.605774
-1.74408,0.605774
-1.76697,0.601196
-1.7868,0.602722
-1.80817,0.592041
-1.83411,0.604248
-1.85547,0.605774
-1.87988,0.59967
-1.90277,0.598145
-1.93176,0.595093
-1.9577,0.602722
-1.98059,0.6073
-2.00653,0.601196
-2.02484,0.59967
-2.04926,0.593567
-2.07214,0.602722
-2.09198,0.604248
-2.11182,0.598145
-2.13013,0.602722
-2.15149,0.593567
-2.1698,0.604248
-2.18811,0.6073
-2.20795,0.605774
-2.22168,0.59967
-2.23999,0.592041
-2.25677,0.605774
-2.27203,0.6073
-2.28882,0.602722
-2.30255,0.59967
-2.32086,0.592041
-2.33307,0.605774
-2.35291,0.605774
-2.36969,0.59967
-2.38495,0.598145
-2.40479,0.590515
-2.42615,0.605774
-2.44446,0.602722
-2.46582,0.601196
-2.48566,0.602722
-2.50397,0.592041
-2.52075,0.604248
-2.54059,0.605774
-2.55432,0.602722
-2.56958,0.598145
-2.59094,0.595093
-2.60315,0.605774
-2.61993,0.608826
-2.63672,0.602722
-2.65198,0.598145
-2.66571,0.590515
-2.67639,0.604248
-2.69012,0.605774
-2.6886,0.6073
-2.68707,0.601196
-2.67944,0.593567
-2.67029,0.605774
-2.6535,0.605774
-2.62299,0.601196
-2.59247,0.602722
-2.55737,0.590515
-2.51312,0.604248
-2.46124,0.604248
-2.40631,0.601196
-2.3468,0.59967
-2.28729,0.590515
-2.22168,0.604248
-2.14844,0.605774
-2.07367,0.604248
-1.99738,0.602722
-1.91803,0.590515
-1.84174,0.601196
-1.76392,0.605774
-1.68762,0.604248
-1.61285,0.59967
-1.54114,0.590515
-1.4679,0.602722
-1.40228,0.605774
-1.3382,0.602722
-1.28021,0.59967
-1.22528,0.592041
-1.17798,0.602722
-1.1322,0.604248
-1.09253,0.604248
-1.05896,0.598145
-1.03302,0.590515
-1.00403,0.602722
-0.985718,0.604248
-0.971985,0.604248
-0.958252,0.59967
-0.952148,0.590515
-0.949097,0.604248
-0.9552,0.602722
-0.9552,0.604248
-0.967407,0.602722
-0.978088,0.585938
-0.991821,0.605774
-1.00708,0.604248
-1.02386,0.605774
-1.04523,0.601196
-1.06506,0.590515
-1.08948,0.602722
-1.11237,0.605774
-1.13983,0.602722
-1.16577,0.601196
-1.19324,0.588989
-1.22375,0.604248
-1.25427,0.604248
-1.28479,0.602722
-1.31683,0.604248
-1.34735,0.587463
-1.36871,0.608826
-1.39618,0.605774
-1.41907,0.604248
-1.43738,0.59967
-1.45569,0.595093
-1.47247,0.605774
-1.48315,0.605774
-1.49231,0.602722
-1.49689,0.601196
-1.50146,0.588989
-1.50452,0.605774
-1.50452,0.605774
-1.50299,0.604248
-1.49689,0.601196
-1.48926,0.592041
-1.47705,0.6073
-1.47095,0.604248
-1.46179,0.602722
-1.45111,0.605774
-1.4389,0.587463
-1.4267,0.608826
-1.41754,0.6073
-1.40228,0.605774
-1.39313,0.601196
-1.38245,0.590515
-1.37177,0.601196
-1.36414,0.601196
-1.35498,0.6073
-1.34583,0.602722
-1.33972,0.592041
-1.33362,0.602722
-1.32904,0.604248
-1.32446,0.602722
-1.32446,0.604248
-1.32141,0.588989
-1.32294,0.604248
-1.32599,0.601196
-1.33362,0.605774
-1.33667,0.59967
-1.33972,0.588989
-1.3504,0.604248
-1.36566,0.601196
-1.37787,0.602722
-1.39313,0.601196
-1.41144,0.592041
-1.4267,0.601196
-1.44196,0.604248
-1.46637,0.605774
-1.48315,0.598145
-1.49994,0.588989
-1.5213,0.602722
-1.55029,0.602722
-1.56708,0.59967
-1.58997,0.601196
-1.61438,0.590515
-1.64185,0.601196
-1.66473,0.602722
-1.69067,0.6073
-1.71204,0.59967
-1.73645,0.592041
-1.76086,0.601196
-1.7807,0.604248
-1.80359,0.605774
-1.82953,0.59967
-1.85089,0.587463
-1.87073,0.602722
-1.88751,0.602722
-1.9104,0.6073
-1.93329,0.601196
-1.9516,0.588989
-1.97144,0.605774
-1.98822,0.602722
-2.01416,0.604248
-2.034,0.59967
-2.05231,0.590515
-2.07062,0.604248
-2.0874,0.601196
-2.10724,0.602722
-2.12402,0.59967
-2.14233,0.593567
-2.16064,0.602722
-2.17896,0.59967
-2.19269,0.601196
-2.20947,0.59967
-2.22321,0.588989
-2.24152,0.604248
-2.25525,0.601196
-2.26746,0.59967
-2.28424,0.598145
-2.2995,0.592041
-2.32086,0.601196
-2.33459,0.601196
-2.35443,0.601196
-2.36511,0.59967
-2.38342,0.592041
-2.40021,0.602722
-2.42157,0.602722
-2.44446,0.598145
-2.45972,0.595093
-2.47955,0.592041
-2.49939,0.605774
-2.51465,0.601196
-2.53296,0.602722
-2.55127,0.595093
-2.56653,0.592041
-2.57568,0.6073
-2.58789,0.601196
-2.59247,0.602722
-2.59094,0.593567
-2.58942,0.593567
-2.58026,0.604248
-2.56348,0.601196
-2.54059,0.601196
-2.51465,0.598145
-2.47498,0.592041
-2.4353,0.598145
-2.388,0.602722
-2.33459,0.598145
-2.27509,0.590515
-2.20795,0.592041
-2.14233,0.59967
-2.06757,0.601196
-1.99585,0.602722
-1.9165,0.595093
-1.83868,0.590515
-1.76239,0.59967
-1.68152,0.598145
-1.60675,0.601196
-1.53046,0.592041
-1.45264,0.593567
-1.38397,0.598145
-1.31378,0.601196
-1.24817,0.59967
-1.18103,0.592041
-1.12152,0.592041
-1.06506,0.59967
-1.01624,0.602722
-0.968933,0.602722
-0.923157,0.590515
-0.88501,0.593567
-0.846863,0.595093
-0.820923,0.601196
-0.799561,0.598145
-0.784302,0.588989
-0.772095,0.593567
-0.764465,0.593567
-0.767517,0.59967
-0.769043,0.59967
-0.776672,0.587463
-0.785828,0.592041
-0.799561,0.598145
-0.813293,0.59967
-0.836182,0.601196
-0.856018,0.590515
-0.878906,0.595093
-0.909424,0.592041
-0.932312,0.598145
-0.961304,0.59967
-0.999451,0.588989
-1.03455,0.592041
-1.06964,0.593567
-1.10321,0.601196
-1.14136,0.595093
-1.17645,0.587463
-1.21002,0.593567
-1.24207,0.592041
-1.27106,0.59967
-1.30615,0.601196
-1.33362,0.588989
-1.35956,0.595093
-1.38245,0.601196
-1.40381,0.602722
-1.41754,0.595093
-1.43127,0.593567
-1.44043,0.592041
-1.44958,0.59967
-1.44958,0.598145
-1.44653,0.602722
-1.44196,0.590515
-1.43738,0.593567
-1.42822,0.595093
-1.41602,0.601196
-1.39771,0.602722
-1.3855,0.588989
-1.36719,0.593567
-1.3504,0.595093
-1.3443,0.59967
-1.32294,0.598145
-1.31226,0.590515
-1.29852,0.593567
-1.28479,0.59967
-1.27106,0.59967
-1.25427,0.602722
-1.24207,0.590515
-1.22833,0.590515
-1.22223,0.598145
-1.21765,0.59967
-1.21002,0.598145
-1.20697,0.588989
-1.20697,0.593567
-1.20239,0.592041
-1.21002,0.598145
-1.2146,0.598145
-1.2207,0.587463
-1.22986,0.590515
-1.24207,0.59967
-1.25275,0.59967
-1.26953,0.595093
-1.28479,0.585938
-1.30615,0.598145
-1.32294,0.598145
-1.34583,0.59967
-1.36414,0.595093
-1.39008,0.588989
-1.40839,0.592041
-1.43433,0.593567
-1.46027,0.59967
-1.48926,0.598145
-1.51215,0.587463
-1.53809,0.588989
-1.56403,0.595093
-1.59302,0.602722
-1.61896,0.595093
-1.64337,0.585938
-1.67236,0.595093
-1.69373,0.590515
-1.72424,0.59967
-1.74866,0.598145
-1.77612,0.590515
-1.79749,0.592041
-1.8219,0.592041
-1.84784,0.59967
-1.87225,0.598145
-1.89819,0.588989
-1.92261,0.592041
-1.95007,0.592041
-1.97906,0.59967
-2.00958,0.595093
-2.0401,0.588989
-2.07062,0.592041
-2.09503,0.593567
-2.11945,0.59967
-2.14996,0.59967
-2.17133,0.590515
-2.19421,0.588989
-2.21405,0.588989
-2.23999,0.598145
-2.25983,0.598145
-2.28271,0.588989
-2.30255,0.590515
-2.31934,0.588989
-2.34375,0.59967
-2.36053,0.595093
-2.37732,0.590515
-2.3941,0.587463
-2.41089,0.592041
-2.4292,0.598145
-2.44446,0.598145
-2.46277,0.590515
-2.4826,0.587463
-2.49939,0.592041
-2.5177,0.59967
-2.53448,0.595093
-2.54974,0.593567
-2.56195,0.592041
-2.58179,0.590515
-2.59552,0.598145
-2.6062,0.598145
-2.62146,0.590515
-2.62756,0.590515
-2.63214,0.592041
-2.63214,0.59967
-2.62909,0.595093
-2.61841,0.590515
-2.59857,0.587463
-2.57416,0.590515
-2.53754,0.601196
-2.50092,0.592041
-2.45361,0.588989
-2.39258,0.592041
-2.32849,0.587463
-2.25983,0.598145
-2.18658,0.593567
-2.10876,0.587463
-2.02484,0.590515
-1.93634,0.592041
-1.84631,0.598145
-1.75629,0.595093
-1.66626,0.590515
-1.57166,0.590515
-1.47552,0.587463
-1.38397,0.598145
-1.29395,0.595093
-1.21002,0.587463
-1.12152,0.587463
-1.0437,0.588989
-0.968933,0.595093
-0.898743,0.593567
-0.83313,0.590515
-0.769043,0.592041
-0.715637,0.587463
-0.665283,0.595093
-0.617981,0.595093
-0.575256,0.588989
-0.543213,0.590515
-0.514221,0.585938
-0.495911,0.592041
-0.483704,0.595093
-0.473022,0.587463
-0.471497,0.588989
-0.471497,0.588989
-0.479126,0.595093
-0.486755,0.595093
-0.498962,0.590515
-0.509644,0.587463
-0.524902,0.584412
-0.543213,0.593567
-0.566101,0.595093
-0.588989,0.588989
-0.613403,0.588989
-0.636292,0.585938
-0.666809,0.593567
-0.698853,0.592041
-0.732422,0.588989
-0.769043,0.588989
-0.801086,0.585938
-0.834656,0.59967
-0.868225,0.590515
-0.90332,0.587463
-0.93689,0.588989
-0.964355,0.582886
-0.991821,0.598145
-1.01776,0.590515
-1.0437,0.588989
-1.06049,0.587463
-1.0788,0.584412
-1.09406,0.59967
-1.10779,0.588989
-1.11694,0.590515
-1.1261,0.593567
-1.12762,0.58136
-1.1322,0.595093
-1.13068,0.590515
-1.12915,0.592041
-1.12762,0.585938
-1.12152,0.582886
-1.11847,0.592041
-1.10626,0.593567
-1.09406,0.590515
-1.08185,0.588989
-1.07117,0.582886
-1.06049,0.595093
-1.05133,0.592041
-1.04675,0.584412
-1.03912,0.588989
-1.02844,0.582886
-1.02081,0.595093
-1.01013,0.592041
-1.00555,0.587463
-0.994873,0.585938
-0.990295,0.58136
-0.985718,0.587463
-0.987244,0.590515
-0.98877,0.590515
-0.990295,0.587463
-0.991821,0.584412
-1.00098,0.592041
-1.00861,0.593567
-1.01776,0.588989
-1.02844,0.585938
-1.0437,0.584412
-1.05591,0.592041
-1.06964,0.588989
-1.08643,0.585938
-1.10626,0.584412
-1.12152,0.584412
-1.14746,0.588989
-1.17188,0.590515
-1.19629,0.590515
-1.22223,0.584412
-1.24817,0.582886
-1.27716,0.590515
-1.30005,0.588989
-1.32599,0.588989
-1.35345,0.582886
-1.3855,0.58136
-1.41296,0.590515
-1.4389,0.590515
-1.46637,0.585938
-1.49689,0.584412
-1.5213,0.584412
-1.54877,0.592041
-1.57623,0.587463
-1.6037,0.588989
-1.63269,0.585938
-1.6571,0.585938
-1.68304,0.595093
-1.70746,0.588989
-1.72729,0.590515
-1.75171,0.587463
-1.77155,0.582886
-1.79291,0.592041
-1.8158,0.585938
-1.84174,0.588989
-1.86615,0.585938
-1.88141,0.582886
-1.90582,0.595093
-1.93176,0.588989
-1.95313,0.590515
-1.97906,0.584412
-2.005,0.585938
-2.02789,0.593567
-2.04926,0.590515
-2.07825,0.588989
-2.09351,0.584412
-2.11639,0.58136
-2.13776,0.592041
-2.15302,0.588989
-2.17438,0.588989
-2.19574,0.585938
-2.211,0.585938
-2.22778,0.590515
-2.24762,0.592041
-2.26593,0.588989
-2.28271,0.587463
-2.30255,0.585938
-2.32391,0.587463
-2.3407,0.592041
-2.35901,0.588989
-2.37579,0.588989
-2.3941,0.584412
-2.40326,0.590515
-2.42157,0.584412
-2.43225,0.587463
-2.44293,0.588989
-2.45056,0.582886
-2.44904,0.587463
-2.43835,0.588989
-2.43073,0.592041
-2.40631,0.587463
-2.37732,0.584412
-2.33917,0.582886
-2.29492,0.590515
-2.23999,0.588989
-2.1759,0.587463
-2.10571,0.582886
-2.034,0.585938
-1.95007,0.587463
-1.86462,0.588989
-1.77612,0.588989
-1.6861,0.582886
-1.58691,0.588989
-1.48926,0.588989
-1.39923,0.588989
-1.30463,0.587463
-1.21002,0.582886
-1.11847,0.584412
-1.02997,0.588989
-0.942993,0.587463
-0.85907,0.587463
-0.784302,0.582886
-0.712585,0.587463
-0.642395,0.588989
-0.582886,0.585938
-0.527954,0.585938
-0.480652,0.584412
-0.442505,0.593567
-0.404358,0.588989
-0.375366,0.588989
-0.35553,0.590515
-0.334167,0.584412
-0.326538,0.588989
-0.318909,0.587463
-0.314331,0.590515
-0.32196,0.585938
-0.32196,0.58136
-0.334167,0.593567
-0.346375,0.587463
-0.364685,0.588989
-0.384521,0.587463
-0.402832,0.58136
-0.424194,0.590515
-0.454712,0.590515
-0.485229,0.585938
-0.512695,0.587463
-0.544739,0.582886
-0.578308,0.590515
-0.608826,0.590515
-0.640869,0.587463
-0.671387,0.587463
-0.704956,0.582886
-0.738525,0.588989
-0.769043,0.592041
-0.805664,0.585938
-0.830078,0.584412
-0.857544,0.58136
-0.886536,0.587463
-0.909424,0.588989
-0.930786,0.587463
-0.946045,0.585938
-0.961304,0.579834
-0.970459,0.592041
-0.976563,0.587463
-0.985718,0.585938
-0.990295,0.585938
-0.98877,0.58136
-0.987244,0.590515
-0.984192,0.587463
-0.98114,0.585938
-0.975037,0.585938
-0.971985,0.58136
-0.967407,0.587463
-0.961304,0.587463
-0.947571,0.585938
-0.942993,0.585938
-0.926208,0.58136
-0.912476,0.587463
-0.907898,0.585938
-0.895691,0.585938
-0.88501,0.585938
-0.878906,0.58136
-0.875854,0.587463
-0.868225,0.585938
-0.866699,0.587463
-0.863647,0.585938
-0.863647,0.579834
-0.863647,0.593567
-0.868225,0.584412
-0.872803,0.588989
-0.881958,0.582886
-0.889587,0.578308
-0.898743,0.588989
-0.907898,0.585938
-0.920105,0.585938
-0.939941,0.58136
-0.952148,0.578308
-0.978088,0.590515
-0.996399,0.585938
-1.02081,0.587463
-1.04218,0.585938
-1.06354,0.585938
-1.08795,0.587463
-1.11389,0.585938
-1.13831,0.587463
-1.16425,0.584412
-1.18866,0.582886
-1.21613,0.588989
-1.23749,0.584412
-1.26343,0.585938
-1.29242,0.585938
-1.32141,0.58136
-1.35193,0.587463
-1.37939,0.585938
-1.41296,0.587463
-1.44348,0.584412
-1.474,0.58136
-1.50909,0.588989
-1.53961,0.587463
-1.57166,0.587463
-1.59302,0.584412
-1.62659,0.579834
-1.65863,0.588989
-1.6861,0.585938
-1.71509,0.587463
-1.74255,0.584412
-1.77002,0.58136
-1.79596,0.587463
-1.8219,0.585938
-1.84784,0.588989
-1.87531,0.584412
-1.89819,0.58136
-1.92413,0.585938
-1.94244,0.585938
-1.96838,0.582886
-1.98822,0.582886
-2.01263,0.579834
-2.034,0.587463
-2.05383,0.584412
-2.07825,0.585938
-2.09503,0.58136
-2.11334,0.576782
-2.13013,0.582886
-2.14691,0.584412
-2.16064,0.587463
-2.17438,0.584412
-2.18964,0.579834
-2.20337,0.584412
-2.2171,0.585938
-2.23694,0.584412
-2.24915,0.58136
-2.26746,0.582886
-2.28577,0.584412
-2.30255,0.585938
-2.31934,0.584412
-2.33917,0.58136
-2.35443,0.578308
-2.36816,0.585938
-2.38495,0.587463
-2.39868,0.587463
-2.40631,0.582886
-2.41699,0.579834
-2.42004,0.588989
-2.4231,0.590515
-2.41699,0.582886
-2.40173,0.58136
-2.37579,0.578308
-2.34833,0.585938
-2.30865,0.588989
-2.26135,0.590515
-2.20337,0.58136
-2.14081,0.579834
-2.06909,0.584412
-1.98975,0.587463
-1.9104,0.584412
-1.82648,0.579834
-1.73492,0.578308
-1.64642,0.585938
-1.55792,0.588989
-1.46332,0.585938
-1.36871,0.579834
-1.28021,0.578308
-1.18408,0.587463
-1.09406,0.585938
-1.01013,0.587463
-0.927734,0.576782
-0.849915,0.579834
-0.773621,0.585938
-0.708008,0.584412
-0.646973,0.587463
-0.592041,0.578308
-0.538635,0.576782
-0.498962,0.58136
-0.460815,0.584412
-0.428772,0.585938
-0.401306,0.578308
-0.384521,0.576782
-0.367737,0.582886
-0.364685,0.582886
-0.360107,0.588989
-0.361633,0.575256
-0.369263,0.579834
-0.376892,0.588989
-0.392151,0.584412
-0.408936,0.585938
-0.436401,0.576782
-0.45929,0.578308
-0.483704,0.579834
-0.508118,0.585938
-0.540161,0.585938
-0.572205,0.58136
-0.604248,0.579834
-0.637817,0.587463
-0.672913,0.587463
-0.71106,0.585938
-0.749207,0.578308
-0.787354,0.578308
-0.823975,0.585938
-0.862122,0.58136
-0.900269,0.588989
-0.932312,0.576782
-0.970459,0.575256
-0.996399,0.585938
-1.02386,0.585938
-1.05133,0.587463
-1.07117,0.578308
-1.08643,0.58136
-1.10474,0.585938
-1.11237,0.585938
-1.12152,0.585938
-1.12762,0.579834
-1.13373,0.578308
-1.13373,0.582886
-1.1322,0.585938
-1.1322,0.585938
-1.12,0.578308
-1.11694,0.576782
-1.10779,0.584412
-1.09558,0.584412
-1.08795,0.587463
-1.07422,0.575256
-1.06049,0.576782
-1.0498,0.585938
-1.03607,0.582886
-1.02081,0.587463
-1.01013,0.578308
-1.00098,0.58136
-0.991821,0.584412
-0.98114,0.582886
-0.976563,0.584412
-0.971985,0.578308
-0.973511,0.578308
-0.970459,0.585938
-0.971985,0.58136
-0.98114,0.587463
-0.982666,0.579834
-0.990295,0.579834
-0.999451,0.585938
-1.01013,0.584412
-1.02081,0.584412
-1.0376,0.576782
-1.05591,0.576782
-1.07269,0.584412
-1.09558,0.582886
-1.11542,0.587463
-1.13983,0.576782
-1.16119,0.578308
-1.18866,0.587463
-1.21155,0.585938
-1.24054,0.587463
-1.26648,0.576782
-1.29242,0.578308
-1.31989,0.582886
-1.34583,0.584412
-1.37329,0.587463
-1.40228,0.578308
-1.43127,0.578308
-1.46484,0.588989
-1.48773,0.582886
-1.51978,0.588989
-1.55029,0.576782
-1.57623,0.576782
-1.60675,0.584412
-1.63574,0.584412
-1.66321,0.588989
-1.68915,0.576782
-1.72119,0.572205
-1.74713,0.585938
-1.77612,0.582886
-1.80664,0.585938
-1.83105,0.575256
-1.85547,0.578308
-1.87988,0.584412
-1.90735,0.584412
-1.93176,0.582886
-1.95618,0.576782
-1.98059,0.57373
-2.005,0.584412
-2.03094,0.58136
-2.05078,0.587463
-2.07672,0.575256
-2.09961,0.579834
-2.12555,0.582886
-2.14691,0.582886
-2.17133,0.582886
-2.19269,0.57373
-2.21252,0.575256
-2.23083,0.585938
-2.24609,0.582886
-2.2644,0.584412
-2.28271,0.575256
-2.29797,0.575256
-2.31934,0.582886
-2.33917,0.579834
-2.35596,0.584412
-2.37122,0.576782
-2.39258,0.570679
-2.41241,0.579834
-2.42615,0.58136
-2.43988,0.58136
-2.46124,0.572205
-2.47498,0.575256
-2.49023,0.582886
-2.50549,0.579834
-2.5177,0.584412
-2.53143,0.575256
-2.54211,0.57373
-2.54974,0.582886
-2.5528,0.579834
-2.55585,0.582886
-2.54059,0.570679
-2.52533,0.570679
-2.50244,0.58136
-2.46887,0.58136
-2.42615,0.58136
-2.37579,0.57373
-2.31934,0.572205
-2.25677,0.578308
-2.19116,0.582886
-2.11029,0.584412
-2.03247,0.572205
-1.95007,0.570679
-1.86615,0.579834
-1.7746,0.58136
-1.67847,0.582886
-1.58691,0.572205
-1.49536,0.57373
-1.40381,0.578308
-1.31531,0.58136
-1.22681,0.58136
-1.14899,0.572205
-1.07117,0.575256
-0.999451,0.579834
-0.926208,0.579834
-0.862122,0.582886
-0.802612,0.572205
-0.749207,0.57373
-0.701904,0.582886
-0.657654,0.579834
-0.62561,0.58136
-0.598145,0.570679
-0.576782,0.572205
-0.566101,0.58136
-0.553894,0.579834
-0.549316,0.579834
-0.553894,0.570679
-0.558472,0.572205
-0.569153,0.575256
-0.585938,0.582886
-0.604248,0.575256
-0.624084,0.575256
-0.650024,0.572205
-0.674438,0.579834
-0.708008,0.58136
-0.735474,0.578308
-0.765991,0.57373
-0.798035,0.57373
-0.831604,0.576782
-0.869751,0.578308
-0.907898,0.579834
-0.944519,0.572205
-0.984192,0.572205
-1.02997,0.576782
-1.07269,0.579834
-1.11237,0.576782
-1.15356,0.572205
-1.19324,0.569153
-1.22528,0.576782
-1.2558,0.582886
-1.28479,0.572205
-1.30615,0.572205
-1.32904,0.570679
-1.34583,0.579834
-1.36108,0.578308
-1.37787,0.57373
-1.38092,0.569153
-1.38702,0.57373
-1.38855,0.578308
-1.38092,0.58136
-1.37177,0.576782
-1.36719,0.572205
-1.35651,0.570679
-1.34277,0.579834
-1.32751,0.579834
-1.31531,0.572205
-1.3031,0.567627
-1.28632,0.570679
-1.27106,0.578308
-1.25427,0.579834
-1.24512,0.575256
-1.22528,0.570679
-1.2146,0.572205
-1.20239,0.575256
-1.19171,0.575256
-1.1795,0.575256
-1.17188,0.569153
-1.17188,0.570679
-1.17035,0.578308
-1.1734,0.576782
-1.17645,0.57373
-1.18256,0.572205
-1.19019,0.572205
-1.20087,0.576782
-1.21765,0.575256
-1.22986,0.570679
-1.24817,0.57373
-1.2619,0.570679
-1.27869,0.578308
-1.29547,0.578308
-1.31683,0.570679
-1.33972,0.57373
-1.36108,0.57373
-1.38397,0.576782
-1.41144,0.576782
-1.43433,0.57373
-1.45721,0.572205
-1.48621,0.572205
-1.51062,0.576782
-1.53809,0.579834
-1.57013,0.570679
-1.59454,0.570679
-1.62811,0.572205
-1.65405,0.57373
-1.67847,0.578308
-1.70746,0.570679
-1.7334,0.569153
-1.76392,0.57373
-1.78986,0.57373
-1.81885,0.58136
-1.84174,0.572205
-1.87225,0.566101
-1.89819,0.572205
-1.92413,0.575256
-1.95465,0.58136
-1.98364,0.569153
-2.01569,0.566101
-2.0462,0.572205
-2.07367,0.576782
-2.10114,0.579834
-2.12097,0.566101
-2.14539,0.570679
-2.1759,0.572205
-2.19879,0.578308
-2.22015,0.578308
-2.24609,0.567627
-2.27051,0.563049
-2.2934,0.569153
-2.31781,0.572205
-2.33459,0.578308
-2.35596,0.569153
-2.37732,0.567627
-2.40173,0.570679
-2.42157,0.57373
-2.44446,0.578308
-2.46582,0.566101
-2.48718,0.567627
-2.50397,0.570679
-2.52838,0.57373
-2.54822,0.579834
-2.56653,0.567627
-2.58484,0.567627
-2.59705,0.570679
-2.6123,0.575256
-2.62909,0.578308
-2.64893,0.566101
-2.66418,0.569153
-2.68402,0.569153
-2.69928,0.575256
-2.71149,0.578308
-2.72369,0.566101
-2.73132,0.570679
-2.73743,0.570679
-2.7298,0.575256
-2.72064,0.578308
-2.70233,0.570679
-2.67639,0.567627
-2.63824,0.567627
-2.59705,0.57373
-2.53906,0.58136
-2.47498,0.567627
-2.40326,0.569153
-2.33002,0.569153
-2.24762,0.575256
-2.1637,0.576782
-2.06757,0.569153
-1.97144,0.567627
-1.87683,0.567627
-1.77765,0.570679
-1.67999,0.58136
-1.57776,0.569153
-1.48163,0.569153
-1.38245,0.567627
-1.29242,0.575256
-1.19781,0.578308
-1.10779,0.567627
-1.03302,0.569153
-0.964355,0.567627
-0.900269,0.57373
-0.836182,0.579834
-0.776672,0.566101
-0.726318,0.567627
-0.679016,0.563049
-0.643921,0.572205
-0.613403,0.582886
-0.588989,0.567627
-0.567627,0.566101
-0.55542,0.566101
-0.547791,0.57373
-0.544739,0.576782
-0.549316,0.569153
-0.559998,0.566101
-0.572205,0.567627
-0.590515,0.57373
-0.608826,0.578308
-0.630188,0.567627
-0.650024,0.569153
-0.67749,0.563049
-0.706482,0.572205
-0.735474,0.576782
-0.769043,0.569153
-0.801086,0.566101
-0.834656,0.563049
-0.871277,0.572205
-0.906372,0.578308
-0.942993,0.567627
-0.98114,0.569153
-1.01929,0.566101
-1.05133,0.570679
-1.091,0.578308
-1.12915,0.563049
-1.1673,0.566101
-1.19934,0.563049
-1.22986,0.569153
-1.26038,0.579834
-1.28784,0.567627
-1.31226,0.570679
-1.33209,0.563049
-1.3504,0.569153
-1.36719,0.576782
-1.37787,0.569153
-1.38245,0.567627
-1.38855,0.566101
-1.38702,0.567627
-1.3855,0.578308
-1.38092,0.567627
-1.37177,0.563049
-1.36261,0.566101
-1.35193,0.572205
-1.33972,0.58136
-1.32446,0.567627
-1.30615,0.563049
-1.297,0.563049
-1.28021,0.572205
-1.26648,0.578308
-1.25885,0.563049
-1.24817,0.563049
-1.24359,0.563049
-1.23749,0.572205
-1.23138,0.58136
-1.22986,0.567627
-1.22833,0.561523
-1.23138,0.563049
-1.23444,0.57373
-1.24054,0.576782
-1.25122,0.563049
-1.2558,0.566101
-1.26648,0.561523
-1.28174,0.572205
-1.29547,0.578308
-1.30463,0.566101
-1.32294,0.561523
-1.33667,0.561523
-1.35803,0.570679
-1.37329,0.575256
-1.39771,0.566101
-1.41754,0.566101
-1.44348,0.561523
-1.4679,0.569153
-1.49536,0.576782
-1.52588,0.567627
-1.55334,0.57373
-1.58386,0.561523
-1.61285,0.569153
-1.64032,0.575256
-1.66779,0.567627
-1.70135,0.567627
-1.72729,0.566101
-1.75781,0.570679
-1.78986,0.578308
-1.81885,0.566101
-1.84784,0.566101
-1.87531,0.563049
-1.90735,0.569153
-1.93481,0.575256
-1.96533,0.567627
-1.9928,0.567627
-2.02332,0.566101
-2.04773,0.570679
-2.07672,0.578308
-2.10419,0.567627
-2.13013,0.563049
-2.15912,0.563049
-2.18353,0.569153
-2.20947,0.579834
-2.23236,0.566101
-2.2583,0.567627
-2.28729,0.559998
-2.30865,0.570679
-2.32697,0.572205
-2.3468,0.569153
-2.36664,0.561523
-2.39105,0.561523
-2.40936,0.570679
-2.42767,0.576782
-2.44293,0.559998
-2.46124,0.561523
-2.48108,0.558472
-2.49786,0.572205
-2.51465,0.576782
-2.53448,0.566101
-2.55432,0.563049
-2.57568,0.561523
-2.59247,0.569153
-2.60773,0.57373
-2.62756,0.563049
-2.64587,0.566101
-2.66266,0.559998
-2.67944,0.567627
-2.69775,0.57373
-2.71759,0.563049
-2.73285,0.567627
-2.75269,0.561523
-2.76794,0.567627
-2.77863,0.57373
-2.78931,0.561523
-2.79388,0.561523
-2.79999,0.563049
-2.79694,0.569153
-2.78778,0.57373
-2.77252,0.561523
-2.742,0.570679
-2.70844,0.558472
-2.66418,0.569153
-2.61078,0.572205
-2.55127,0.561523
-2.48718,0.567627
-2.41699,0.558472
-2.33307,0.569153
-2.24609,0.57373
-2.15759,0.563049
-2.05994,0.566101
-1.96686,0.563049
-1.86768,0.572205
-1.77307,0.57373
-1.67236,0.561523
-1.57471,0.567627
-1.474,0.566101
-1.38092,0.569153
-1.28937,0.572205
-1.20239,0.559998
-1.12152,0.566101
-1.04828,0.561523
-0.982666,0.569153
-0.917053,0.572205
-0.862122,0.559998
-0.810242,0.566101
-0.769043,0.561523
-0.733948,0.569153
-0.704956,0.575256
-0.679016,0.563049
-0.65918,0.566101
-0.642395,0.563049
-0.636292,0.569153
-0.631714,0.576782
-0.634766,0.563049
-0.63324,0.566101
-0.645447,0.561523
-0.65918,0.569153
-0.674438,0.570679
-0.700378,0.569153
-0.720215,0.566101
-0.743103,0.561523
-0.772095,0.572205
-0.799561,0.572205
-0.831604,0.559998
-0.85907,0.563049
-0.895691,0.563049
-0.933838,0.570679
-0.968933,0.569153
-1.00708,0.567627
-1.04218,0.563049
-1.08185,0.559998
-1.12,0.570679
-1.15509,0.570679
-1.19171,0.567627
-1.22986,0.559998
-1.25732,0.561523
-1.28632,0.572205
-1.3092,0.569153
-1.33057,0.563049
-1.34888,0.563049
-1.36261,0.561523
-1.37787,0.57373
-1.39313,0.569153
-1.39771,0.561523
-1.40228,0.563049
-1.40839,0.558472
-1.40686,0.57373
-1.40839,0.567627
-1.39771,0.566101
-1.39465,0.561523
-1.3855,0.558472
-1.37482,0.572205
-1.36414,0.572205
-1.35193,0.567627
-1.3382,0.559998
-1.32599,0.566101
-1.31073,0.57373
-1.29852,0.57373
-1.28632,0.566101
-1.27411,0.559998
-1.26495,0.563049
-1.2619,0.572205
-1.25732,0.569153
-1.25122,0.566101
-1.24969,0.563049
-1.24359,0.563049
-1.24664,0.572205
-1.24817,0.570679
-1.24969,0.567627
-1.26038,0.563049
-1.26953,0.561523
-1.28479,0.572205
-1.30005,0.570679
-1.31683,0.563049
-1.33514,0.561523
-1.36108,0.563049
-1.38092,0.570679
-1.40381,0.570679
-1.42212,0.569153
-1.44348,0.561523
-1.46942,0.559998
-1.49536,0.575256
-1.5213,0.567627
-1.54877,0.567627
-1.57623,0.563049
-1.6037,0.556946
-1.63422,0.57373
-1.66168,0.570679
-1.6922,0.566101
-1.72272,0.563049
-1.75476,0.558472
-1.78986,0.57373
-1.8158,0.570679
-1.84326,0.566101
-1.87988,0.566101
-1.90735,0.561523
-1.93939,0.572205
-1.96686,0.567627
-2.00043,0.563049
-2.03247,0.566101
-2.05688,0.559998
-2.08588,0.575256
-2.11487,0.570679
-2.14233,0.566101
-2.16827,0.563049
-2.19421,0.561523
-2.22168,0.57373
-2.24457,0.567627
-2.27203,0.567627
-2.29187,0.561523
-2.31628,0.559998
-2.3407,0.572205
-2.36206,0.570679
-2.38495,0.561523
-2.40631,0.566101
-2.42615,0.558472
-2.45361,0.57373
-2.47498,0.569153
-2.49939,0.563049
-2.5177,0.566101
-2.53754,0.561523
-2.56195,0.575256
-2.58331,0.569153
-2.60162,0.567627
-2.62146,0.561523
-2.64435,0.558472
-2.66418,0.575256
-2.68707,0.566101
-2.70538,0.569153
-2.7298,0.561523
-2.74811,0.563049
-2.77252,0.57373
-2.79694,0.563049
-2.81677,0.566101
-2.83966,0.556946
-2.8595,0.559998
-2.87628,0.572205
-2.89307,0.567627
-2.90833,0.566101
-2.92511,0.558472
-2.93427,0.566101
-2.94037,0.572205
-2.94189,0.566101
-2.94037,0.563049
-2.92664,0.561523
-2.90985,0.561523
-2.87781,0.572205
-2.84271,0.567627
-2.79694,0.561523
-2.742,0.559998
-2.68707,0.561523
-2.61993,0.570679
-2.54822,0.566101
-2.4704,0.563049
-2.38647,0.563049
-2.30103,0.558472
-2.211,0.570679
-2.12097,0.569153
-2.02637,0.563049
-1.93329,0.556946
-1.83868,0.558472
-1.74713,0.570679
-1.65405,0.567627
-1.57166,0.566101
-1.48468,0.559998
-1.40533,0.556946
-1.33667,0.570679
-1.26343,0.566101
-1.20239,0.563049
-1.14594,0.561523
-1.09558,0.558472
-1.04828,0.567627
-1.00861,0.569153
-0.976563,0.563049
-0.944519,0.561523
-0.924683,0.559998
-0.909424,0.567627
-0.900269,0.567627
-0.892639,0.563049
-0.891113,0.556946
-0.897217,0.556946
-0.904846,0.569153
-0.917053,0.567627
-0.935364,0.559998
-0.9552,0.558472
-0.978088,0.556946
-1.00403,0.569153
-1.02844,0.569153
-1.06049,0.563049
-1.10168,0.559998
-1.13678,0.558472
-1.18103,0.567627
-1.2207,0.566101
-1.2619,0.563049
-1.30615,0.558472
-1.35193,0.558472
-1.39771,0.567627
-1.44043,0.566101
-1.48315,0.563049
-1.52283,0.556946
-1.56097,0.55542
-1.59302,0.563049
-1.62659,0.561523
-1.65405,0.561523
-1.67542,0.556946
-1.69678,0.558472
-1.72119,0.566101
-1.73645,0.563049
-1.74408,0.567627
-1.75476,0.55542
-1.75781,0.553894
-1.76392,0.563049
-1.76086,0.566101
-1.76239,0.566101
-1.75934,0.556946
-1.75018,0.556946
-1.74255,0.566101
-1.72882,0.566101
-1.71814,0.561523
-1.70135,0.556946
-1.68915,0.558472
-1.67694,0.567627
-1.66626,0.563049
-1.6571,0.559998
-1.64337,0.556946
-1.63422,0.55542
-1.62354,0.563049
-1.61133,0.566101
-1.60675,0.563049
-1.6037,0.55542
-1.6037,0.558472
-1.60065,0.567627
-1.6037,0.563049
-1.61133,0.563049
-1.61285,0.558472
-1.62506,0.556946
-1.63422,0.563049
-1.64642,0.563049
-1.66473,0.567627
-1.67847,0.558472
-1.69525,0.558472
-1.71051,0.569153
-1.72882,0.567627
-1.74713,0.563049
-1.76697,0.561523
-1.78986,0.556946
-1.81122,0.563049
-1.84021,0.561523
-1.86157,0.561523
-1.88751,0.559998
-1.9165,0.558472
-1.94397,0.563049
-1.97296,0.563049
-2.00806,0.567627
-2.03857,0.556946
-2.06909,0.553894
-2.10114,0.563049
-2.13013,0.561523
-2.16522,0.570679
-2.19574,0.55542
-2.22931,0.556946
-2.26288,0.566101
-2.2934,0.567627
-2.32239,0.563049
-2.35138,0.556946
-2.38037,0.553894
-2.40479,0.561523
-2.4353,0.563049
-2.46735,0.567627
-2.49176,0.558472
-2.52075,0.553894
-2.54974,0.561523
-2.58179,0.561523
-2.60773,0.570679
-2.63977,0.55542
-2.66571,0.55542
-2.69012,0.566101
-2.71301,0.561523
-2.73895,0.563049
-2.76642,0.553894
-2.78931,0.55542
-2.81219,0.559998
-2.83356,0.563049
-2.86102,0.566101
-2.88239,0.553894
-2.9068,0.550842
-2.92664,0.558472
-2.94952,0.558472
-2.96936,0.561523
-2.98462,0.55542
-2.99835,0.556946
-3.01971,0.561523
-3.03955,0.563049
-3.05481,0.566101
-3.07617,0.552368
-3.09753,0.558472
-3.11432,0.559998
-3.1311,0.561523
-3.14789,0.566101
-3.16162,0.55542
-3.17993,0.55542
-3.20129,0.559998
-3.21503,0.558472
-3.23029,0.566101
-3.25012,0.558472
-3.26538,0.556946
-3.28217,0.559998
-3.2959,0.566101
-3.31421,0.566101
-3.33099,0.55542
-3.34473,0.553894
-3.35541,0.558472
-3.35846,0.561523
-3.35541,0.563049
-3.35083,0.55542
-3.32947,0.553894
-3.30811,0.563049
-3.27606,0.563049
-3.24249,0.566101
-3.19519,0.556946
-3.14636,0.558472
-3.09296,0.561523
-3.03192,0.559998
-2.96478,0.566101
-2.89459,0.559998
-2.82135,0.55542
-2.742,0.558472
-2.66113,0.558472
-2.57721,0.559998
-2.49939,0.55542
-2.41547,0.55542
-2.33612,0.558472
-2.26288,0.558472
-2.18811,0.563049
-2.11334,0.55542
-2.0401,0.55542
-1.97754,0.558472
-1.91803,0.561523
-1.8631,0.563049
-1.80664,0.553894
-1.76086,0.556946
-1.72272,0.556946
-1.68304,0.559998
-1.6571,0.558472
-1.63269,0.556946
-1.61133,0.55542
-1.60065,0.558472
-1.59149,0.561523
-1.58691,0.559998
-1.58844,0.556946
-1.59454,0.553894
-1.60217,0.558472
-1.61743,0.559998
-1.62964,0.559998
-1.64642,0.553894
-1.67084,0.552368
-1.6983,0.558472
-1.72424,0.558472
-1.75476,0.559998
-1.78375,0.55542
-1.81427,0.552368
-1.85089,0.558472
-1.88599,0.556946
-1.92261,0.558472
-1.95313,0.55542
-1.99127,0.549316
-2.02484,0.556946
-2.06451,0.559998
-2.10114,0.556946
-2.13623,0.553894
-2.1698,0.550842
-2.19879,0.559998
-2.22626,0.556946
-2.25067,0.561523
-2.27814,0.558472
-2.2995,0.547791
-2.31934,0.55542
-2.32849,0.55542
-2.34375,0.558472
-2.34833,0.558472
-2.35291,0.553894
-2.3468,0.556946
-2.34222,0.556946
-2.33917,0.561523
-2.33459,0.556946
-2.33002,0.552368
-2.31934,0.55542
-2.31323,0.55542
-2.30103,0.556946
-2.29034,0.558472
-2.27356,0.549316
-2.26288,0.559998
-2.24915,0.55542
-2.23846,0.556946
-2.22626,0.556946
-2.21252,0.552368
-2.19574,0.556946
-2.18811,0.55542
-2.18048,0.556946
-2.17743,0.559998
-2.17133,0.553894
-2.16827,0.556946
-2.16522,0.55542
-2.1698,0.556946
-2.1698,0.556946
-2.1698,0.547791
-2.1698,0.55542
-2.17896,0.553894
-2.18658,0.553894
-2.19879,0.553894
-2.20795,0.553894
-2.22015,0.55542
-2.23236,0.55542
-2.24762,0.558472
-2.26593,0.550842
-2.28577,0.549316
-2.3056,0.553894
-2.33002,0.553894
-2.35443,0.553894
-2.37885,0.553894
-2.40631,0.552368
-2.4353,0.552368
-2.46277,0.55542
-2.49176,0.55542
-2.51465,0.553894
-2.54364,0.550842
-2.56805,0.552368
-2.59705,0.553894
-2.62299,0.55542
-2.6535,0.550842
-2.68097,0.552368
-2.70996,0.550842
-2.7359,0.553894
-2.76489,0.556946
-2.79083,0.547791
-2.81677,0.549316
-2.84576,0.55542
-2.87323,0.550842
-2.90375,0.558472
-2.92969,0.549316
-2.9541,0.550842
-2.97852,0.552368
-3.00293,0.552368
-3.02887,0.556946
-3.05481,0.549316
-3.0838,0.550842
-3.10669,0.552368
-3.12805,0.553894
-3.15399,0.556946
-3.17688,0.550842
-3.20435,0.550842
-3.22113,0.553894
-3.24249,0.546265
-3.25928,0.553894
-3.27911,0.549316
-3.29132,0.546265
-3.31421,0.553894
-3.33405,0.550842
-3.35083,0.552368
-3.36456,0.552368
-3.38287,0.549316
-3.39661,0.552368
-3.41339,0.553894
-3.43018,0.552368
-3.44696,0.549316
-3.46375,0.549316
-3.47748,0.553894
-3.49121,0.552368
-3.508,0.55542
-3.5202,0.547791
-3.53699,0.550842
-3.55835,0.550842
-3.57056,0.550842
-3.58734,0.553894
-3.59955,0.549316
-3.61786,0.549316
-3.62396,0.550842
-3.63312,0.552368
-3.63464,0.553894
-3.62854,0.549316
-3.61938,0.549316
-3.60107,0.550842
-3.57971,0.550842
-3.55072,0.558472
-3.51563,0.549316
-3.4668,0.550842
-3.41644,0.55542
-3.35693,0.549316
-3.2959,0.553894
-3.22876,0.549316
-3.15704,0.544739
-3.08075,0.550842
-3.00293,0.553894
-2.91901,0.55542
-2.83813,0.550842
-2.75574,0.549316
-2.67181,0.550842
-2.58789,0.552368
-2.50092,0.552368
-2.42157,0.547791
-2.33917,0.546265
-2.2583,0.549316
-2.18811,0.553894
-2.11334,0.556946
-2.04773,0.544739
-1.98669,0.547791
-1.93176,0.552368
-1.87836,0.549316
-1.83411,0.552368
-1.79138,0.549316
-1.76239,0.546265
-1.72729,0.549316
-1.70288,0.550842
-1.6861,0.552368
-1.67389,0.547791
-1.66779,0.549316
-1.66473,0.550842
-1.66931,0.552368
-1.67542,0.552368
-1.68304,0.547791
-1.69678,0.547791
-1.71356,0.550842
-1.73492,0.552368
-1.75934,0.553894
-1.78223,0.544739
-1.80817,0.547791
-1.83716,0.546265
-1.8692,0.550842
-1.9043,0.549316
-1.94092,0.546265
-1.97754,0.547791
-2.00806,0.549316
-2.04315,0.552368
-2.07825,0.552368
-2.11639,0.546265
-2.14996,0.546265
-2.18506,0.547791
-2.2171,0.552368
-2.24915,0.553894
-2.27966,0.546265
-2.30713,0.544739
-2.32697,0.549316
-2.35138,0.552368
-2.36816,0.552368
-2.38037,0.547791
-2.39105,0.544739
-2.39258,0.546265
-2.39563,0.553894
-2.40021,0.552368
-2.3941,0.546265
-2.39716,0.547791
-2.39105,0.549316
-2.38495,0.552368
-2.37732,0.55542
-2.36969,0.549316
-2.36359,0.543213
-2.35291,0.547791
-2.33917,0.552368
-2.32544,0.550842
-2.31628,0.547791
-2.3056,0.547791
-2.2934,0.546265
-2.28729,0.553894
-2.27966,0.550842
-2.27203,0.549316
-2.2644,0.541687
-2.25983,0.543213
-2.25525,0.552368
-2.25525,0.550842
-2.2522,0.547791
-2.25372,0.546265
-2.2583,0.544739
-2.2644,0.552368
-2.27051,0.549316
-2.27661,0.544739
-2.27966,0.546265
-2.28882,0.547791
-2.3056,0.552368
-2.31628,0.549316
-2.33154,0.546265
-2.34985,0.547791
-2.36969,0.547791
-2.38953,0.553894
-2.41089,0.549316
-2.4292,0.547791
-2.45056,0.546265
-2.47192,0.546265
-2.49481,0.553894
-2.5177,0.550842
-2.54059,0.546265
-2.56653,0.549316
-2.59094,0.546265
-2.61688,0.552368
-2.6413,0.552368
-2.66571,0.543213
-2.69165,0.543213
-2.71759,0.546265
-2.742,0.553894
-2.76794,0.552368
-2.79083,0.544739
-2.81372,0.544739
-2.83813,0.546265
-2.86102,0.552368
-2.88696,0.547791
-2.9129,0.549316
-2.93732,0.541687
-2.96478,0.549316
-2.98462,0.552368
-3.00903,0.553894
-3.0365,0.544739
-3.06244,0.544739
-3.08228,0.546265
-3.10364,0.550842
-3.125,0.550842
-3.14789,0.547791
-3.16925,0.544739
-3.18756,0.544739
-3.21808,0.550842
-3.24097,0.550842
-3.2608,0.543213
-3.28217,0.546265
-3.29742,0.546265
-3.31726,0.550842
-3.3371,0.549316
-3.35846,0.543213
-3.37524,0.546265
-3.39508,0.541687
-3.41644,0.547791
-3.43475,0.547791
-3.45612,0.547791
-3.47748,0.544739
-3.48969,0.546265
-3.51257,0.550842
-3.53241,0.549316
-3.54919,0.547791
-3.56903,0.546265
-3.58582,0.544739
-3.60107,0.550842
-3.61786,0.546265
-3.63159,0.546265
-3.6438,0.544739
-3.65753,0.543213
-3.66364,0.549316
-3.66974,0.550842
-3.66669,0.541687
-3.66364,0.544739
-3.64838,0.543213
-3.62396,0.556946
-3.59344,0.552368
-3.55682,0.546265
-3.51257,0.546265
-3.45917,0.544739
-3.39966,0.552368
-3.33405,0.550842
-3.26843,0.541687
-3.19214,0.544739
-3.11432,0.541687
-3.0304,0.552368
-2.94495,0.549316
-2.85645,0.541687
-2.76489,0.541687
-2.67487,0.544739
-2.58331,0.553894
-2.49176,0.549316
-2.39563,0.544739
-2.30865,0.544739
-2.22168,0.543213
-2.13928,0.553894
-2.05688,0.549316
-1.98517,0.541687
-1.91345,0.543213
-1.85089,0.544739
-1.79291,0.547791
-1.73645,0.552368
-1.68762,0.541687
-1.64642,0.543213
-1.61133,0.543213
-1.58539,0.553894
-1.5625,0.550842
-1.53961,0.538635
-1.5274,0.543213
-1.51672,0.543213
-1.51062,0.546265
-1.50757,0.547791
-1.50452,0.544739
-1.50909,0.541687
-1.51825,0.543213
-1.52893,0.547791
-1.54266,0.549316
-1.5564,0.538635
-1.57471,0.543213
-1.59607,0.546265
-1.62506,0.550842
-1.64948,0.549316
-1.67847,0.541687
-1.70593,0.541687
-1.7334,0.543213
-1.76239,0.552368
-1.7868,0.547791
-1.8158,0.541687
-1.85089,0.544739
-1.88599,0.543213
-1.91498,0.553894
-1.94397,0.547791
-1.97296,0.541687
-1.99585,0.541687
-2.02026,0.544739
-2.0401,0.549316
-2.05078,0.549316
-2.06604,0.543213
-2.0752,0.544739
-2.08435,0.541687
-2.0874,0.549316
-2.09045,0.550842
-2.09045,0.541687
-2.08893,0.540161
-2.08435,0.541687
-2.07825,0.552368
-2.07062,0.552368
-2.05688,0.540161
-2.05078,0.543213
-2.04163,0.544739
-2.02789,0.550842
-2.01874,0.550842
-2.00653,0.543213
-1.9928,0.546265
-1.97906,0.544739
-1.96533,0.550842
-1.9577,0.549316
-1.94244,0.543213
-1.93329,0.541687
-1.92871,0.546265
-1.91956,0.549316
-1.91956,0.549316
-1.91345,0.544739
-1.91193,0.543213
-1.91193,0.541687
-1.91345,0.547791
-1.9165,0.55542
-1.92108,0.541687
-1.93176,0.541687
-1.94397,0.543213
-1.9577,0.547791
-1.96991,0.553894
-1.98669,0.543213
-2.005,0.546265
-2.02179,0.541687
-2.03857,0.553894
-2.06451,0.549316
-2.08588,0.543213
-2.11029,0.543213
-2.1286,0.546265
-2.15454,0.550842
-2.17743,0.550842
-2.20184,0.541687
-2.22626,0.544739
-2.25525,0.544739
-2.28119,0.552368
-2.30713,0.552368
-2.33154,0.541687
-2.36053,0.541687
-2.38647,0.540161
-2.41394,0.550842
-2.44293,0.550842
-2.46735,0.541687
-2.49023,0.541687
-2.51923,0.544739
-2.54364,0.550842
-2.57111,0.550842
-2.59705,0.543213
-2.62604,0.541687
-2.65198,0.544739
-2.67944,0.550842
-2.70233,0.549316
-2.7298,0.541687
-2.75726,0.540161
-2.78168,0.541687
-2.80609,0.550842
-2.82745,0.552368
-2.85187,0.541687
-2.87476,0.538635
-2.89307,0.544739
-2.91138,0.549316
-2.93121,0.547791
-2.948,0.543213
-2.97394,0.540161
-2.9953,0.543213
-3.01514,0.549316
-3.03497,0.549316
-3.04718,0.544739
-3.06854,0.540161
-3.08533,0.541687
-3.10516,0.549316
-3.11432,0.546265
-3.1311,0.544739
-3.14941,0.544739
-3.16467,0.546265
-3.18298,0.547791
-3.19519,0.549316
-3.21198,0.543213
-3.22876,0.541687
-3.25012,0.549316
-3.26538,0.549316
-3.28064,0.547791
-3.29437,0.544739
-3.31116,0.541687
-3.32489,0.544739
-3.33862,0.549316
-3.35236,0.544739
-3.36304,0.543213
-3.37219,0.541687
-3.3783,0.546265
-3.38135,0.550842
-3.37372,0.546265
-3.36151,0.544739
-3.34167,0.541687
-3.31573,0.543213
-3.28064,0.546265
-3.23792,0.546265
-3.18604,0.544739
-3.12653,0.540161
-3.07007,0.544739
-3.00293,0.549316
-2.94037,0.546265
-2.86713,0.543213
-2.79388,0.540161
-2.71149,0.546265
-2.62756,0.552368
-2.54669,0.544739
-2.46124,0.544739
-2.37732,0.538635
-2.29187,0.547791
-2.21405,0.546265
-2.13318,0.544739
-2.05536,0.546265
-1.98212,0.538635
-1.91498,0.547791
-1.85089,0.547791
-1.78375,0.547791
-1.72729,0.544739
-1.67236,0.540161
-1.62659,0.549316
-1.58539,0.547791
-1.54877,0.546265
-1.51672,0.546265
-1.49231,0.537109
-1.474,0.547791
-1.46027,0.547791
-1.45111,0.546265
-1.44196,0.544739
-1.44043,0.535583
-1.44043,0.546265
-1.44653,0.547791
-1.45416,0.544739
-1.46942,0.546265
-1.48315,0.535583
-1.50146,0.547791
-1.5213,0.549316
-1.53961,0.541687
-1.5686,0.543213
-1.59149,0.538635
-1.62048,0.546265
-1.64795,0.549316
-1.67694,0.544739
-1.70288,0.546265
-1.73187,0.537109
-1.76697,0.549316
-1.79901,0.552368
-1.828,0.541687
-1.86157,0.544739
-1.88904,0.538635
-1.91803,0.547791
-1.94397,0.553894
-1.96991,0.547791
-1.98822,0.541687
-2.00653,0.537109
-2.02026,0.547791
-2.03857,0.550842
-2.04773,0.541687
-2.05841,0.540161
-2.06757,0.538635
-2.0752,0.547791
-2.07672,0.547791
-2.07825,0.543213
-2.07825,0.543213
-2.0752,0.537109
-2.07062,0.544739
-2.05841,0.549316
-2.05078,0.544739
-2.03705,0.544739
-2.03247,0.537109
-2.01874,0.544739
-2.00958,0.549316
-1.99738,0.547791
-1.98822,0.541687
-1.97449,0.535583
-1.96381,0.544739
-1.95313,0.543213
-1.94244,0.546265
-1.93481,0.546265
-1.93024,0.537109
-1.92719,0.544739
-1.92261,0.546265
-1.92261,0.544739
-1.92261,0.541687
-1.92261,0.534058
-1.93176,0.546265
-1.93787,0.546265
-1.94397,0.544739
-1.95618,0.543213
-1.96838,0.535583
-1.98212,0.544739
-1.99738,0.550842
-2.01263,0.543213
-2.03094,0.543213
-2.05231,0.535583
-2.07825,0.543213
-2.09961,0.544739
-2.11945,0.547791
-2.14539,0.544739
-2.16827,0.535583
-2.19116,0.544739
-2.21863,0.549316
-2.24609,0.544739
-2.26746,0.543213
-2.29645,0.534058
-2.32239,0.543213
-2.34985,0.549316
-2.38037,0.544739
-2.41089,0.541687
-2.43835,0.532532
-2.46735,0.541687
-2.49481,0.547791
-2.52838,0.544739
-2.5589,0.546265
-2.58636,0.534058
-2.61688,0.544739
-2.64435,0.550842
-2.67029,0.541687
-2.6947,0.544739
-2.72369,0.534058
-2.74353,0.543213
-2.76337,0.547791
-2.78778,0.547791
-2.81067,0.543213
-2.83508,0.534058
-2.85645,0.546265
-2.87628,0.544739
-2.90222,0.547791
-2.92053,0.543213
-2.94342,0.532532
-2.96326,0.544739
-2.98004,0.544739
-3.00446,0.546265
-3.02429,0.546265
-3.04413,0.534058
-3.05939,0.543213
-3.0777,0.543213
-3.09143,0.547791
-3.10822,0.543213
-3.12653,0.534058
-3.14484,0.541687
-3.15857,0.544739
-3.17383,0.544739
-3.18909,0.544739
-3.20282,0.535583
-3.22571,0.543213
-3.24707,0.544739
-3.26233,0.543213
-3.27911,0.543213
-3.2959,0.52948
-3.30811,0.544739
-3.32794,0.544739
-3.3493,0.544739
-3.36304,0.543213
-3.38593,0.532532
-3.39966,0.543213
-3.41339,0.544739
-3.42255,0.543213
-3.4317,0.540161
-3.43323,0.52948
-3.42407,0.543213
-3.41187,0.546265
-3.39355,0.546265
-3.36609,0.540161
-3.33252,0.527954
-3.29437,0.544739
-3.24554,0.546265
-3.19061,0.541687
-3.13721,0.538635
-3.07007,0.52948
-3.0014,0.541687
-2.93427,0.541687
-2.8595,0.546265
-2.78931,0.538635
-2.70996,0.52948
-2.63519,0.544739
-2.55585,0.543213
-2.47498,0.543213
-2.39716,0.540161
-2.32086,0.534058
-2.24915,0.540161
-2.17743,0.546265
-2.10876,0.543213
-2.0462,0.540161
-1.98517,0.535583
-1.93024,0.541687
-1.87836,0.543213
-1.83105,0.543213
-1.7868,0.541687
-1.74561,0.532532
-1.71051,0.543213
-1.68152,0.546265
-1.6571,0.544739
-1.63269,0.540161
-1.61743,0.52948
-1.6037,0.541687
-1.5976,0.547791
-1.60065,0.546265
-1.59912,0.541687
-1.60675,0.532532
-1.62048,0.540161
-1.63574,0.544739
-1.65405,0.543213
-1.67236,0.540161
-1.69678,0.532532
-1.72272,0.541687
-1.75018,0.540161
-1.7746,0.540161
-1.79749,0.541687
-1.828,0.52948
-1.86157,0.543213
-1.89514,0.541687
-1.93024,0.543213
-1.96228,0.540161
-1.9989,0.532532
-2.03094,0.543213
-2.06451,0.543213
-2.09351,0.543213
-2.1225,0.540161
-2.14996,0.534058
-2.1698,0.540161
-2.19116,0.543213
-2.20184,0.543213
-2.21405,0.541687
-2.22473,0.527954
-2.22931,0.541687
-2.22931,0.543213
-2.23694,0.540161
-2.23236,0.540161
-2.23236,0.532532
-2.22626,0.541687
-2.21863,0.543213
-2.211,0.540161
-2.20795,0.538635
-2.19116,0.534058
-2.18048,0.541687
-2.17285,0.541687
-2.1637,0.540161
-2.14691,0.535583
-2.13776,0.534058
-2.12708,0.543213
-2.11945,0.540161
-2.11182,0.541687
-2.09656,0.541687
-2.08893,0.527954
-2.07977,0.540161
-2.07214,0.540161
-2.07367,0.541687
-2.06604,0.538635
-2.06909,0.52948
-2.06604,0.540161
-2.06451,0.540161
-2.06757,0.538635
-2.06909,0.538635
-2.0752,0.534058
-2.08282,0.544739
-2.09198,0.541687
-2.10571,0.538635
-2.11945,0.541687
-2.1347,0.532532
-2.14233,0.541687
-2.16064,0.540161
-2.18201,0.540161
-2.19879,0.535583
-2.22168,0.532532
-2.23999,0.541687
-2.2644,0.538635
-2.28729,0.540161
-2.31323,0.537109
-2.33612,0.52948
-2.36359,0.540161
-2.388,0.541687
-2.41241,0.540161
-2.43683,0.535583
-2.46124,0.532532
-2.48566,0.541687
-2.5116,0.538635
-2.53448,0.538635
-2.55737,0.534058
-2.58636,0.532532
-2.60773,0.538635
-2.63062,0.541687
-2.65656,0.537109
-2.68097,0.532532
-2.70538,0.534058
-2.72827,0.540161
-2.75726,0.543213
-2.78015,0.540161
-2.80914,0.532532
-2.83051,0.532532
-2.85492,0.541687
-2.88086,0.538635
-2.90527,0.538635
-2.92969,0.527954
-2.95258,0.52948
-2.97394,0.538635
-2.9953,0.540161
-3.01666,0.537109
-3.03345,0.532532
-3.05023,0.52948
-3.06854,0.537109
-3.08838,0.538635
-3.10669,0.537109
-3.12195,0.532532
-3.14331,0.52948
-3.15704,0.537109
-3.17383,0.538635
-3.19061,0.537109
-3.20282,0.534058
-3.2196,0.534058
-3.23792,0.535583
-3.2547,0.541687
-3.27148,0.535583
-3.29132,0.52948
-3.30505,0.52948
-3.32184,0.535583
-3.34015,0.540161
-3.35541,0.538635
-3.36761,0.532532
-3.3844,0.534058
-3.39508,0.535583
-3.40118,0.537109
-3.40729,0.537109
-3.40881,0.526428
-3.40118,0.532532
-3.39508,0.534058
-3.3783,0.538635
-3.35083,0.535583
-3.32336,0.527954
-3.28522,0.527954
-3.24249,0.52948
-3.18604,0.535583
-3.12805,0.537109
-3.06702,0.52948
-2.99072,0.532532
-2.91443,0.535583
-2.83966,0.538635
-2.76031,0.537109
-2.67944,0.526428
-2.59705,0.532532
-2.5116,0.534058
-2.42767,0.534058
-2.34375,0.540161
-2.2583,0.527954
-2.17438,0.52948
-2.09351,0.537109
-2.01874,0.538635
-1.94092,0.537109
-1.87073,0.524902
-1.80359,0.527954
-1.74103,0.532532
-1.68304,0.537109
-1.62811,0.535583
-1.57623,0.526428
-1.53351,0.527954
-1.49231,0.532532
-1.45264,0.535583
-1.42212,0.540161
-1.39618,0.527954
-1.37787,0.526428
-1.36261,0.534058
-1.35498,0.537109
-1.35193,0.537109
-1.3504,0.526428
-1.35498,0.52948
-1.36108,0.535583
-1.36871,0.538635
-1.38397,0.538635
-1.40228,0.523376
-1.42365,0.52948
-1.44653,0.532532
-1.46942,0.535583
-1.49536,0.534058
-1.52283,0.526428
-1.5564,0.52948
-1.59149,0.534058
-1.62201,0.534058
-1.6571,0.535583
-1.6922,0.524902
-1.72577,0.527954
-1.75934,0.535583
-1.79291,0.537109
-1.82953,0.537109
-1.86157,0.526428
-1.88599,0.532532
-1.91498,0.532532
-1.93634,0.534058
-1.9577,0.535583
-1.97144,0.523376
-1.98364,0.527954
-1.99585,0.534058
-1.9989,0.540161
-1.9989,0.537109
-1.9989,0.527954
-1.99585,0.526428
-1.98822,0.532532
-1.97754,0.535583
-1.96991,0.535583
-1.95923,0.524902
-1.95313,0.52948
-1.93939,0.532532
-1.93329,0.537109
-1.91803,0.534058
-1.9043,0.523376
-1.88599,0.527954
-1.87378,0.532532
-1.85547,0.535583
-1.84631,0.534058
-1.83258,0.523376
-1.82037,0.52948
-1.80664,0.532532
-1.80054,0.535583
-1.78986,0.535583
-1.78375,0.524902
-1.78528,0.52948
-1.78986,0.526428
-1.79138,0.537109
-1.79291,0.532532
-1.79596,0.526428
-1.79901,0.526428
-1.80359,0.52948
-1.81274,0.538635
-1.8219,0.535583
-1.83258,0.534058
-1.84326,0.524902
-1.85394,0.532532
-1.87225,0.534058
-1.88751,0.534058
-1.90582,0.524902
-1.92261,0.52948
-1.94702,0.527954
-1.96991,0.537109
-1.9928,0.538635
-2.01721,0.52948
-2.0401,0.524902
-2.06146,0.532532
-2.0874,0.534058
-2.11792,0.532532
-2.14539,0.52948
-2.17285,0.526428
-2.19574,0.527954
-2.22473,0.537109
-2.2583,0.535583
-2.28424,0.524902
-2.31476,0.526428
-2.34528,0.526428
-2.37122,0.537109
-2.40021,0.532532
-2.42462,0.52948
-2.45056,0.52948
-2.47955,0.534058
-2.50244,0.535583
