-2.65808,0.526428,
-2.61841,0.517273,
-2.56805,0.52948,
-2.51617,0.532532,
-2.46124,0.524902,
-2.41241,0.523376,
-2.35748,0.517273,
-2.30103,0.52948,
-2.24762,0.52948,
-2.19116,0.527954,
-2.14386,0.526428,
-2.08893,0.521851,
-2.04315,0.532532,
-1.99585,0.527954,
-1.9516,0.524902,
-1.90887,0.524902,
-1.86768,0.520325,
-1.83258,0.527954,
-1.79901,0.532532,
-1.77002,0.527954,
-1.73798,0.527954,
-1.71356,0.520325,
-1.6922,0.52948,
-1.66931,0.535583,
-1.65558,0.524902,
-1.64032,0.526428,
-1.62964,0.518799,
-1.61896,0.52948,
-1.61743,0.535583,
-1.60675,0.524902,
-1.6037,0.527954,
-1.60675,0.518799,
-1.6098,0.532532,
-1.61438,0.532532,
-1.62201,0.524902,
-1.63269,0.527954,
-1.64337,0.520325,
-1.65558,0.534058,
-1.66473,0.532532,
-1.6861,0.52948,
-1.70288,0.526428,
-1.71814,0.520325,
-1.73798,0.532532,
-1.76086,0.534058,
-1.7807,0.534058,
-1.80817,0.527954,
-1.83716,0.520325,
-1.8631,0.532532,
-1.88904,0.534058,
-1.91193,0.52948,
-1.94244,0.527954,
-1.96838,0.518799,
-1.99585,0.532532,
-2.02179,0.52948,
-2.04773,0.527954,
-2.07367,0.526428,
-2.10114,0.520325,
-2.11945,0.52948,
-2.14081,0.52948,
-2.15912,0.52948,
-2.17743,0.52948,
-2.18964,0.520325,
-2.2049,0.52948,
-2.21558,0.532532,
-2.22168,0.52948,
-2.22778,0.526428,
-2.23236,0.517273,
-2.23236,0.52948,
-2.23236,0.534058,
-2.23694,0.52948,
-2.23236,0.52948,
-2.23389,0.520325,
-2.23846,0.535583,
-2.23846,0.527954,
-2.22931,0.52948,
-2.23083,0.526428,
-2.23236,0.520325,
-2.23389,0.534058,
-2.23694,0.535583,
-2.23999,0.532532,
-2.24152,0.52948,
-2.24762,0.517273,
-2.25067,0.532532,
-2.25983,0.52948,
-2.27051,0.532532,
-2.27966,0.52948,
-2.2934,0.520325,
-2.3056,0.534058,
-2.31628,0.537109,
-2.32849,0.52948,
-2.34375,0.52948,
-2.36053,0.518799,
-2.37732,0.538635,
-2.38647,0.535583,
-2.3941,0.532532,
-2.41089,0.52948,
-2.42462,0.520325,
-2.43988,0.532532,
-2.45209,0.534058,
-2.46887,0.532532,
-2.48108,0.527954,
-2.49786,0.517273,
-2.5177,0.532532,
-2.53296,0.535583,
-2.5528,0.534058,
-2.56958,0.52948,
-2.59399,0.521851,
-2.60925,0.532532,
-2.62451,0.534058,
-2.64587,0.532532,
-2.66724,0.535583,
-2.6886,0.521851,
-2.70996,0.532532,
-2.73132,0.534058,
-2.74658,0.532532,
-2.76794,0.532532,
-2.78778,0.520325,
-2.80762,0.534058,
-2.8244,0.537109,
-2.84424,0.534058,
-2.8656,0.526428,
-2.88391,0.520325,
-2.9068,0.527954,
-2.92358,0.52948,
-2.94189,0.52948,
-2.96631,0.532532,
-2.98309,0.521851,
-3.00293,0.532532,
-3.02277,0.52948,
-3.04108,0.52948,
-3.05786,0.52948,
-3.07922,0.520325,
-3.09601,0.52948,
-3.11432,0.534058,
-3.13568,0.532532,
-3.15094,0.526428,
-3.1723,0.521851,
-3.18909,0.52948,
-3.20587,0.532532,
-3.22418,0.532532,
-3.24402,0.532532,
-3.25928,0.520325,
-3.28064,0.532532,
-3.29437,0.532532,
-3.31726,0.52948,
-3.33405,0.537109,
-3.35083,0.521851,
-3.37067,0.532532,
-3.38898,0.532532,
-3.40271,0.532532,
-3.41644,0.534058,
-3.42407,0.523376,
-3.43323,0.52948,
-3.44238,0.532532,
-3.44391,0.534058,
-3.43933,0.534058,
-3.43475,0.518799,
-3.42255,0.535583,
-3.40881,0.52948,
-3.39203,0.535583,
-3.37219,0.535583,
-3.3493,0.520325,
-3.31879,0.52948,
-3.28522,0.534058,
-3.2486,0.532532,
-3.2135,0.52948,
-3.17383,0.518799,
-3.13416,0.532532,
-3.08838,0.537109,
-3.04565,0.534058,
-2.9953,0.52948,
-2.94952,0.521851,
-2.89917,0.534058,
-2.85645,0.534058,
-2.81067,0.52948,
-2.76642,0.532532,
-2.72217,0.518799,
-2.67792,0.532532,
-2.63824,0.532532,
-2.59857,0.534058,
-2.55432,0.534058,
-2.51923,0.520325,
-2.48566,0.537109,
-2.45361,0.537109,
-2.42615,0.527954,
-2.40326,0.527954,
-2.3819,0.520325,
-2.35901,0.534058,
-2.3407,0.532532,
-2.32544,0.534058,
-2.3056,0.532532,
-2.29492,0.520325,
-2.27966,0.535583,
-2.26746,0.534058,
-2.26135,0.534058,
-2.25372,0.534058,
-2.24915,0.520325,
-2.25372,0.532532,
-2.25372,0.537109,
-2.26135,0.52948,
-2.27203,0.532532,
-2.28271,0.520325,
-2.2934,0.534058,
-2.3056,0.534058,
-2.32086,0.527954,
-2.33917,0.52948,
-2.35596,0.518799,
-2.37732,0.532532,
-2.40021,0.534058,
-2.42157,0.535583,
-2.44598,0.52948,
-2.4704,0.515747,
-2.49176,0.537109,
-2.5177,0.534058,
-2.53601,0.52948,
-2.55737,0.534058,
-2.58026,0.520325,
-2.6001,0.534058,
-2.61536,0.535583,
-2.63214,0.532532,
-2.64893,0.52948,
-2.66571,0.518799,
-2.67944,0.534058,
-2.69318,0.534058,
-2.70844,0.534058,
-2.71454,0.534058,
-2.72675,0.520325,
-2.7359,0.527954,
-2.74506,0.535583,
-2.75574,0.532532,
-2.75879,0.535583,
-2.76794,0.520325,
-2.76794,0.535583,
-2.77252,0.537109,
-2.77863,0.534058,
-2.78015,0.534058,
-2.7832,0.520325,
-2.7832,0.52948,
-2.78778,0.537109,
-2.79541,0.532532,
-2.79694,0.532532,
-2.79694,0.521851,
-2.80457,0.535583,
-2.80914,0.538635,
-2.81219,0.534058,
-2.8183,0.534058,
-2.8244,0.520325,
-2.82745,0.535583,
-2.83051,0.537109,
-2.83203,0.532532,
-2.83661,0.534058,
-2.84119,0.523376,
-2.84424,0.532532,
-2.85645,0.535583,
-2.86102,0.532532,
-2.86865,0.52948,
-2.87781,0.520325,
-2.89001,0.532532,
-2.9007,0.534058,
-2.91443,0.532532,
-2.93121,0.532532,
-2.94189,0.521851,
-2.95868,0.534058,
-2.97241,0.535583,
-2.98462,0.535583,
-3.00293,0.52948,
-3.01819,0.518799,
-3.03802,0.535583,
-3.05023,0.540161,
-3.06244,0.535583,
-3.07465,0.537109,
-3.09143,0.523376,
-3.10822,0.535583,
-3.12805,0.537109,
-3.14941,0.532532,
-3.16772,0.537109,
-3.18604,0.523376,
-3.20282,0.535583,
-3.21808,0.538635,
-3.23639,0.532532,
-3.2547,0.532532,
-3.27454,0.524902,
-3.29132,0.535583,
-3.31268,0.535583,
-3.32947,0.534058,
-3.34778,0.534058,
-3.36456,0.521851,
-3.38287,0.534058,
-3.39813,0.535583,
-3.41492,0.535583,
-3.43018,0.535583,
-3.44543,0.524902,
-3.46375,0.532532,
-3.48206,0.532532,
-3.49731,0.537109,
-3.52173,0.534058,
-3.53394,0.520325,
-3.55225,0.532532,
-3.57056,0.535583,
-3.58429,0.534058,
-3.60107,0.535583,
-3.61481,0.523376,
-3.63007,0.535583,
-3.6499,0.534058,
-3.66364,0.534058,
-3.68042,0.532532,
-3.69263,0.524902,
-3.70636,0.534058,
-3.72314,0.534058,
-3.74146,0.535583,
-3.75671,0.52948,
-3.77197,0.523376,
-3.79333,0.537109,
-3.80707,0.532532,
-3.82233,0.535583,
-3.83453,0.534058,
-3.84979,0.523376,
-3.862,0.537109,
-3.8681,0.532532,
-3.87421,0.535583,
-3.87573,0.532532,
-3.87573,0.524902,
-3.8681,0.537109,
-3.86505,0.534058,
-3.85284,0.534058,
-3.83606,0.534058,
-3.82233,0.524902,
-3.79944,0.535583,
-3.77655,0.535583,
-3.75366,0.534058,
-3.72467,0.532532,
-3.69568,0.523376,
-3.66516,0.538635,
-3.62549,0.534058,
-3.58887,0.534058,
-3.54919,0.534058,
-3.50952,0.523376,
-3.4668,0.537109,
-3.42255,0.535583,
-3.38135,0.538635,
-3.33862,0.535583,
-3.29742,0.524902,
-3.25165,0.538635,
-3.21045,0.535583,
-3.17078,0.540161,
-3.13416,0.532532,
-3.09753,0.526428,
-3.05939,0.537109,
-3.02429,0.535583,
-2.99377,0.535583,
-2.96478,0.532532,
-2.93732,0.524902,
-2.91138,0.538635,
-2.89001,0.538635,
-2.86713,0.534058,
-2.84882,0.532532,
-2.83203,0.524902,
-2.81677,0.541687,
-2.79999,0.535583,
-2.79083,0.532532,
-2.78015,0.534058,
-2.77252,0.526428,
-2.76947,0.538635,
-2.76489,0.535583,
-2.76337,0.537109,
-2.76489,0.534058,
-2.77252,0.526428,
-2.77863,0.538635,
-2.78778,0.535583,
-2.79541,0.535583,
-2.80914,0.534058,
-2.8244,0.527954,
-2.83966,0.538635,
-2.85187,0.534058,
-2.86713,0.534058,
-2.88086,0.534058,
-2.89612,0.526428,
-2.90985,0.538635,
-2.92358,0.537109,
-2.93884,0.537109,
-2.95258,0.535583,
-2.96783,0.526428,
-2.98767,0.538635,
-3.00293,0.538635,
-3.01666,0.534058,
-3.03192,0.532532,
-3.04108,0.52948,
-3.05023,0.538635,
-3.06244,0.534058,
-3.07465,0.534058,
-3.0838,0.534058,
-3.09601,0.526428,
-3.10211,0.535583,
-3.10364,0.537109,
-3.10974,0.535583,
-3.11432,0.532532,
-3.12042,0.527954,
-3.125,0.538635,
-3.12653,0.534058,
-3.1311,0.537109,
-3.12805,0.52948,
-3.1311,0.527954,
-3.12805,0.537109,
-3.125,0.534058,
-3.11737,0.535583,
-3.1189,0.532532,
-3.11432,0.527954,
-3.11127,0.535583,
-3.11279,0.537109,
-3.11279,0.535583,
-3.10974,0.524902,
-3.10364,0.527954,
-3.10211,0.535583,
-3.10059,0.535583,
-3.09906,0.535583,
-3.10059,0.52948,
-3.10516,0.527954,
-3.10364,0.535583,
-3.10669,0.537109,
-3.10822,0.537109,
-3.10669,0.52948,
-3.11279,0.527954,
-3.1189,0.538635,
-3.12347,0.538635,
-3.13416,0.537109,
-3.14178,0.527954,
-3.15552,0.52948,
-3.1662,0.537109,
-3.17841,0.535583,
-3.18909,0.538635,
-3.20282,0.527954,
-3.21198,0.52948,
-3.22418,0.540161,
-3.23639,0.538635,
-3.25012,0.535583,
-3.26538,0.527954,
-3.27759,0.532532,
-3.29132,0.538635,
-3.30963,0.537109,
-3.31726,0.537109,
-3.33099,0.526428,
-3.3432,0.52948,
-3.35388,0.535583,
-3.36761,0.535583,
-3.37982,0.535583,
-3.39355,0.526428,
-3.40576,0.52948,
-3.41492,0.535583,
-3.4256,0.534058,
-3.43628,0.537109,
-3.44849,0.526428,
-3.46375,0.532532,
-3.47748,0.535583,
-3.49579,0.538635,
-3.51257,0.537109,
-3.52478,0.532532,
-3.54309,0.532532,
-3.55682,0.535583,
-3.57361,0.535583,
-3.59039,0.534058,
-3.60565,0.527954,
-3.62244,0.532532,
-3.64227,0.535583,
-3.65601,0.535583,
-3.67279,0.535583,
-3.6911,0.527954,
-3.71246,0.532532,
-3.72772,0.537109,
-3.74603,0.537109,
-3.76892,0.534058,
-3.78571,0.526428,
-3.80402,0.534058,
-3.82385,0.535583,
-3.83911,0.535583,
-3.84979,0.535583,
-3.86353,0.524902,
-3.88336,0.532532,
-3.89709,0.534058,
-3.91388,0.537109,
-3.92914,0.534058,
-3.94135,0.526428,
-3.94745,0.52948,
-3.9566,0.535583,
-3.96271,0.537109,
-3.96881,0.534058,
-3.96729,0.52948,
-3.96423,0.527954,
-3.95813,0.534058,
-3.94745,0.535583,
-3.92761,0.535583,
-3.91693,0.526428,
-3.89862,0.52948,
-3.88031,0.537109,
-3.86047,0.534058,
-3.83301,0.538635,
-3.80707,0.527954,
-3.78418,0.534058,
-3.75671,0.535583,
-3.7323,0.537109,
-3.69873,0.537109,
-3.66821,0.526428,
-3.6377,0.52948,
-3.59802,0.535583,
-3.56293,0.535583,
-3.53088,0.538635,
-3.49731,0.526428,
-3.46527,0.532532,
-3.42712,0.537109,
-3.40118,0.537109,
-3.37219,0.537109,
-3.34625,0.52948,
-3.31726,0.532532,
-3.29285,0.537109,
-3.26538,0.540161,
-3.24402,0.538635,
-3.2196,0.527954,
-3.20282,0.534058,
-3.18146,0.538635,
-3.16772,0.538635,
-3.15247,0.537109,
-3.13873,0.526428,
-3.12805,0.532532,
-3.12195,0.540161,
-3.11432,0.535583,
-3.11127,0.537109,
-3.10516,0.526428,
-3.10974,0.534058,
-3.10669,0.534058,
-3.10974,0.538635,
-3.11432,0.538635,
-3.11737,0.527954,
-3.12042,0.534058,
-3.12653,0.537109,
-3.13721,0.538635,
-3.14331,0.537109,
-3.15399,0.526428,
-3.16772,0.532532,
-3.17841,0.535583,
-3.18756,0.537109,
-3.20282,0.541687,
-3.21808,0.52948,
-3.23334,0.532532,
-3.24097,0.537109,
-3.25317,0.535583,
-3.26843,0.538635,
-3.28064,0.527954,
-3.29437,0.532532,
-3.31116,0.532532,
-3.32336,0.535583,
-3.33405,0.537109,
-3.34625,0.523376,
-3.35846,0.532532,
-3.37067,0.537109,
-3.37677,0.535583,
-3.38745,0.535583,
-3.38745,0.526428,
-3.3905,0.534058,
-3.39355,0.537109,
-3.39661,0.534058,
-3.39966,0.535583,
-3.40271,0.527954,
-3.40118,0.532532,
-3.39966,0.534058,
-3.39966,0.537109,
-3.40118,0.535583,
-3.40118,0.52948,
-3.39966,0.532532,
-3.39813,0.534058,
-3.39813,0.535583,
-3.39355,0.538635,
-3.38745,0.527954,
-3.38745,0.532532,
-3.38745,0.537109,
-3.3844,0.535583,
-3.38135,0.537109,
-3.38135,0.526428,
-3.38287,0.532532,
-3.38593,0.534058,
-3.3905,0.534058,
-3.3905,0.534058,
-3.39966,0.527954,
-3.40729,0.527954,
-3.41034,0.537109,
-3.41492,0.534058,
-3.41949,0.532532,
-3.42712,0.52948,
-3.43323,0.532532,
-3.44086,0.534058,
-3.44696,0.537109,
-3.45306,0.535583,
-3.46069,0.526428,
-3.4668,0.52948,
-3.47595,0.535583,
-3.48511,0.538635,
-3.49274,0.535583,
-3.50037,0.526428,
-3.51257,0.52948,
-3.51868,0.532532,
-3.52936,0.535583,
-3.54309,0.534058,
-3.5553,0.52948,
-3.5675,0.534058,
-3.57819,0.534058,
-3.58734,0.538635,
-3.59802,0.535583,
-3.61176,0.524902,
-3.62396,0.52948,
-3.63922,0.532532,
-3.6499,0.540161,
-3.66211,0.537109,
-3.67432,0.52948,
-3.68805,0.534058,
-3.69873,0.532532,
-3.71094,0.540161,
-3.7262,0.535583,
-3.73383,0.527954,
-3.74298,0.534058,
-3.75519,0.535583,
-3.77045,0.538635,
-3.78571,0.538635,
-3.79333,0.52948,
-3.80707,0.534058,
-3.81775,0.535583,
-3.82843,0.535583,
-3.84369,0.535583,
-3.85284,0.535583,
-3.86353,0.532532,
-3.87726,0.532532,
-3.89404,0.541687,
-3.9093,0.537109,
-3.92151,0.527954,
-3.93677,0.534058,
-3.9505,0.534058,
-3.96576,0.537109,
-3.97644,0.534058,
-3.98254,0.532532,
-3.99475,0.532532,
-4.00238,0.534058,
-4.01001,0.538635,
-4.02374,0.535583,
-4.02985,0.526428,
-4.039,0.534058,
-4.0451,0.52948,
-4.05273,0.541687,
-4.06036,0.535583,
-4.05579,0.52948,
-4.05884,0.532532,
-4.04663,0.532532,
-4.04205,0.534058,
-4.02832,0.537109,
-4.01611,0.532532,
-4.00238,0.52948,
-3.97644,0.532532,
-3.95508,0.532532,
-3.92914,0.538635,
-3.90015,0.527954,
-3.87268,0.532532,
-3.83911,0.532532,
-3.80707,0.535583,
-3.77197,0.535583,
-3.73383,0.534058,
-3.69415,0.52948,
-3.65601,0.534058,
-3.61633,0.535583,
-3.57208,0.534058,
-3.53394,0.532532,
-3.49121,0.534058,
-3.45764,0.532532,
-3.42102,0.534058,
-3.38745,0.535583,
-3.35083,0.534058,
-3.31879,0.527954,
-3.28979,0.532532,
-3.2608,0.535583,
-3.23639,0.535583,
-3.20892,0.52948,
-3.18146,0.532532,
-3.15857,0.534058,
-3.13873,0.534058,
-3.12195,0.538635,
-3.10059,0.52948,
-3.08838,0.532532,
-3.07617,0.532532,
-3.06549,0.537109,
-3.04871,0.534058,
-3.03802,0.527954,
-3.0304,0.534058,
-3.02277,0.532532,
-3.01971,0.537109,
-3.01361,0.537109,
-3.00903,0.52948,
-3.00903,0.52948,
-3.00903,0.52948,
-3.01514,0.534058,
-3.01971,0.532532,
-3.0304,0.52948,
-3.03802,0.52948,
-3.04565,0.52948,
-3.05328,0.538635,
-3.06549,0.538635,
-3.07617,0.527954,
-3.08838,0.52948,
-3.09906,0.534058,
-3.10822,0.537109,
-3.12042,0.532532,
-3.13416,0.532532,
-3.14331,0.532532,
-3.15704,0.52948,
-3.16925,0.535583,
-3.17535,0.538635,
-3.18146,0.52948,
-3.18909,0.52948,
-3.19061,0.532532,
-3.19672,0.537109,
-3.20587,0.535583,
-3.2074,0.532532,
-3.21045,0.52948,
-3.21198,0.527954,
-3.21045,0.535583,
-3.21198,0.537109,
-3.21198,0.526428,
-3.2135,0.52948,
-3.2074,0.526428,
-3.20282,0.534058,
-3.19672,0.537109,
-3.19977,0.524902,
-3.19366,0.526428,
-3.19214,0.52948,
-3.18909,0.532532,
-3.19061,0.532532,
-3.19214,0.52948,
-3.19061,0.527954,
-3.18909,0.527954,
-3.18909,0.535583,
-3.18756,0.535583,
-3.19061,0.534058,
-3.19061,0.532532,
-3.18909,0.52948,
-3.19366,0.535583,
-3.20282,0.534058,
-3.2074,0.532532,
-3.2135,0.527954,
-3.21655,0.526428,
-3.22266,0.537109,
-3.22571,0.535583,
-3.22723,0.52948,
-3.23334,0.52948,
-3.23486,0.526428,
-3.23944,0.537109,
-3.23944,0.538635,
-3.24707,0.535583,
-3.25317,0.532532,
-3.26233,0.524902,
-3.26538,0.535583,
-3.27301,0.535583,
-3.28064,0.527954,
-3.28674,0.52948,
-3.29437,0.524902,
-3.30353,0.537109,
-3.31421,0.535583,
-3.32031,0.535583,
-3.33252,0.532532,
-3.34473,0.527954,
-3.35541,0.538635,
-3.36151,0.534058,
-3.37372,0.534058,
-3.37982,0.534058,
-3.38745,0.526428,
-3.39355,0.538635,
-3.40576,0.534058,
-3.41034,0.532532,
-3.42255,0.527954,
-3.4256,0.523376,
-3.4317,0.537109,
-3.43933,0.535583,
-3.45001,0.532532,
-3.45459,0.532532,
-3.46375,0.523376,
-3.47595,0.537109,
-3.48511,0.538635,
-3.49731,0.52948,
-3.51257,0.52948,
-3.52478,0.526428,
-3.53546,0.535583,
-3.55225,0.534058,
-3.56293,0.532532,
-3.57056,0.527954,
-3.58429,0.526428,
-3.59802,0.535583,
-3.61328,0.534058,
-3.63159,0.532532,
-3.64685,0.52948,
-3.65601,0.524902,
-3.66974,0.538635,
-3.67737,0.534058,
-3.68958,0.52948,
-3.70026,0.527954,
-3.70636,0.527954,
-3.71704,0.537109,
-3.72467,0.535583,
-3.73535,0.532532,
-3.74298,0.527954,
-3.74908,0.524902,
-3.75519,0.535583,
-3.75824,0.537109,
-3.75671,0.535583,
-3.75519,0.527954,
-3.74603,0.526428,
-3.73383,0.532532,
-3.72009,0.535583,
-3.70178,0.532532,
-3.68652,0.526428,
-3.66058,0.526428,
-3.63617,0.534058,
-3.60718,0.537109,
-3.58276,0.52948,
-3.55377,0.52948,
-3.5202,0.526428,
-3.48816,0.534058,
-3.45764,0.534058,
-3.41949,0.532532,
-3.3844,0.532532,
-3.3493,0.527954,
-3.31268,0.534058,
-3.27759,0.534058,
-3.24249,0.534058,
-3.2074,0.52948,
-3.16772,0.526428,
-3.12653,0.534058,
-3.09906,0.535583,
-3.06244,0.535583,
-3.03345,0.532532,
-3.0014,0.527954,
-2.97241,0.535583,
-2.94647,0.535583,
-2.92053,0.534058,
-2.89612,0.532532,
-2.87018,0.52948,
-2.85187,0.537109,
-2.83356,0.534058,
-2.81372,0.535583,
-2.80151,0.52948,
-2.7832,0.527954,
-2.77405,0.538635,
-2.76337,0.535583,
-2.75726,0.534058,
-2.74963,0.527954,
-2.74506,0.527954,
-2.74658,0.535583,
-2.74353,0.535583,
-2.74353,0.538635,
-2.74048,0.52948,
-2.74048,0.526428,
-2.74353,0.541687,
-2.74506,0.537109,
-2.74658,0.534058,
-2.74963,0.534058,
-2.76184,0.532532,
-2.76337,0.538635,
-2.77405,0.535583,
-2.7832,0.535583,
-2.79236,0.532532,
-2.79694,0.527954,
-2.80762,0.540161,
-2.8183,0.537109,
-2.82745,0.534058,
-2.83966,0.534058,
-2.84729,0.52948,
-2.85797,0.540161,
-2.86407,0.535583,
-2.8717,0.532532,
-2.88239,0.534058,
-2.88239,0.52948,
-2.89307,0.535583,
-2.89612,0.540161,
-2.89917,0.534058,
-2.90527,0.52948,
-2.90375,0.52948,
-2.90222,0.537109,
-2.90375,0.538635,
-2.89612,0.534058,
-2.89459,0.532532,
-2.88544,0.527954,
-2.87781,0.537109,
-2.87476,0.537109,
-2.87018,0.534058,
-2.85797,0.52948,
-2.85187,0.524902,
-2.84424,0.535583,
-2.83966,0.535583,
-2.83508,0.532532,
-2.83508,0.52948,
-2.82898,0.527954,
-2.82593,0.532532,
-2.8244,0.535583,
-2.8244,0.535583,
-2.82135,0.532532,
-2.82135,0.527954,
-2.82745,0.534058,
-2.82288,0.535583,
-2.82593,0.534058,
-2.82593,0.534058,
-2.82288,0.532532,
-2.8244,0.532532,
-2.82593,0.538635,
-2.82898,0.535583,
-2.83508,0.532532,
-2.83966,0.527954,
-2.83813,0.532532,
-2.84119,0.535583,
-2.84576,0.534058,
-2.84729,0.535583,
-2.85797,0.532532,
-2.8656,0.534058,
-2.87476,0.538635,
-2.88544,0.538635,
-2.89307,0.535583,
-2.90222,0.532532,
-2.9068,0.535583,
-2.91748,0.538635,
-2.92664,0.535583,
-2.93579,0.534058,
-2.94495,0.532532,
-2.95868,0.535583,
-2.96936,0.540161,
-2.98157,0.535583,
-2.99683,0.534058,
-3.00446,0.532532,
-3.01666,0.537109,
-3.02887,0.540161,
-3.04108,0.538635,
-3.05023,0.535583,
-3.05939,0.535583,
-3.0777,0.534058,
-3.0838,0.538635,
-3.09753,0.538635,
-3.10669,0.535583,
-3.1189,0.52948,
-3.12653,0.535583,
-3.14026,0.540161,
-3.15247,0.537109,
-3.16467,0.534058,
-3.1723,0.52948,
-3.18604,0.535583,
-3.19519,0.538635,
-3.20282,0.540161,
-3.2135,0.535583,
-3.22266,0.532532,
-3.22571,0.541687,
-3.23792,0.541687,
-3.24249,0.535583,
-3.25623,0.537109,
-3.26538,0.534058,
-3.27911,0.541687,
-3.28522,0.537109,
-3.29437,0.538635,
-3.30353,0.538635,
-3.31116,0.534058,
-3.32031,0.537109,
-3.32794,0.541687,
-3.3371,0.537109,
-3.34015,0.538635,
-3.3493,0.534058,
-3.35083,0.538635,
-3.35388,0.538635,
-3.35388,0.540161,
-3.35236,0.537109,
-3.35388,0.535583,
-3.3493,0.540161,
-3.33862,0.540161,
-3.32642,0.537109,
-3.31573,0.538635,
-3.30505,0.52948,
-3.28674,0.538635,
-3.26385,0.540161,
-3.24249,0.540161,
-3.21655,0.535583,
-3.18909,0.535583,
-3.16162,0.540161,
-3.13416,0.540161,
-3.10059,0.535583,
-3.07159,0.537109,
-3.03802,0.535583,
-3.00293,0.541687,
-2.97241,0.537109,
-2.93427,0.540161,
-2.90375,0.541687,
-2.87628,0.535583,
-2.84424,0.543213,
-2.81372,0.540161,
-2.78168,0.541687,
-2.75421,0.537109,
-2.7298,0.534058,
-2.70386,0.543213,
-2.68097,0.541687,
-2.66113,0.538635,
-2.63672,0.541687,
-2.61841,0.534058,
-2.6062,0.543213,
-2.58942,0.540161,
-2.57416,0.538635,
-2.55737,0.540161,
-2.55127,0.534058,
-2.54059,0.540161,
-2.53143,0.540161,
-2.52686,0.538635,
-2.51923,0.538635,
-2.5177,0.535583,
-2.52075,0.543213,
-2.52075,0.541687,
-2.52228,0.543213,
-2.52686,0.540161,
-2.53296,0.534058,
-2.53754,0.540161,
-2.54059,0.540161,
-2.54974,0.541687,
-2.5528,0.541687,
-2.5589,0.535583,
-2.56653,0.546265,
-2.57263,0.541687,
-2.58331,0.543213,
-2.59399,0.540161,
-2.60162,0.538635,
-2.60925,0.544739,
-2.61993,0.540161,
-2.63367,0.541687,
-2.63977,0.540161,
-2.64893,0.537109,
-2.65656,0.544739,
-2.65961,0.544739,
-2.66724,0.541687,
-2.67639,0.540161,
-2.67944,0.537109,
-2.68555,0.546265,
-2.68707,0.540161,
-2.6886,0.541687,
-2.69165,0.540161,
-2.69623,0.535583,
-2.70081,0.541687,
-2.70386,0.543213,
-2.70844,0.540161,
-2.70844,0.543213,
-2.70538,0.535583,
-2.70538,0.544739,
-2.70386,0.543213,
-2.69775,0.543213,
-2.69623,0.543213,
-2.69318,0.535583,
-2.69318,0.546265,
-2.68555,0.543213,
-2.68707,0.541687,
-2.68402,0.541687,
-2.67792,0.538635,
-2.67639,0.544739,
-2.67487,0.541687,
-2.67487,0.543213,
-2.67487,0.540161,
-2.67639,0.537109,
-2.67181,0.541687,
-2.66876,0.544739,
-2.67029,0.543213,
-2.67181,0.544739,
-2.67334,0.538635,
-2.67639,0.546265,
-2.67334,0.543213,
-2.67944,0.546265,
-2.68555,0.540161,
-2.68707,0.537109,
-2.6886,0.543213,
-2.69012,0.543213,
-2.6947,0.541687,
-2.70081,0.540161,
-2.70538,0.543213,
-2.71149,0.543213,
-2.71912,0.540161,
-2.72369,0.543213,
-2.7298,0.540161,
-2.73438,0.540161,
-2.73743,0.543213,
-2.74506,0.538635,
-2.75421,0.543213,
-2.75726,0.543213,
-2.76489,0.538635,
-2.77405,0.544739,
-2.7832,0.546265,
-2.79236,0.544739,
-2.80457,0.541687,
-2.81067,0.540161,
-2.81525,0.544739,
-2.82745,0.544739,
-2.83966,0.546265,
-2.84729,0.543213,
-2.86102,0.541687,
-2.86865,0.546265,
-2.87628,0.543213,
-2.88391,0.544739,
-2.89459,0.541687,
-2.89917,0.537109,
-2.90985,0.544739,
-2.92511,0.544739,
-2.93427,0.544739,
-2.94495,0.543213,
-2.95563,0.538635,
-2.97089,0.546265,
-2.98767,0.543213,
-3.00293,0.544739,
-3.01056,0.544739,
-3.01819,0.538635,
-3.02734,0.546265,
-3.03955,0.546265,
-3.04718,0.543213,
-3.06396,0.543213,
-3.07465,0.537109,
-3.08533,0.546265,
-3.10059,0.544739,
-3.11279,0.546265,
-3.12653,0.544739,
-3.13873,0.540161,
-3.15552,0.547791,
-3.16467,0.543213,
-3.17993,0.544739,
-3.18604,0.543213,
-3.19977,0.540161,
-3.20282,0.546265,
-3.20435,0.544739,
-3.20435,0.549316,
-3.19672,0.546265,
-3.18909,0.541687,
-3.18451,0.547791,
-3.1723,0.547791,
-3.1601,0.546265,
-3.14484,0.543213,
-3.12805,0.541687,
-3.11279,0.546265,
-3.09143,0.543213,
-3.06702,0.549316,
-3.04565,0.541687,
-3.01971,0.543213,
-2.99683,0.546265,
-2.97241,0.547791,
-2.94647,0.547791,
-2.91901,0.544739,
-2.89001,0.541687,
-2.8656,0.546265,
-2.84271,0.543213,
-2.81372,0.543213,
-2.78778,0.544739,
-2.76337,0.541687,
-2.742,0.544739,
-2.72064,0.543213,
-2.69623,0.547791,
-2.67639,0.544739,
-2.65656,0.540161,
-2.63672,0.549316,
-2.62299,0.544739,
-2.6062,0.544739,
-2.59094,0.541687,
-2.57568,0.541687,
-2.56348,0.547791,
-2.54669,0.546265,
-2.53601,0.546265,
-2.52838,0.543213,
-2.51923,0.540161,
-2.51617,0.549316,
-2.50854,0.549316,
-2.50854,0.549316,
-2.51465,0.543213,
-2.51465,0.541687,
-2.52228,0.547791,
-2.5238,0.547791,
-2.53448,0.546265,
-2.53296,0.540161,
-2.54059,0.543213,
-2.5528,0.547791,
-2.55737,0.547791,
-2.56348,0.549316,
-2.57111,0.546265,
-2.58942,0.541687,
-2.59399,0.549316,
-2.60315,0.549316,
-2.61688,0.547791,
-2.62604,0.543213,
-2.63214,0.546265,
-2.6413,0.547791,
-2.65198,0.546265,
-2.65656,0.549316,
-2.66266,0.546265,
-2.67181,0.546265,
-2.66876,0.549316,
-2.67181,0.546265,
-2.67181,0.550842,
-2.67792,0.544739,
-2.67944,0.543213,
-2.68097,0.550842,
-2.68402,0.546265,
-2.68707,0.546265,
-2.6886,0.544739,
-2.6886,0.543213,
-2.6886,0.550842,
-2.68707,0.546265,
-2.68707,0.546265,
-2.68707,0.543213,
-2.68402,0.541687,
-2.68402,0.546265,
-2.67944,0.546265,
-2.67944,0.550842,
-2.68555,0.541687,
-2.68097,0.543213,
-2.67639,0.550842,
-2.67487,0.547791,
-2.67181,0.552368,
-2.66876,0.541687,
-2.66418,0.541687,
-2.66266,0.549316,
-2.65961,0.550842,
-2.65808,0.549316,
-2.65503,0.541687,
-2.65808,0.541687,
-2.66571,0.547791,
-2.66418,0.546265,
-2.66571,0.549316,
-2.66418,0.540161,
-2.66418,0.541687,
-2.66418,0.552368,
-2.66266,0.549316,
-2.66571,0.544739,
-2.66571,0.541687,
-2.67029,0.543213,
-2.67487,0.553894,
-2.68402,0.549316,
-2.6947,0.547791,
-2.70233,0.544739,
-2.71301,0.541687,
-2.72522,0.549316,
-2.7298,0.547791,
-2.74048,0.550842,
-2.74506,0.541687,
-2.75726,0.543213,
-2.76184,0.547791,
-2.771,0.549316,
-2.7771,0.549316,
-2.78778,0.544739,
-2.79388,0.543213,
-2.80457,0.549316,
-2.81219,0.547791,
-2.82288,0.550842,
-2.83508,0.543213,
-2.84271,0.544739,
-2.85492,0.550842,
-2.85797,0.547791,
-2.86865,0.546265,
-2.87476,0.544739,
-2.88544,0.546265,
-2.89459,0.552368,
-2.90375,0.547791,
-2.9129,0.552368,
-2.92053,0.543213,
-2.93427,0.544739,
-2.94495,0.552368,
-2.9541,0.549316,
-2.96631,0.550842,
-2.97852,0.541687,
-2.98767,0.544739,
-3.0014,0.547791,
-3.01361,0.550842,
-3.02124,0.552368,
-3.03345,0.543213,
-3.0426,0.543213,
-3.05023,0.550842,
-3.05939,0.546265,
-3.07007,0.549316,
-3.0777,0.546265,
-3.08533,0.547791,
-3.09143,0.552368,
-3.10059,0.549316,
-3.10974,0.552368,
-3.11279,0.544739,
-3.11737,0.543213,
-3.12042,0.550842,
-3.1189,0.547791,
-3.11584,0.55542,
-3.11432,0.547791,
-3.10516,0.546265,
-3.09753,0.547791,
-3.08685,0.550842,
-3.07465,0.553894,
-3.05786,0.544739,
-3.04108,0.546265,
-3.01971,0.552368,
-2.99683,0.549316,
-2.97241,0.552368,
-2.94647,0.546265,
-2.92358,0.549316,
-2.89764,0.553894,
-2.86713,0.550842,
-2.83508,0.556946,
-2.80914,0.546265,
-2.78015,0.546265,
-2.75574,0.552368,
-2.72522,0.547791,
-2.6947,0.552368,
-2.66724,0.546265,
-2.63824,0.546265,
-2.61688,0.553894,
-2.58942,0.549316,
-2.56195,0.553894,
-2.53906,0.546265,
-2.5177,0.547791,
-2.49329,0.552368,
-2.4704,0.550842,
-2.45056,0.552368,
-2.43225,0.546265,
-2.41699,0.546265,
-2.40173,0.552368,
-2.39258,0.549316,
-2.38342,0.553894,
-2.37427,0.546265,
-2.36359,0.544739,
-2.36206,0.552368,
-2.35901,0.547791,
-2.35596,0.553894,
-2.34833,0.547791,
-2.34833,0.544739,
-2.34833,0.55542,
-2.34833,0.547791,
-2.34985,0.55542,
-2.34833,0.541687,
-2.35291,0.544739,
-2.35443,0.55542,
-2.35748,0.547791,
-2.36511,0.553894,
-2.36664,0.544739,
-2.37885,0.544739,
-2.388,0.553894,
-2.39563,0.550842,
-2.40173,0.552368,
-2.41241,0.547791,
-2.42157,0.546265,
-2.4292,0.55542,
-2.4292,0.552368,
-2.43378,0.552368,
-2.43683,0.544739,
-2.43835,0.543213,
-2.44598,0.556946,
-2.45056,0.553894,
-2.45361,0.552368,
-2.45667,0.544739,
-2.45819,0.543213,
-2.45972,0.552368,
-2.45972,0.552368,
-2.45972,0.553894,
-2.46582,0.543213,
-2.46582,0.543213,
-2.46277,0.556946,
-2.46735,0.549316,
-2.46429,0.553894,
-2.46735,0.541687,
-2.46429,0.547791,
-2.46735,0.552368,
-2.46582,0.547791,
-2.46429,0.553894,
-2.46735,0.544739,
-2.46735,0.543213,
-2.47192,0.553894,
-2.47192,0.549316,
-2.47345,0.553894,
-2.47345,0.543213,
-2.47498,0.543213,
-2.47498,0.553894,
-2.47498,0.552368,
-2.47345,0.552368,
-2.47498,0.544739,
-2.47345,0.544739,
-2.47803,0.553894,
-2.47955,0.547791,
-2.48108,0.550842,
-2.48108,0.544739,
-2.4826,0.546265,
-2.48718,0.552368,
-2.48871,0.547791,
-2.49023,0.549316,
-2.49634,0.543213,
-2.50244,0.546265,
-2.5116,0.553894,
-2.52228,0.547791,
-2.52686,0.549316,
-2.53601,0.544739,
-2.54669,0.546265,
-2.54822,0.55542,
-2.56042,0.549316,
-2.56653,0.552368,
-2.58026,0.544739,
-2.58179,0.544739,
-2.59094,0.552368,
-2.59857,0.547791,
-2.60315,0.550842,
-2.61078,0.544739,
-2.62299,0.538635,
-2.63214,0.552368,
-2.63672,0.547791,
-2.6413,0.549316,
-2.65503,0.543213,
-2.66266,0.543213,
-2.67334,0.553894,
-2.68402,0.550842,
-2.6947,0.549316,
-2.70691,0.543213,
-2.72217,0.544739,
-2.7359,0.550842,
-2.74963,0.549316,
-2.75726,0.547791,
-2.76947,0.544739,
-2.7771,0.544739,
-2.7832,0.549316,
-2.79388,0.550842,
-2.80151,0.552368,
-2.81219,0.544739,
-2.82135,0.543213,
-2.83508,0.552368,
-2.84729,0.550842,
-2.85797,0.552368,
-2.86713,0.541687,
-2.88086,0.543213,
-2.89154,0.550842,
-2.9007,0.549316,
-2.91138,0.550842,
-2.92053,0.541687,
-2.92816,0.543213,
-2.94189,0.552368,
-2.95563,0.549316,
-2.96631,0.549316,
-2.97394,0.540161,
-2.97699,0.543213,
-2.98462,0.550842,
-2.98462,0.547791,
-2.98309,0.549316,
-2.98309,0.541687,
-2.97699,0.543213,
-2.96783,0.552368,
-2.9541,0.550842,
-2.94342,0.549316,
-2.92664,0.544739,
-2.9068,0.544739,
-2.89001,0.550842,
-2.86407,0.550842,
-2.83966,0.549316,
-2.8183,0.544739,
-2.79236,0.544739,
-2.76337,0.549316,
-2.7359,0.550842,
-2.70386,0.549316,
-2.67334,0.546265,
-2.63977,0.547791,
-2.61536,0.549316,
-2.58331,0.552368,
-2.55432,0.549316,
-2.52228,0.544739,
-2.49634,0.544739,
-2.46582,0.549316,
-2.43835,0.549316,
-2.41241,0.547791,
-2.38953,0.544739,
-2.36969,0.541687,
-2.34833,0.550842,
-2.33154,0.550842,
-2.31171,0.547791,
-2.29645,0.543213,
-2.28424,0.544739,
-2.26746,0.552368,
-2.25372,0.550842,
-2.24152,0.549316,
-2.23236,0.543213,
-2.21863,0.544739,
-2.21405,0.550842,
-2.20795,0.550842,
-2.2049,0.549316,
-2.20337,0.544739,
-2.20184,0.546265,
-2.20795,0.547791,
-2.211,0.552368,
-2.21405,0.549316,
-2.21863,0.538635,
-2.22473,0.543213,
-2.22931,0.549316,
-2.23389,0.549316,
-2.23999,0.547791,
-2.24304,0.543213,
-2.24762,0.544739,
-2.25525,0.549316,
-2.26135,0.547791,
-2.27203,0.546265,
-2.28119,0.541687,
-2.28882,0.544739,
-2.2995,0.547791,
-2.31323,0.550842,
-2.32391,0.546265,
-2.33154,0.538635,
-2.34222,0.541687,
-2.3468,0.547791,
-2.35596,0.546265,
-2.36511,0.547791,
-2.36969,0.541687,
-2.37427,0.544739,
-2.37885,0.547791,
-2.38495,0.547791,
-2.3941,0.546265,
-2.39563,0.541687,
-2.39716,0.544739,
-2.40173,0.549316,
-2.40326,0.549316,
-2.40479,0.544739,
-2.40479,0.541687,
-2.40631,0.543213,
-2.40936,0.546265,
-2.40479,0.549316,
-2.40479,0.544739,
-2.40173,0.540161,
-2.39868,0.546265,
-2.39868,0.547791,
-2.40021,0.552368,
-2.3941,0.544739,
-2.39258,0.543213,
-2.39105,0.543213,
-2.39258,0.547791,
-2.38647,0.550842,
-2.38647,0.546265,
-2.38647,0.541687,
-2.38342,0.543213,
-2.38342,0.549316,
-2.38647,0.549316,
-2.38647,0.547791,
-2.38495,0.543213,
-2.38495,0.547791,
-2.38953,0.550842,
-2.39105,0.552368,
-2.39563,0.544739,
-2.39868,0.541687,
-2.40479,0.546265,
-2.41241,0.547791,
-2.41394,0.553894,
-2.4231,0.546265,
-2.43073,0.543213,
-2.43378,0.547791,
-2.44598,0.546265,
-2.45361,0.550842,
-2.45972,0.544739,
-2.46735,0.543213,
-2.47192,0.546265,
-2.48413,0.547791,
-2.49329,0.550842,
-2.49939,0.544739,
-2.50854,0.543213,
-2.5177,0.544739,
-2.52686,0.547791,
-2.53601,0.550842,
-2.54211,0.541687,
-2.5528,0.544739,
-2.56195,0.544739,
-2.57263,0.547791,
-2.58331,0.549316,
-2.58942,0.541687,
-2.59857,0.537109,
-2.60468,0.544739,
-2.61536,0.546265,
-2.61688,0.549316,
-2.62909,0.544739,
-2.63824,0.538635,
-2.64587,0.544739,
-2.65656,0.544739,
-2.66724,0.552368,
-2.67792,0.540161,
-2.6886,0.538635,
-2.69623,0.543213,
-2.71454,0.546265,
-2.72522,0.552368,
-2.7359,0.546265,
-2.75269,0.540161,
-2.76337,0.544739,
-2.771,0.547791,
-2.78015,0.549316,
-2.78931,0.541687,
-2.79846,0.540161,
-2.80609,0.541687,
-2.81372,0.546265,
-2.82135,0.547791,
-2.83051,0.540161,
-2.83813,0.538635,
-2.84729,0.541687,
-2.84729,0.546265,
-2.85492,0.549316,
-2.84576,0.541687,
-2.84424,0.538635,
-2.84119,0.538635,
-2.83356,0.544739,
-2.82288,0.550842,
-2.81067,0.543213,
-2.79999,0.538635,
-2.78168,0.543213,
-2.76489,0.544739,
-2.75269,0.550842,
-2.72675,0.541687,
-2.70538,0.541687,
-2.67944,0.541687,
-2.65503,0.543213,
-2.62756,0.550842,
-2.60315,0.540161,
-2.57416,0.540161,
-2.55127,0.540161,
-2.52228,0.546265,
-2.49634,0.544739,
-2.46582,0.540161,
-2.43683,0.537109,
-2.41699,0.541687,
-2.39105,0.544739,
-2.36511,0.552368,
-2.34375,0.540161,
-2.31934,0.537109,
-2.2934,0.541687,
-2.27661,0.543213,
-2.25525,0.547791,
-2.23694,0.540161,
-2.21863,0.538635,
-2.20947,0.541687,
-2.19727,0.544739,
-2.18201,0.550842,
-2.17285,0.541687,
-2.16217,0.540161,
-2.15454,0.543213,
-2.14844,0.544739,
-2.13928,0.552368,
-2.13318,0.538635,
-2.1286,0.540161,
-2.12708,0.538635,
-2.1225,0.544739,
-2.12708,0.552368,
-2.12555,0.540161,
-2.13013,0.538635,
-2.13928,0.538635,
-2.14386,0.544739,
-2.15149,0.552368,
-2.15607,0.541687,
-2.16827,0.537109,
-2.17896,0.537109,
-2.18201,0.544739,
-2.19269,0.552368,
-2.19727,0.538635,
-2.2049,0.538635,
-2.20947,0.534058,
-2.22168,0.543213,
-2.22931,0.552368,
-2.23694,0.540161,
-2.24152,0.538635,
-2.24457,0.538635,
-2.24609,0.544739,
-2.25067,0.550842,
-2.25067,0.543213,
-2.24915,0.540161,
-2.2522,0.537109,
-2.25525,0.543213,
-2.25677,0.550842,
-2.25372,0.541687,
-2.2522,0.538635,
-2.25067,0.537109,
-2.25067,0.544739,
-2.24915,0.546265,
-2.2522,0.540161,
-2.25525,0.538635,
-2.25525,0.538635,
-2.25983,0.540161,
-2.25983,0.553894,
-2.2583,0.538635,
-2.2583,0.538635,
-2.25525,0.540161,
-2.24915,0.540161,
-2.25067,0.547791,
-2.25067,0.538635,
-2.24915,0.538635,
-2.24762,0.537109,
-2.24915,0.544739,
-2.24762,0.547791,
-2.24915,0.541687,
-2.25372,0.537109,
-2.25067,0.540161,
-2.25372,0.544739,
-2.25372,0.549316,
-2.25677,0.538635,
-2.2583,0.538635,
-2.26135,0.537109,
-2.27051,0.544739,
-2.27203,0.550842,
-2.27509,0.540161,
-2.28119,0.538635,
-2.28424,0.538635,
-2.28729,0.543213,
-2.2934,0.550842,
-2.30255,0.540161,
-2.31018,0.540161,
-2.31934,0.540161,
-2.32391,0.543213,
-2.33002,0.547791,
-2.3407,0.538635,
-2.34528,0.538635,
-2.36053,0.538635,
-2.36359,0.543213,
-2.37885,0.550842,
-2.38647,0.538635,
-2.39563,0.537109,
-2.41089,0.537109,
-2.42462,0.543213,
-2.4353,0.552368,
-2.44598,0.540161,
-2.45819,0.537109,
-2.47192,0.541687,
-2.48108,0.546265,
-2.49176,0.549316,
-2.50244,0.537109,
-2.51465,0.535583,
-2.51923,0.537109,
-2.52686,0.538635,
-2.53754,0.550842,
-2.55127,0.540161,
-2.56195,0.535583,
-2.57111,0.540161,
-2.58026,0.541687,
-2.59247,0.547791,
-2.60468,0.540161,
-2.61536,0.538635,
-2.62604,0.540161,
-2.63824,0.543213,
-2.64587,0.547791,
-2.65656,0.538635,
-2.66876,0.537109,
-2.67944,0.538635,
-2.68555,0.541687,
-2.6947,0.549316,
-2.70081,0.541687,
-2.70538,0.538635,
-2.72064,0.538635,
-2.7298,0.540161,
-2.73743,0.549316,
-2.74963,0.540161,
-2.75421,0.537109,
-2.75879,0.538635,
-2.76184,0.540161,
-2.76031,0.549316,
-2.76031,0.538635,
-2.75574,0.540161,
-2.74658,0.537109,
-2.73285,0.543213,
-2.72064,0.547791,
-2.70386,0.538635,
-2.69012,0.540161,
-2.67334,0.538635,
-2.65503,0.541687,
-2.63367,0.549316,
-2.6123,0.537109,
-2.59094,0.535583,
-2.57111,0.537109,
-2.54364,0.541687,
-2.51312,0.549316,
-2.48566,0.541687,
-2.45361,0.538635,
-2.43073,0.538635,
-2.39716,0.541687,
-2.36969,0.547791,
-2.33917,0.541687,
-2.31323,0.541687,
-2.28729,0.540161,
-2.2583,0.540161,
-2.23694,0.550842,
-2.21252,0.540161,
-2.19269,0.538635,
-2.17133,0.540161,
-2.14996,0.538635,
-2.1286,0.546265,
-2.11487,0.541687,
-2.09656,0.538635,
-2.0813,0.537109,
-2.06451,0.541687,
-2.05078,0.546265,
-2.04315,0.541687,
-2.02789,0.543213,
-2.01569,0.538635,
-2.00653,0.543213,
-1.99585,0.549316,
-1.98975,0.541687,
-1.98669,0.541687,
-1.98364,0.538635,
-1.97754,0.546265,
-1.97601,0.546265,
-1.98212,0.535583,
-1.98364,0.543213,
-1.98822,0.540161,
-1.99738,0.543213,
-2.00195,0.547791,
-2.01569,0.538635,
-2.02179,0.543213,
-2.03247,0.538635,
-2.04468,0.541687,
-2.05078,0.546265,
-2.05841,0.538635,
-2.07214,0.543213,
-2.07825,0.540161,
-2.08282,0.544739,
-2.08893,0.544739,
-2.09503,0.541687,
-2.09961,0.541687,
-2.10266,0.541687,
-2.10419,0.543213,
-2.10571,0.547791,
-2.11182,0.537109,
-2.11334,0.540161,
-2.11792,0.538635,
-2.12097,0.546265,
-2.11945,0.549316,
-2.11945,0.535583,
-2.12402,0.541687,
-2.1225,0.538635,
-2.11792,0.544739,
-2.11029,0.546265,
-2.10724,0.537109,
-2.10571,0.538635,
-2.10876,0.540161,
-2.10571,0.544739,
-2.10419,0.546265,
-2.10266,0.540161,
-2.10114,0.538635,
-2.10419,0.535583,
-2.09961,0.547791,
-2.10114,0.544739,
-2.09961,0.538635,
-2.09503,0.540161,
-2.09351,0.538635,
-2.09198,0.543213,
-2.09045,0.546265,
-2.09351,0.538635,
-2.09045,0.541687,
-2.0874,0.535583,
-2.08588,0.544739,
-2.08282,0.547791,
-2.08435,0.540161,
-2.08435,0.540161,
-2.08435,0.537109,
-2.08588,0.546265,
-2.08282,0.546265,
-2.09045,0.535583,
-2.09198,0.541687,
-2.09961,0.537109,
-2.09503,0.543213,
-2.10114,0.543213,
-2.10266,0.538635,
-2.11029,0.540161,
-2.11792,0.540161,
-2.12402,0.544739,
-2.1347,0.544739,
-2.14386,0.537109,
-2.15302,0.540161,
-2.16217,0.538635,
-2.17743,0.547791,
-2.18353,0.546265,
-2.19269,0.537109,
-2.2049,0.541687,
-2.21252,0.540161,
-2.22168,0.547791,
-2.23236,0.543213,
-2.24152,0.537109,
-2.24915,0.541687,
-2.26288,0.540161,
-2.27356,0.544739,
-2.27966,0.546265,
-2.29034,0.537109,
-2.29645,0.543213,
-2.30255,0.537109,
-2.31323,0.549316,
-2.31934,0.544739,
-2.33154,0.540161,
-2.34375,0.541687,
-2.35138,0.537109,
-2.36206,0.547791,
-2.37122,0.547791,
-2.3819,0.538635,
-2.39258,0.538635,
-2.40326,0.538635,
-2.42157,0.546265,
-2.4292,0.547791,
-2.44293,0.537109,
-2.45209,0.540161,
-2.46124,0.543213,
-2.47192,0.547791,
-2.4826,0.541687,
-2.49481,0.540161,
-2.50244,0.537109,
-2.5116,0.537109,
-2.51923,0.544739,
-2.52686,0.543213,
-2.52838,0.540161,
-2.53601,0.540161,
-2.53754,0.540161,
-2.53143,0.550842,
-2.52686,0.544739,
-2.51923,0.538635,
-2.50092,0.538635,
-2.49023,0.537109,
-2.47345,0.547791,
-2.45972,0.543213,
-2.44293,0.543213,
-2.42157,0.538635,
-2.40021,0.535583,
-2.37579,0.546265,
-2.35291,0.543213,
-2.32849,0.538635,
-2.30255,0.543213,
-2.27356,0.538635,
-2.24457,0.547791,
-2.21405,0.543213,
-2.18353,0.537109,
-2.15607,0.538635,
-2.12402,0.538635,
-2.09351,0.546265,
-2.06604,0.541687,
-2.03857,0.537109,
-2.00958,0.535583,
-1.98059,0.535583,
-1.9516,0.543213,
-1.92871,0.546265,
-1.90277,0.535583,
-1.87988,0.534058,
-1.85242,0.538635,
-1.83716,0.550842,
-1.8158,0.546265,
-1.80054,0.538635,
-1.7807,0.535583,
-1.76392,0.537109,
-1.74713,0.549316,
-1.7334,0.543213,
-1.72272,0.538635,
-1.70746,0.538635,
-1.69525,0.535583,
-1.68152,0.547791,
-1.67542,0.544739,
-1.67236,0.538635,
-1.66779,0.535583,
-1.66779,0.541687,
-1.66626,0.547791,
-1.67389,0.543213,
-1.67847,0.538635,
-1.68304,0.534058,
-1.6922,0.540161,
-1.69983,0.549316,
-1.70593,0.544739,
-1.71204,0.541687,
-1.72119,0.537109,
-1.72882,0.538635,
-1.73187,0.546265,
-1.74255,0.543213,
-1.74408,0.537109,
-1.75934,0.541687,
-1.76392,0.538635,
-1.77002,0.547791,
-1.7746,0.544739,
-1.7807,0.540161,
-1.78375,0.541687,
-1.7868,0.541687,
-1.78986,0.543213,
-1.79596,0.543213,
-1.79596,0.540161,
-1.79901,0.538635,
-1.79596,0.541687,
-1.79749,0.546265,
-1.79596,0.543213,
-1.79596,0.540161,
-1.79596,0.538635,
-1.79138,0.540161,
-1.7868,0.547791,
-1.7868,0.543213,
-1.78528,0.537109,
-1.7807,0.538635,
-1.77765,0.538635,
-1.77155,0.544739,
-1.77002,0.543213,
-1.76697,0.541687,
-1.76392,0.537109,
-1.76239,0.538635,
-1.76544,0.546265,
-1.76086,0.543213,
-1.75629,0.540161,
-1.75171,0.538635,
-1.74866,0.537109,
-1.74713,0.547791,
-1.75018,0.540161,
-1.75018,0.537109,
-1.74713,0.535583,
-1.74408,0.538635,
-1.74408,0.546265,
-1.7395,0.543213,
-1.7395,0.540161,
-1.74255,0.532532,
-1.74408,0.535583,
-1.74713,0.544739,
-1.75018,0.540161,
-1.75629,0.541687,
-1.76544,0.535583,
-1.77155,0.537109,
-1.7746,0.546265,
-1.78223,0.543213,
-1.79596,0.540161,
-1.80511,0.535583,
-1.80511,0.535583,
-1.81427,0.544739,
-1.8219,0.541687,
-1.83105,0.540161,
-1.83716,0.537109,
-1.84784,0.540161,
-1.85242,0.541687,
-1.8631,0.544739,
-1.8692,0.540161,
-1.87836,0.535583,
-1.88904,0.538635,
-1.90125,0.544739,
-1.9165,0.538635,
-1.92719,0.543213,
-1.93787,0.540161,
-1.95007,0.535583,
-1.95923,0.543213,
-1.96686,0.540161,
-1.97906,0.543213,
-1.98975,0.535583,
-2.00195,0.535583,
-2.01721,0.544739,
-2.02789,0.543213,
-2.0462,0.541687,
-2.05994,0.538635,
-2.07062,0.540161,
-2.08282,0.544739,
-2.09198,0.543213,
-2.10876,0.540161,
-2.12097,0.535583,
-2.1347,0.540161,
-2.14386,0.546265,
-2.15302,0.543213,
-2.16064,0.540161,
-2.16522,0.537109,
-2.17133,0.537109,
-2.18353,0.544739,
-2.18811,0.540161,
-2.19116,0.541687,
-2.19269,0.537109,
-2.19116,0.538635,
-2.18964,0.541687,
-2.18506,0.540161,
-2.17743,0.544739,
-2.16522,0.537109,
-2.15454,0.537109,
-2.13318,0.543213,
-2.11639,0.541687,
-2.09198,0.541687,
-2.07062,0.535583,
-2.04773,0.540161,
-2.01874,0.541687,
-1.99127,0.538635,
-1.96228,0.540161,
-1.93176,0.538635,
-1.89667,0.537109,
-1.86462,0.541687,
-1.8219,0.541687,
-1.78986,0.541687,
-1.75934,0.537109,
-1.72272,0.535583,
-1.68762,0.543213,
-1.65405,0.543213,
-1.62354,0.541687,
-1.58844,0.535583,
-1.55487,0.534058,
-1.5213,0.543213,
-1.48621,0.540161,
-1.46027,0.541687,
-1.43585,0.537109,
-1.40533,0.535583,
-1.37939,0.543213,
-1.35498,0.538635,
-1.33362,0.541687,
-1.31683,0.538635,
-1.3031,0.535583,
-1.28784,0.538635,
-1.28021,0.543213,
-1.26648,0.541687,
-1.25732,0.538635,
-1.24817,0.535583,
-1.23749,0.541687,
-1.23749,0.543213,
-1.23291,0.541687,
-1.23596,0.535583,
-1.23596,0.532532,
-1.23596,0.538635,
-1.24512,0.541687,
-1.25275,0.538635,
-1.2619,0.534058,
-1.26953,0.535583,
-1.28479,0.538635,
-1.297,0.540161,
-1.30157,0.544739,
-1.31683,0.534058,
-1.32751,0.535583,
-1.33514,0.543213,
-1.3504,0.538635,
-1.36261,0.544739,
-1.36871,0.537109,
-1.38702,0.532532,
-1.40076,0.541687,
-1.40839,0.541687,
-1.41907,0.543213,
-1.42975,0.538635,
-1.43738,0.534058,
-1.44196,0.540161,
-1.44958,0.538635,
-1.45264,0.543213,
-1.45416,0.534058,
-1.45416,0.534058,
-1.45874,0.540161,
-1.46332,0.538635,
-1.46332,0.543213,
-1.46484,0.538635,
-1.46637,0.532532,
-1.4679,0.540161,
-1.4679,0.537109,
-1.47095,0.543213,
-1.47095,0.535583,
-1.47247,0.534058,
-1.4679,0.541687,
-1.47247,0.540161,
-1.474,0.541687,
-1.47552,0.535583,
-1.47552,0.532532,
-1.47247,0.540161,
-1.46942,0.540161,
-1.47247,0.541687,
-1.47095,0.537109,
-1.46637,0.537109,
-1.46179,0.540161,
-1.45874,0.540161,
-1.45569,0.543213,
-1.45569,0.538635,
-1.45264,0.532532,
-1.45569,0.537109,
-1.45416,0.538635,
-1.46027,0.541687,
-1.46179,0.535583,
-1.4679,0.534058,
-1.47095,0.538635,
-1.4801,0.537109,
-1.48468,0.538635,
-1.48773,0.535583,
-1.49689,0.534058,
-1.49994,0.541687,
-1.50452,0.537109,
-1.50909,0.540161,
-1.51672,0.535583,
-1.52435,0.534058,
-1.53351,0.537109,
-1.54266,0.538635,
-1.55182,0.538635,
-1.56555,0.534058,
-1.57471,0.532532,
-1.59149,0.537109,
-1.59912,0.537109,
-1.61438,0.540161,
-1.62201,0.534058,
-1.63422,0.532532,
-1.6449,0.535583,
-1.65863,0.535583,
-1.67389,0.535583,
-1.67847,0.532532,
-1.68915,0.526428,
-1.6983,0.540161,
-1.70898,0.535583,
-1.72272,0.538635,
-1.7334,0.52948,
-1.7395,0.52948,
-1.75476,0.538635,
-1.76849,0.535583,
-1.7807,0.538635,
-1.79443,0.534058,
-1.80969,0.532532,
-1.82495,0.537109,
-1.83563,0.538635,
-1.84937,0.537109,
-1.87073,0.532532,
-1.87988,0.532532,
-1.89819,0.538635,
-1.90887,0.537109,
-1.92261,0.538635,
-1.93634,0.535583,
-1.95007,0.52948,
-1.9577,0.540161,
-1.96838,0.538635,
-1.97754,0.538635,
-1.97601,0.538635,
-1.97449,0.534058,
-1.97296,0.537109,
-1.97144,0.537109,
-1.9577,0.537109,
-1.94855,0.537109,
-1.93024,0.532532,
-1.91345,0.538635,
-1.89056,0.538635,
-1.86768,0.537109,
-1.84174,0.538635,
-1.81427,0.532532,
-1.78528,0.537109,
-1.75781,0.537109,
-1.72882,0.537109,
-1.69983,0.540161,
-1.66016,0.52948,
-1.62659,0.537109,
-1.59149,0.535583,
-1.5564,0.538635,
-1.5152,0.538635,
-1.474,0.52948,
-1.43738,0.538635,
-1.40076,0.537109,
-1.36261,0.538635,
-1.32751,0.537109,
-1.29242,0.532532,
-1.2558,0.537109,
-1.22681,0.534058,
-1.19781,0.538635,
-1.16425,0.535583,
-1.14136,0.52948,
-1.11542,0.534058,
-1.09711,0.534058,
-1.07269,0.537109,
-1.05286,0.538635,
-1.0376,0.52948,
-1.01929,0.534058,
-1.00861,0.52948,
-0.996399,0.537109,
-0.987244,0.532532,
-0.984192,0.52948,
-0.978088,0.537109,
-0.975037,0.532532,
-0.968933,0.537109,
-0.970459,0.535583,
-0.973511,0.534058,
-0.971985,0.535583,
-0.978088,0.532532,
-0.985718,0.535583,
-0.991821,0.532532,
-1.00403,0.527954,
-1.01013,0.538635,
-1.02386,0.534058,
-1.04065,0.537109,
-1.05286,0.52948,
-1.06506,0.527954,
-1.07574,0.532532,
-1.08643,0.534058,
-1.09558,0.537109,
-1.10474,0.527954,
-1.11237,0.52948,
-1.12152,0.534058,
-1.13068,0.532532,
-1.14288,0.532532,
-1.14746,0.52948,
-1.15662,0.52948,
-1.16272,0.534058,
-1.16577,0.535583,
-1.17188,0.534058,
-1.1734,0.532532,
-1.18103,0.527954,
-1.18408,0.532532,
-1.18256,0.534058,
-1.18256,0.535583,
-1.17798,0.532532,
-1.17645,0.52948,
-1.1734,0.535583,
-1.17035,0.534058,
-1.17035,0.535583,
-1.17035,0.527954,
-1.1673,0.52948,
-1.17035,0.534058,
-1.17493,0.52948,
-1.17645,0.537109,
-1.17645,0.532532,
-1.17798,0.52948,
-1.17645,0.535583,
-1.17035,0.52948,
-1.16425,0.535583,
-1.16272,0.52948,
-1.16425,0.527954,
-1.16272,0.532532,
-1.17188,0.535583,
-1.17493,0.537109,
-1.17798,0.526428,
-1.18256,0.527954,
-1.18713,0.534058,
-1.18866,0.52948,
-1.19171,0.535583,
-1.19476,0.532532,
-1.20697,0.524902,
-1.21002,0.535583,
-1.2207,0.532532,
-1.22681,0.537109,
-1.23749,0.526428,
-1.24817,0.52948,
-1.25885,0.534058,
-1.26953,0.532532,
-1.28174,0.537109,
-1.28937,0.526428,
-1.29852,0.52948,
-1.31073,0.527954,
-1.31836,0.532532,
-1.33057,0.535583,
-1.33972,0.532532,
-1.35498,0.52948,
-1.36719,0.52948,
-1.37482,0.534058,
-1.3855,0.535583,
-1.39923,0.526428,
-1.41296,0.527954,
-1.42822,0.532532,
-1.4389,0.526428,
-1.44806,0.532532,
-1.46332,0.532532,
-1.474,0.532532,
-1.48621,0.532532,
-1.49689,0.52948,
-1.51215,0.532532,
-1.52435,0.52948,
-1.53656,0.527954,
-1.55029,0.534058,
-1.56403,0.52948,
-1.57928,0.534058,
-1.5976,0.527954,
-1.61133,0.532532,
-1.62506,0.52948,
-1.63879,0.52948,
-1.64948,0.534058,
-1.66626,0.527954,
-1.67236,0.527954,
-1.68762,0.527954,
-1.70135,0.52948,
-1.71204,0.52948,
-1.72272,0.527954,
-1.7334,0.527954,
-1.74713,0.52948,
-1.75629,0.532532,
-1.76697,0.535583,
-1.7746,0.532532,
-1.7807,0.527954,
-1.77765,0.527954,
-1.77612,0.526428,
-1.77002,0.534058,
-1.76849,0.527954,
-1.75934,0.526428,
-1.7395,0.52948,
-1.72424,0.532532,
-1.70441,0.535583,
-1.68152,0.527954,
-1.6571,0.527954,
-1.62964,0.52948,
-1.60217,0.534058,
-1.57166,0.534058,
-1.54114,0.524902,
-1.50757,0.527954,
-1.474,0.527954,
-1.4389,0.532532,
-1.40381,0.537109,
-1.37024,0.52948,
-1.33514,0.52948,
-1.29852,0.527954,
-1.2619,0.532532,
-1.22681,0.532532,
-1.18713,0.532532,
-1.15662,0.524902,
-1.12457,0.527954,
-1.09406,0.532532,
-1.06049,0.532532,
-1.02997,0.526428,
-1.00403,0.527954,
-0.976563,0.526428,
-0.9552,0.532532,
-0.930786,0.534058,
-0.91095,0.527954,
-0.892639,0.52948,
-0.881958,0.524902,
-0.869751,0.532532,
-0.863647,0.534058,
-0.852966,0.527954,
-0.848389,0.526428,
-0.85144,0.526428,
-0.848389,0.534058,
-0.846863,0.534058,
-0.849915,0.526428,
-0.852966,0.52948,
-0.856018,0.526428,
-0.862122,0.535583,
-0.871277,0.534058,
-0.880432,0.524902,
-0.891113,0.526428,
-0.901794,0.526428,
-0.915527,0.532532,
-0.927734,0.52948,
-0.939941,0.527954,
-0.959778,0.52948,
-0.970459,0.52948,
-0.984192,0.534058,
-1.00098,0.532532,
-1.01013,0.526428,
-1.02692,0.526428,
-1.03912,0.527954,
-1.05591,0.534058,
-1.06354,0.534058,
-1.0788,0.526428,
-1.08795,0.527954,
-1.09863,0.523376,
-1.10931,0.534058,
-1.11694,0.532532,
-1.12457,0.524902,
-1.12915,0.524902,
-1.13373,0.527954,
-1.13373,0.534058,
-1.13983,0.52948,
-1.14136,0.527954,
-1.14594,0.523376,
-1.14594,0.526428,
-1.14746,0.535583,
-1.15509,0.532532,
-1.15051,0.526428,
-1.15509,0.526428,
-1.15204,0.527954,
-1.15356,0.534058,
-1.15356,0.527954,
-1.15509,0.52948,
-1.14746,0.527954,
-1.14899,0.52948,
-1.14594,0.532532,
-1.14594,0.534058,
-1.14899,0.526428,
-1.14899,0.52948,
-1.14899,0.524902,
-1.15356,0.532532,
-1.15509,0.532532,
-1.15814,0.523376,
-1.16272,0.526428,
-1.16577,0.527954,
-1.17035,0.534058,
-1.17798,0.534058,
-1.18408,0.526428,
-1.19019,0.524902,
-1.19476,0.527954,
-1.20239,0.532532,
-1.2085,0.534058,
-1.2207,0.526428,
-1.22833,0.52948,
-1.23596,0.527954,
-1.24512,0.537109,
-1.24817,0.532532,
-1.2558,0.526428,
-1.26343,0.526428,
-1.26953,0.523376,
-1.27411,0.532532,
-1.28479,0.532532,
-1.29395,0.524902,
-1.29852,0.527954,
-1.3031,0.526428,
-1.31226,0.537109,
-1.31836,0.532532,
-1.33362,0.524902,
-1.33972,0.527954,
-1.35651,0.526428,
-1.37024,0.535583,
-1.38702,0.532532,
-1.40228,0.523376,
-1.41449,0.534058,
-1.42365,0.526428,
-1.4389,0.534058,
-1.45416,0.532532,
-1.46484,0.523376,
-1.48468,0.527954,
-1.50146,0.527954,
-1.51062,0.535583,
-1.52283,0.534058,
-1.53809,0.524902,
-1.55029,0.524902,
-1.56708,0.52948,
-1.58539,0.532532,
-1.5976,0.535583,
-1.61133,0.523376,
-1.62964,0.52948,
-1.64337,0.527954,
-1.65863,0.534058,
-1.67694,0.535583,
-1.69067,0.523376,
-1.70746,0.52948,
-1.72119,0.527954,
-1.7395,0.532532,
-1.75476,0.534058,
-1.76086,0.521851,
-1.77002,0.52948,
-1.78223,0.526428,
-1.79291,0.532532,
-1.79596,0.532532,
-1.79749,0.524902,
-1.79901,0.52948,
-1.79596,0.526428,
-1.7868,0.534058,
-1.77917,0.535583,
-1.76849,0.523376,
-1.75934,0.527954,
-1.74408,0.527954,
-1.72729,0.532532,
-1.70898,0.535583,
-1.68762,0.524902,
-1.66321,0.52948,
-1.63727,0.527954,
-1.61438,0.534058,
-1.58691,0.535583,
-1.55792,0.526428,
-1.53046,0.527954,
-1.49994,0.527954,
-1.46484,0.532532,
-1.4328,0.534058,
-1.39923,0.523376,
-1.36566,0.527954,
-1.32904,0.523376,
-1.30005,0.534058,
-1.27411,0.534058,
-1.24359,0.526428,
-1.21307,0.526428,
-1.18713,0.532532,
-1.16119,0.537109,
-1.13678,0.538635,
-1.11237,0.524902,
-1.091,0.52948,
-1.07269,0.526428,
-1.05286,0.535583,
-1.02997,0.534058,
-1.01776,0.526428,
-1.01013,0.532532,
-0.996399,0.527954,
-0.991821,0.534058,
-0.985718,0.537109,
-0.982666,0.523376,
-0.979614,0.527954,
-0.984192,0.52948,
-0.987244,0.532532,
-0.985718,0.535583,
-0.98877,0.526428,
-0.991821,0.52948,
-0.999451,0.527954,
-1.00098,0.537109,
-1.01318,0.538635,
-1.01624,0.526428,
-1.02692,0.527954,
-1.03912,0.52948,
-1.05286,0.535583,
-1.06506,0.535583,
-1.08032,0.527954,
-1.09253,0.532532,
-1.10626,0.52948,
-1.11847,0.534058,
-1.12457,0.535583,
-1.13831,0.527954,
-1.14441,0.52948,
-1.15356,0.527954,
-1.16272,0.537109,
-1.17188,0.537109,
-1.17798,0.523376,
-1.18713,0.532532,
-1.19171,0.52948,
-1.19781,0.540161,
-1.19781,0.537109,
-1.20544,0.526428,
-1.21307,0.527954,
-1.21765,0.534058,
-1.22223,0.537109,
-1.22681,0.537109,
-1.23138,0.527954,
-1.23596,0.524902,
-1.23749,0.52948,
-1.23749,0.537109,
-1.24359,0.535583,
-1.24359,0.52948,
-1.24969,0.524902,
-1.25275,0.52948,
-1.25122,0.540161,
-1.25427,0.535583,
-1.25885,0.52948,
-1.2619,0.52948,
-1.26953,0.526428,
-1.27411,0.538635,
-1.27411,0.535583,
-1.27869,0.532532,
-1.28174,0.526428,
-1.28632,0.52948,
-1.28937,0.537109,
-1.29852,0.537109,
-1.30463,0.532532,
-1.3092,0.526428,
-1.31683,0.532532,
-1.32751,0.537109,
-1.3382,0.535583,
-1.3504,0.532532,
-1.35498,0.527954,
-1.36566,0.532532,
-1.37939,0.538635,
-1.3855,0.537109,
-1.39465,0.52948,
-1.40228,0.52948,
-1.41907,0.534058,
-1.42365,0.534058,
-1.43585,0.532532,
-1.44196,0.52948,
-1.45416,0.534058,
-1.46637,0.534058,
-1.474,0.540161,
-1.48621,0.532532,
-1.49841,0.526428,
-1.51062,0.52948,
-1.51978,0.534058,
-1.53351,0.537109,
-1.54572,0.535583,
-1.55792,0.52948,
-1.57013,0.527954,
-1.58386,0.534058,
-1.58997,0.537109,
-1.60065,0.534058,
-1.61438,0.52948,
-1.62506,0.527954,
-1.63727,0.532532,
-1.65405,0.537109,
-1.66779,0.532532,
-1.67999,0.534058,
-1.6983,0.52948,
-1.71509,0.534058,
-1.73035,0.538635,
-1.74561,0.534058,
-1.76392,0.52948,
-1.78223,0.527954,
-1.80206,0.535583,
-1.81274,0.538635,
-1.83563,0.532532,
-1.85394,0.535583,
-1.87073,0.52948,
-1.88446,0.535583,
-1.90735,0.537109,
-1.92108,0.532532,
-1.93939,0.535583,
-1.95618,0.527954,
-1.96991,0.535583,
-1.98212,0.538635,
-2.00043,0.537109,
-2.01111,0.535583,
-2.02789,0.527954,
-2.03857,0.535583,
-2.05383,0.538635,
-2.06451,0.535583,
-2.07062,0.535583,
-2.0752,0.527954,
-2.07825,0.534058,
-2.07672,0.540161,
-2.0813,0.535583,
-2.0752,0.535583,
-2.06909,0.52948,
-2.05536,0.535583,
-2.04468,0.538635,
-2.02789,0.535583,
-2.00806,0.534058,
-1.98517,0.52948,
-1.96381,0.535583,
-1.93939,0.535583,
-1.91803,0.534058,
-1.89362,0.534058,
-1.86615,0.526428,
-1.83868,0.534058,
-1.80511,0.540161,
-1.77612,0.535583,
-1.74408,0.534058,
-1.71509,0.526428,
-1.68762,0.538635,
-1.6571,0.543213,
-1.62659,0.534058,
-1.59912,0.538635,
-1.5686,0.52948,
-1.53961,0.538635,
-1.51825,0.540161,
-1.49384,0.538635,
-1.47247,0.534058,
-1.45569,0.532532,
-1.43585,0.538635,
-1.42212,0.537109,
-1.40686,0.535583,
-1.39313,0.534058,
-1.37939,0.526428,
-1.36414,0.540161,
-1.35956,0.538635,
-1.3504,0.535583,
-1.34888,0.537109,
-1.34735,0.52948,
-1.3443,0.538635,
-1.3443,0.541687,
-1.3443,0.537109,
-1.34583,0.538635,
-1.3504,0.526428,
-1.35345,0.541687,
-1.35651,0.540161,
-1.35956,0.538635,
-1.36414,0.537109,
-1.37177,0.527954,
-1.37787,0.541687,
-1.38397,0.541687,
-1.3916,0.537109,
-1.40228,0.535583,
-1.41296,0.526428,
-1.42517,0.541687,
-1.43433,0.541687,
-1.44806,0.540161,
-1.45874,0.537109,
-1.46942,0.526428,
-1.48163,0.540161,
-1.49231,0.540161,
-1.49994,0.538635,
-1.51062,0.535583,
-1.51825,0.527954,
-1.5274,0.540161,
-1.53351,0.544739,
-1.53809,0.538635,
-1.53961,0.537109,
-1.54877,0.52948,
-1.55182,0.541687,
-1.55334,0.540161,
-1.56097,0.540161,
-1.5686,0.538635,
-1.56708,0.527954,
-1.57471,0.537109,
-1.57776,0.541687,
-1.58081,0.537109,
-1.57928,0.540161,
-1.58386,0.527954,
-1.58691,0.540161,
-1.59149,0.541687,
-1.59454,0.537109,
-1.5976,0.538635,
-1.60522,0.527954,
-1.60675,0.538635,
-1.61133,0.537109,
-1.6098,0.538635,
-1.60828,0.540161,
-1.61438,0.52948,
-1.61438,0.538635,
-1.62048,0.535583,
-1.62048,0.540161,
-1.63116,0.540161,
-1.63422,0.526428,
-1.63879,0.540161,
-1.64948,0.538635,
-1.65405,0.541687,
-1.66168,0.537109,
-1.67084,0.524902,
-1.67847,0.538635,
-1.67999,0.540161,
-1.69067,0.540161,
-1.6983,0.537109,
-1.71051,0.524902,
-1.71814,0.541687,
-1.73187,0.543213,
-1.7395,0.540161,
-1.75629,0.538635,
-1.76697,0.523376,
-1.77917,0.537109,
-1.79291,0.544739,
-1.80359,0.540161,
-1.81732,0.540161,
-1.83258,0.524902,
-1.84784,0.535583,
-1.86157,0.543213,
-1.87836,0.538635,
-1.89056,0.538635,
-1.90582,0.527954,
-1.91803,0.540161,
-1.93634,0.538635,
-1.95007,0.535583,
-1.96228,0.537109,
-1.97449,0.527954,
-1.98822,0.541687,
-2.005,0.541687,
-2.02179,0.537109,
-2.03705,0.537109,
-2.0462,0.526428,
-2.06451,0.541687,
-2.0752,0.541687,
-2.0874,0.540161,
-2.10114,0.538635,
-2.11487,0.526428,
-2.1225,0.540161,
-2.1347,0.541687,
-2.14844,0.541687,
-2.16064,0.538635,
-2.17285,0.527954,
-2.18048,0.537109,
-2.19574,0.538635,
-2.20947,0.537109,
-2.21863,0.541687,
-2.23236,0.524902,
-2.24304,0.540161,
-2.25525,0.538635,
-2.27051,0.541687,
-2.27814,0.538635,
-2.28882,0.527954,
-2.30255,0.538635,
-2.31934,0.544739,
-2.32849,0.538635,
-2.3407,0.540161,
-2.35443,0.52948,
-2.36664,0.540161,
-2.37427,0.540161,
-2.38495,0.541687,
-2.39258,0.540161,
-2.40021,0.527954,
-2.41089,0.538635,
-2.41852,0.543213,
-2.42462,0.540161,
-2.42615,0.538635,
-2.43073,0.527954,
-2.42462,0.537109,
-2.42462,0.538635,
-2.42004,0.538635,
-2.41241,0.535583,
-2.39868,0.527954,
-2.39105,0.540161,
-2.37885,0.540161,
-2.36664,0.541687,
-2.35138,0.537109,
-2.33612,0.527954,
-2.32086,0.541687,
-2.29797,0.537109,
-2.27814,0.541687,
-2.25067,0.540161,
-2.22778,0.52948,
-2.20947,0.541687,
-2.18811,0.537109,
-2.16522,0.543213,
-2.14539,0.540161,
-2.12708,0.52948,
-2.10266,0.540161,
-2.07825,0.537109,
-2.05688,0.541687,
-2.0401,0.538635,
-2.02332,0.52948,
-2.00806,0.543213,
-1.98975,0.540161,
-1.97906,0.540161,
-1.96838,0.537109,
-1.9577,0.527954,
-1.94702,0.543213,
-1.93634,0.540161,
-1.92261,0.540161,
-1.9165,0.540161,
-1.9104,0.526428,
-1.9043,0.543213,
-1.90277,0.541687,
-1.89819,0.538635,
-1.89667,0.538635,
-1.89056,0.52948,
-1.89056,0.541687,
-1.89056,0.541687,
-1.89667,0.537109,
-1.89667,0.537109,
-1.90125,0.535583,
-1.9043,0.541687,
-1.90735,0.540161,
-1.91345,0.541687,
-1.92261,0.537109,
-1.93329,0.532532,
-1.94092,0.543213,
-1.9577,0.540161,
-1.96686,0.544739,
-1.97144,0.535583,
-1.98059,0.534058,
-1.98517,0.544739,
-2.00043,0.540161,
-2.005,0.540161,
-2.00806,0.537109,
-2.01721,0.534058,
-2.02637,0.546265,
-2.03552,0.538635,
-2.04163,0.541687,
-2.0462,0.534058,
-2.04926,0.535583,
-2.05231,0.543213,
-2.05536,0.541687,
-2.05231,0.540161,
-2.05994,0.535583,
-2.05841,0.535583,
-2.06146,0.543213,
-2.06604,0.541687,
-2.06909,0.543213,
-2.07062,0.535583,
-2.07062,0.534058,
-2.07214,0.540161,
-2.06909,0.541687,
-2.07214,0.540161,
-2.06757,0.534058,
-2.06909,0.535583,
-2.06757,0.541687,
-2.07062,0.541687,
-2.06757,0.540161,
-2.06909,0.532532,
-2.06909,0.538635,
-2.06909,0.540161,
-2.07367,0.540161,
-2.07977,0.541687,
-2.0813,0.534058,
-2.08588,0.535583,
-2.09045,0.546265,
-2.09351,0.541687,
-2.09961,0.538635,
-2.10419,0.534058,
-2.11029,0.538635,
-2.11487,0.540161,
-2.12097,0.544739,
-2.13623,0.541687,
-2.14233,0.534058,
-2.14844,0.537109,
-2.15302,0.543213,
-2.16064,0.544739,
-2.16522,0.541687,
-2.17743,0.538635,
-2.18048,0.538635,
-2.18964,0.541687,
-2.19574,0.540161,
-2.20642,0.541687,
-2.21863,0.537109,
-2.22626,0.538635,
-2.23389,0.543213,
-2.24304,0.546265,
-2.24609,0.541687,
-2.25372,0.534058,
-2.26288,0.535583,
-2.27661,0.543213,
-2.28729,0.540161,
-2.2995,0.544739,
-2.31171,0.535583,
-2.32086,0.540161,
-2.33307,0.543213,
-2.34222,0.544739,
-2.35291,0.543213,
-2.35901,0.537109,
-2.36664,0.538635,
-2.37122,0.544739,
-2.38495,0.543213,
-2.38953,0.547791,
-2.39868,0.535583,
-2.41394,0.538635,
-2.42157,0.544739,
-2.43073,0.546265,
-2.44598,0.543213,
-2.45361,0.537109,
-2.46429,0.538635,
-2.4826,0.547791,
-2.49329,0.544739,
-2.50092,0.544739,
-2.51923,0.537109,
-2.52686,0.541687,
-2.54059,0.541687,
-2.55432,0.546265,
-2.56348,0.546265,
-2.57263,0.535583,
-2.58789,0.540161,
-2.59857,0.546265,
-2.6123,0.544739,
-2.63062,0.543213,
-2.63824,0.540161,
-2.64893,0.543213,
-2.66113,0.541687,
-2.67334,0.544739,
-2.68555,0.544739,
-2.6947,0.535583,
-2.70844,0.541687,
-2.71759,0.544739,
-2.72675,0.544739,
-2.73285,0.546265,
-2.73895,0.537109,
-2.74658,0.543213,
-2.75269,0.544739,
-2.75879,0.546265,
-2.76184,0.547791,
-2.76489,0.538635,
-2.76031,0.541687,
-2.76031,0.546265,
-2.75726,0.547791,
-2.74963,0.546265,
-2.73895,0.540161,
-2.7298,0.541687,
-2.71454,0.544739,
-2.69775,0.549316,
-2.68707,0.546265,
-2.66571,0.540161,
-2.64282,0.543213,
-2.61993,0.544739,
-2.59552,0.547791,
-2.57263,0.550842,
-2.54974,0.537109,
-2.52533,0.541687,
-2.49939,0.546265,
-2.47498,0.552368,
-2.45209,0.547791,
-2.42767,0.543213,
-2.40173,0.544739,
-2.37885,0.546265,
-2.35443,0.547791,
-2.33459,0.549316,
-2.31628,0.543213,
-2.2995,0.543213,
-2.27966,0.544739,
-2.25983,0.547791,
-2.24762,0.547791,
-2.22473,0.541687,
-2.21252,0.543213,
-2.19879,0.544739,
-2.18964,0.546265,
-2.18506,0.549316,
-2.17438,0.544739,
-2.16827,0.544739,
-2.16064,0.543213,
-2.15912,0.549316,
-2.15454,0.549316,
-2.15149,0.540161,
-2.14996,0.544739,
-2.14691,0.544739,
-2.14386,0.549316,
-2.14539,0.549316,
-2.15454,0.544739,
-2.15759,0.546265,
-2.16064,0.546265,
-2.16522,0.546265,
-2.17133,0.546265,
-2.1759,0.543213,
-2.18353,0.541687,
-2.17896,0.546265,
-2.18506,0.547791,
-2.18658,0.550842,
-2.18506,0.543213,
-2.19574,0.544739,
-2.19574,0.543213,
-2.19879,0.549316,
-2.20642,0.547791,
-2.20642,0.547791,
-2.21405,0.546265,
-2.2171,0.546265,
-2.22015,0.552368,
-2.22321,0.550842,
-2.22015,0.544739,
-2.22473,0.544739,
-2.22626,0.546265,
-2.23083,0.549316,
-2.22931,0.550842,
-2.23694,0.544739,
-2.23694,0.547791,
-2.23389,0.546265,
-2.23846,0.550842,
-2.23999,0.549316,
-2.23694,0.541687,
-2.23999,0.544739,
-2.22931,0.543213,
-2.23083,0.549316,
-2.23083,0.55542,
-2.22778,0.549316,
-2.22626,0.547791,
-2.22626,0.541687,
-2.22168,0.550842,
-2.22321,0.552368,
-2.22321,0.547791,
-2.22015,0.546265,
-2.21863,0.544739,
-2.22168,0.556946,
-2.22473,0.552368,
-2.22626,0.546265,
-2.22778,0.546265,
-2.22778,0.543213,
-2.23236,0.553894,
-2.23389,0.552368,
-2.23694,0.547791,
-2.23846,0.547791,
-2.24152,0.544739,
-2.24609,0.550842,
-2.24915,0.552368,
-2.25372,0.547791,
-2.2583,0.546265,
-2.25983,0.544739,
-2.2644,0.553894,
-2.27051,0.552368,
-2.27509,0.549316,
-2.28577,0.549316,
-2.29034,0.546265,
-2.29645,0.552368,
-2.3056,0.552368,
-2.31476,0.549316,
-2.32391,0.549316,
-2.33154,0.547791,
-2.34375,0.550842,
-2.35596,0.553894,
-2.36664,0.549316,
-2.37732,0.547791,
-2.38647,0.547791,
-2.40021,0.552368,
-2.40479,0.552368,
-2.41699,0.552368,
-2.43073,0.547791,
-2.43683,0.546265,
-2.44904,0.550842,
-2.46124,0.553894,
-2.46887,0.549316,
-2.48108,0.547791,
-2.48871,0.540161,
-2.49939,0.553894,
-2.50854,0.553894,
-2.5116,0.550842,
-2.51617,0.550842,
-2.51923,0.549316,
-2.5238,0.553894,
-2.53143,0.553894,
-2.53448,0.546265,
-2.54364,0.549316,
-2.5528,0.546265,
-2.56195,0.550842,
-2.57263,0.55542,
-2.58331,0.550842,
-2.59857,0.552368,
-2.60925,0.546265,
-2.61841,0.55542,
-2.62604,0.553894,
-2.63214,0.552368,
-2.64435,0.550842,
-2.6535,0.549316,
-2.66113,0.556946,
-2.67181,0.552368,
-2.68097,0.552368,
-2.69012,0.550842,
-2.69775,0.547791,
-2.70538,0.553894,
-2.71912,0.556946,
-2.72675,0.553894,
-2.73895,0.549316,
-2.74811,0.549316,
-2.76031,0.553894,
-2.77557,0.556946,
-2.78625,0.552368,
-2.79541,0.550842,
-2.80609,0.547791,
-2.81677,0.553894,
-2.82593,0.552368,
-2.82898,0.552368,
-2.83356,0.552368,
-2.83203,0.547791,
-2.82898,0.550842,
-2.83051,0.552368,
-2.82745,0.552368,
-2.8244,0.550842,
-2.82288,0.547791,
-2.81219,0.549316,
-2.80457,0.553894,
-2.79236,0.552368,
-2.7771,0.549316,
-2.76489,0.547791,
-2.74353,0.549316,
-2.72522,0.55542,
-2.71149,0.552368,
-2.6886,0.552368,
-2.67181,0.546265,
-2.65045,0.552368,
-2.63214,0.553894,
-2.61078,0.549316,
-2.59094,0.552368,
-2.57263,0.552368,
-2.55432,0.55542,
-2.53601,0.55542,
-2.51617,0.549316,
-2.49786,0.55542,
-2.48108,0.549316,
-2.45972,0.553894,
-2.44293,0.553894,
-2.42157,0.553894,
-2.40326,0.553894,
-2.38953,0.547791,
-2.37427,0.55542,
-2.35748,0.55542,
-2.34528,0.550842,
-2.32544,0.553894,
-2.31934,0.547791,
-2.30713,0.556946,
-2.29492,0.556946,
-2.28882,0.55542,
-2.28577,0.552368,
-2.27661,0.549316,
-2.26746,0.556946,
-2.26288,0.552368,
-2.26135,0.553894,
-2.25677,0.55542,
-2.25372,0.550842,
-2.24762,0.55542,
-2.24609,0.556946,
-2.24304,0.55542,
-2.24304,0.55542,
-2.23846,0.552368,
-2.23389,0.559998,
-2.23999,0.553894,
-2.23999,0.550842,
-2.23999,0.556946,
-2.24762,0.550842,
-2.24762,0.558472,
-2.2522,0.55542,
-2.25525,0.553894,
-2.25983,0.552368,
-2.25983,0.552368,
-2.2644,0.559998,
-2.26593,0.556946,
-2.27051,0.556946,
-2.27356,0.556946,
-2.27814,0.552368,
-2.27966,0.55542,
-2.28119,0.558472,
-2.28577,0.558472,
-2.28882,0.553894,
-2.28882,0.550842,
-2.29645,0.558472,
-2.29645,0.553894,
-2.29645,0.556946,
-2.2995,0.556946,
-2.2934,0.549316,
-2.2934,0.559998,
-2.28882,0.55542,
-2.29034,0.556946,
-2.29034,0.55542,
-2.28882,0.550842,
-2.28729,0.556946,
-2.27814,0.55542,
-2.28424,0.556946,
-2.28271,0.552368,
-2.27814,0.550842,
-2.27966,0.556946,
-2.27966,0.553894,
-2.27966,0.558472,
-2.28424,0.55542,
-2.28577,0.550842,
-2.28729,0.55542,
-2.28882,0.556946,
-2.29187,0.558472,
-2.29492,0.552368,
-2.30103,0.553894,
-2.3056,0.558472,
-2.31018,0.558472,
-2.31934,0.558472,
-2.32697,0.558472,
-2.33307,0.552368,
-2.33917,0.556946,
-2.3468,0.55542,
-2.35291,0.55542,
-2.35443,0.549316,
-2.36359,0.552368,
-2.37427,0.55542,
-2.388,0.55542,
-2.39716,0.55542,
-2.40936,0.55542,
-2.41852,0.550842,
-2.42615,0.556946,
-2.43073,0.552368,
-2.44293,0.556946,
-2.45209,0.553894,
-2.46124,0.552368,
-2.4704,0.558472,
-2.47955,0.55542,
-2.48718,0.556946,
-2.49634,0.55542,
-2.50397,0.550842,
-2.50702,0.55542,
-2.51617,0.553894,
-2.52533,0.553894,
-2.53296,0.552368,
-2.54059,0.552368,
-2.55127,0.556946,
-2.56042,0.552368,
-2.56958,0.558472,
-2.58026,0.552368,
-2.59094,0.552368,
-2.6001,0.556946,
-2.61078,0.553894,
-2.62604,0.556946,
-2.63214,0.552368,
-2.6413,0.550842,
-2.65198,0.558472,
-2.66113,0.558472,
-2.66418,0.55542,
-2.67487,0.552368,
-2.68097,0.550842,
-2.6947,0.558472,
-2.70538,0.55542,
-2.71759,0.556946,
-2.72675,0.550842,
-2.7359,0.549316,
-2.74658,0.558472,
-2.76031,0.556946,
-2.76489,0.556946,
-2.77252,0.552368,
-2.77863,0.552368,
-2.78625,0.55542,
-2.79846,0.553894,
-2.81067,0.55542,
-2.8183,0.552368,
-2.83051,0.553894,
-2.84119,0.55542,
-2.84882,0.556946,
-2.85492,0.558472,
-2.86407,0.552368,
-2.87628,0.549316,
-2.88391,0.556946,
-2.89307,0.556946,
-2.9068,0.556946,
-2.9129,0.550842,
-2.92511,0.549316,
-2.93274,0.55542,
-2.94189,0.553894,
-2.94952,0.558472,
-2.95868,0.552368,
-2.96783,0.550842,
-2.97546,0.558472,
-2.98309,0.552368,
-2.99072,0.558472,
-2.99835,0.552368,
-3.00598,0.549316,
-3.01819,0.55542,
-3.02429,0.556946,
-3.02734,0.556946,
-3.02429,0.550842,
-3.02734,0.546265,
-3.02734,0.55542,
-3.02124,0.553894,
-3.01971,0.553894,
-3.01361,0.550842,
-3.0014,0.549316,
-2.99377,0.55542,
-2.98004,0.552368,
-2.96783,0.558472,
-2.95105,0.549316,
-2.93427,0.553894,
-2.91595,0.55542,
-2.89459,0.552368,
-2.87781,0.556946,
-2.85187,0.550842,
-2.83203,0.549316,
-2.80762,0.556946,
-2.78168,0.55542,
-2.75574,0.558472,
-2.72675,0.547791,
-2.70233,0.549316,
-2.67792,0.556946,
-2.6535,0.550842,
-2.63367,0.556946,
-2.60773,0.549316,
-2.59094,0.549316,
-2.57416,0.558472,
-2.55432,0.550842,
-2.54059,0.55542,
-2.5238,0.550842,
-2.50854,0.552368,
-2.49481,0.556946,
-2.48108,0.553894,
-2.4704,0.558472,
-2.45667,0.550842,
-2.45056,0.549316,
-2.44446,0.552368,
-2.43073,0.552368,
-2.42767,0.556946,
-2.42615,0.549316,
-2.41699,0.549316,
-2.41547,0.561523,
-2.41241,0.552368,
-2.40479,0.553894,
-2.40173,0.550842,
-2.40173,0.549316,
-2.40631,0.558472,
-2.40479,0.552368,
-2.40936,0.553894,
-2.40479,0.547791,
-2.41241,0.546265,
-2.41547,0.559998,
-2.42157,0.550842,
-2.4292,0.556946,
-2.43378,0.550842,
-2.43835,0.547791,
-2.44751,0.55542,
-2.44904,0.553894,
-2.45056,0.556946,
-2.45056,0.549316,
-2.45361,0.547791,
-2.45209,0.558472,
-2.45209,0.552368,
-2.45667,0.55542,
-2.45972,0.547791,
-2.46429,0.547791,
-2.46735,0.55542,
-2.47345,0.552368,
-2.47345,0.553894,
-2.47498,0.547791,
-2.47955,0.547791,
-2.47803,0.55542,
-2.47955,0.553894,
-2.4826,0.55542,
-2.48413,0.550842,
-2.48413,0.549316,
-2.4826,0.553894,
-2.47955,0.550842,
-2.47955,0.55542,
-2.47955,0.546265,
-2.47803,0.547791,
-2.47192,0.558472,
-2.46887,0.552368,
-2.46582,0.55542,
-2.46124,0.549316,
-2.46124,0.546265,
-2.45819,0.556946,
-2.45361,0.552368,
-2.45209,0.553894,
-2.45209,0.544739,
-2.45361,0.546265,
-2.45667,0.55542,
-2.46124,0.550842,
-2.46429,0.553894,
-2.46582,0.547791,
-2.47192,0.547791,
-2.47498,0.553894,
-2.47803,0.544739,
-2.48108,0.55542,
-2.48413,0.541687,
-2.48566,0.546265,
-2.49023,0.552368,
-2.49329,0.550842,
-2.49329,0.553894,
-2.49786,0.543213,
-2.50702,0.544739,
-2.50702,0.553894,
-2.51312,0.550842,
-2.52228,0.550842,
-2.52075,0.541687,
-2.52686,0.546265,
-2.53296,0.553894,
-2.53906,0.553894,
-2.53906,0.552368,
-2.54364,0.543213,
-2.54669,0.543213,
-2.55127,0.55542,
-2.55737,0.552368,
-2.56195,0.550842,
-2.56653,0.543213,
-2.58026,0.546265,
-2.58179,0.549316,
-2.59094,0.550842,
-2.59705,0.550842,
-2.60925,0.544739,
-2.61688,0.546265,
-2.63214,0.553894,
-2.63977,0.550842,
-2.64893,0.550842,
-2.65961,0.543213,
-2.66724,0.543213,
-2.67639,0.550842,
-2.68707,0.552368,
-2.69928,0.549316,
-2.70386,0.549316,
-2.70996,0.544739,
-2.71454,0.552368,
-2.72217,0.552368,
-2.72827,0.550842,
-2.7298,0.544739,
-2.73743,0.543213,
-2.742,0.549316,
-2.74811,0.552368,
-2.75879,0.552368,
-2.76642,0.544739,
-2.77405,0.543213,
-2.78168,0.549316,
-2.79083,0.550842,
-2.79846,0.546265,
-2.80762,0.544739,
-2.81525,0.543213,
-2.82745,0.549316,
-2.82593,0.549316,
-2.83203,0.552368,
-2.83356,0.543213,
-2.83966,0.543213,
-2.84271,0.550842,
-2.84424,0.549316,
-2.84882,0.546265,
-2.85797,0.540161,
-2.86255,0.546265,
-2.87476,0.550842,
-2.87476,0.547791,
-2.87933,0.547791,
-2.88544,0.541687,
-2.89154,0.546265,
-2.89917,0.546265,
-2.90527,0.550842,
-2.9129,0.543213,
-2.92358,0.541687,
-2.92664,0.544739,
-2.93427,0.549316,
-2.93732,0.549316,
-2.93884,0.549316,
-2.94342,0.541687,
-2.94647,0.547791,
-2.948,0.547791,
-2.948,0.547791,
-2.94952,0.546265,
-2.94952,0.543213,
-2.94495,0.543213,
-2.94342,0.549316,
-2.94037,0.549316,
-2.93121,0.543213,
-2.91901,0.543213,
-2.90833,0.546265,
-2.89459,0.547791,
-2.88239,0.552368,
-2.8656,0.544739,
-2.84729,0.544739,
-2.82593,0.544739,
-2.81067,0.547791,
-2.79083,0.549316,
-2.77557,0.546265,
-2.75879,0.540161,
-2.74048,0.544739,
-2.72217,0.546265,
-2.70386,0.549316,
-2.68555,0.544739,
-2.66418,0.540161,
-2.64435,0.546265,
-2.62299,0.546265,
-2.6001,0.550842,
-2.58484,0.541687,
-2.56805,0.538635,
-2.55127,0.543213,
-2.53143,0.546265,
-2.52075,0.550842,
-2.50702,0.544739,
-2.49634,0.538635,
-2.48413,0.543213,
-2.47345,0.546265,
-2.46429,0.547791,
-2.45819,0.541687,
-2.44446,0.534058,
-2.43835,0.543213,
-2.42767,0.546265,
-2.4231,0.552368,
-2.41699,0.543213,
-2.41089,0.540161,
-2.40173,0.543213,
-2.39563,0.546265,
-2.38647,0.550842,
-2.38037,0.543213,
-2.37122,0.541687,
-2.37122,0.543213,
-2.36359,0.544739,
-2.36053,0.550842,
-2.35901,0.541687,
-2.35596,0.543213,
-2.35138,0.544739,
-2.34985,0.546265,
-2.34833,0.550842,
-2.34222,0.543213,
-2.33612,0.537109,
-2.33154,0.541687,
-2.33154,0.544739,
-2.32849,0.550842,
-2.32697,0.538635,
-2.32697,0.538635,
-2.32697,0.543213,
-2.32697,0.546265,
-2.32697,0.552368,
-2.33002,0.541687,
-2.32849,0.537109,
-2.33154,0.543213,
-2.33154,0.543213,
-2.33002,0.549316,
-2.33002,0.541687,
-2.33002,0.538635,
-2.32391,0.543213,
-2.32239,0.540161,
-2.31934,0.549316,
-2.31628,0.540161,
-2.31628,0.541687,
-2.31476,0.538635,
-2.31171,0.544739,
-2.30713,0.552368,
-2.3056,0.544739,
-2.2995,0.540161,
-2.29797,0.540161,
-2.29492,0.543213,
-2.2934,0.547791,
-2.29034,0.540161,
-2.28577,0.540161,
-2.28119,0.543213,
-2.27966,0.541687,
-2.27661,0.550842,
-2.27661,0.543213,
-2.27661,0.538635,
-2.27814,0.540161,
-2.27661,0.544739,
-2.27509,0.550842,
-2.27203,0.540161,
-2.26593,0.540161,
-2.26593,0.541687,
-2.2644,0.540161,
-2.26746,0.547791,
-2.27051,0.540161,
-2.27051,0.540161,
-2.26746,0.540161,
-2.27814,0.541687,
-2.27814,0.546265,
-2.28271,0.543213,
-2.28119,0.537109,
-2.28577,0.540161,
-2.28577,0.541687,
-2.29187,0.550842,
-2.2995,0.541687,
-2.2995,0.540161,
-2.30713,0.538635,
-2.31171,0.541687,
-2.31934,0.550842,
-2.32544,0.538635,
-2.33154,0.534058,
-2.33917,0.540161,
-2.34833,0.541687,
-2.35291,0.550842,
-2.35291,0.538635,
-2.36511,0.538635,
-2.37427,0.541687,
-2.38342,0.541687,
-2.388,0.550842,
-2.40173,0.538635,
-2.41089,0.540161,
-2.42004,0.541687,
-2.42462,0.541687,
-2.4353,0.549316,
-2.44446,0.541687,
-2.45056,0.541687,
-2.45667,0.538635,
-2.46429,0.541687,
-2.46277,0.550842,
-2.47803,0.538635,
-2.48413,0.540161,
-2.49176,0.538635,
-2.49939,0.541687,
-2.50397,0.550842,
-2.5116,0.538635,
-2.5177,0.538635,
-2.5238,0.535583,
-2.52838,0.541687,
-2.53296,0.547791,
-2.53754,0.537109,
-2.54669,0.537109,
-2.54974,0.538635,
-2.5589,0.538635,
-2.56348,0.549316,
-2.56805,0.540161,
-2.57721,0.541687,
-2.58636,0.538635,
-2.59247,0.543213,
-2.6001,0.547791,
-2.6062,0.541687,
-2.61688,0.538635,
-2.63214,0.538635,
-2.63977,0.541687,
-2.64435,0.549316,
-2.65503,0.541687,
-2.65961,0.538635,
-2.66418,0.538635,
-2.67639,0.538635,
-2.67944,0.549316,
-2.69318,0.544739,
-2.70081,0.537109,
-2.70691,0.535583,
-2.71454,0.543213,
-2.72064,0.549316,
-2.72827,0.540161,
-2.73743,0.538635,
-2.74506,0.541687,
-2.75574,0.543213,
-2.76642,0.544739,
-2.77252,0.538635,
-2.78015,0.538635,
-2.78931,0.541687,
-2.79694,0.541687,
-2.79846,0.549316,
-2.79694,0.541687,
-2.79541,0.538635,
-2.79388,0.537109,
-2.78625,0.541687,
-2.7771,0.546265,
-2.76947,0.538635,
-2.75879,0.538635,
-2.74506,0.537109,
-2.7359,0.543213,
-2.72369,0.549316,
-2.70996,0.537109,
-2.6947,0.538635,
-2.68555,0.538635,
-2.66418,0.541687,
-2.6535,0.547791,
-2.63367,0.538635,
-2.61841,0.541687,
-2.60162,0.537109,
-2.58942,0.544739,
-2.56805,0.549316,
-2.55432,0.538635,
-2.53906,0.541687,
-2.52228,0.538635,
-2.50702,0.544739,
-2.49329,0.546265,
-2.48413,0.535583,
-2.46735,0.543213,
-2.45361,0.537109,
-2.43988,0.543213,
-2.4292,0.550842,
-2.41852,0.537109,
-2.40936,0.538635,
-2.39258,0.538635,
-2.3819,0.544739,
-2.37427,0.549316,
-2.36664,0.540161,
-2.36206,0.538635,
-2.35901,0.538635,
-2.35596,0.541687,
-2.35443,0.546265,
-2.34985,0.535583,
-2.34375,0.538635,
-2.34375,0.540161,
-2.34375,0.544739,
-2.33612,0.543213,
-2.33917,0.540161,
-2.33459,0.540161,
-2.33917,0.540161,
-2.33154,0.546265,
-2.33307,0.549316,
-2.33917,0.537109,
-2.34222,0.540161,
-2.34375,0.535583,
-2.3468,0.544739,
-2.35138,0.546265,
-2.35901,0.537109,
-2.36053,0.541687,
-2.36206,0.540161,
-2.36664,0.543213,
-2.37122,0.546265,
-2.36969,0.540161,
-2.37427,0.540161,
-2.37122,0.540161,
-2.3819,0.549316,
-2.38342,0.547791,
-2.388,0.538635,
-2.39258,0.540161,
-2.3941,0.541687,
-2.39716,0.546265,
-2.40021,0.544739,
-2.40936,0.538635,
-2.40936,0.541687,
-2.41089,0.538635,
-2.41852,0.546265,
-2.41547,0.544739,
-2.41394,0.540161,
-2.41241,0.544739,
-2.41241,0.540161,
-2.41241,0.546265,
-2.40936,0.544739,
-2.40631,0.541687,
-2.40326,0.538635,
-2.40173,0.540161,
-2.39563,0.546265,
-2.39105,0.547791,
-2.38953,0.540161,
-2.3819,0.540161,
-2.3819,0.538635,
-2.37579,0.547791,
-2.37885,0.543213,
-2.37885,0.540161,
-2.37732,0.540161,
-2.37427,0.537109,
-2.37579,0.547791,
-2.37732,0.546265,
-2.37732,0.540161,
-2.37732,0.540161,
-2.38495,0.537109,
-2.38495,0.549316,
-2.38647,0.544739,
-2.39105,0.541687,
-2.39105,0.541687,
-2.38953,0.535583,
-2.39105,0.549316,
-2.39563,0.543213,
-2.40021,0.540161,
-2.40326,0.540161,
-2.40936,0.534058,
-2.41394,0.546265,
-2.42004,0.543213,
-2.42615,0.540161,
-2.43073,0.537109,
-2.43835,0.538635,
-2.44598,0.547791,
-2.45209,0.544739,
-2.45819,0.537109,
-2.46582,0.538635,
-2.47803,0.540161,
-2.48566,0.549316,
-2.49329,0.546265,
-2.50244,0.537109,
-2.51617,0.535583,
-2.5238,0.538635,
-2.53601,0.549316,
-2.54059,0.543213,
-2.55585,0.540161,
-2.56042,0.540161,
-2.56805,0.540161,
-2.58179,0.546265,
-2.58942,0.541687,
-2.60468,0.540161,
-2.61841,0.540161,
-2.62604,0.538635,
-2.63672,0.549316,
-2.65198,0.546265,
-2.66113,0.538635,
-2.67639,0.541687,
-2.69012,0.540161,
-2.69623,0.544739,
-2.70691,0.543213,
-2.72369,0.540161,
-2.73132,0.541687,
-2.73743,0.540161,
-2.74658,0.543213,
-2.75421,0.544739,
-2.75879,0.540161,
-2.76489,0.543213,
-2.7771,0.541687,
-2.7832,0.547791,
-2.79541,0.543213,
-2.80304,0.541687,
-2.81219,0.538635,
-2.82593,0.538635,
-2.83356,0.547791,
-2.84729,0.541687,
-2.8595,0.537109,
-2.86713,0.540161,
-2.87628,0.540161,
-2.88544,0.546265,
-2.89612,0.544739,
-2.9068,0.541687,
-2.91443,0.537109,
-2.92664,0.538635,
-2.93274,0.544739,
-2.94342,0.546265,
-2.95105,0.543213,
-2.96326,0.535583,
-2.97089,0.540161,
-2.98157,0.544739,
-2.9953,0.546265,
-2.99988,0.541687,
-3.01056,0.537109,
-3.01819,0.537109,
-3.02124,0.543213,
-3.01971,0.544739,
-3.02277,0.541687,
-3.01819,0.537109,
-3.01208,0.540161,
-3.00751,0.543213,
-2.99835,0.543213,
-2.99377,0.541687,
-2.98462,0.538635,
-2.97241,0.538635,
-2.95868,0.543213,
-2.948,0.543213,
-2.93427,0.543213,
-2.91901,0.538635,
-2.89917,0.540161,
-2.88239,0.547791,
-2.86407,0.543213,
-2.84424,0.541687,
-2.8244,0.538635,
-2.80151,0.540161,
-2.78168,0.544739,
-2.76337,0.544739,
-2.73743,0.544739,
-2.72064,0.540161,
-2.69928,0.538635,
-2.67639,0.546265,
-2.66266,0.544739,
-2.63824,0.540161,
-2.61993,0.540161,
-2.6001,0.538635,
-2.58331,0.544739,
-2.56653,0.541687,
-2.55585,0.546265,
-2.53906,0.540161,
-2.52838,0.534058,
-2.51923,0.544739,
-2.51312,0.541687,
-2.50244,0.544739,
-2.50092,0.541687,
-2.49481,0.540161,
-2.49176,0.544739,
-2.49023,0.543213,
-2.49023,0.546265,
-2.49023,0.540161,
-2.48871,0.535583,
-2.48718,0.543213,
-2.48413,0.541687,
-2.48566,0.541687,
-2.48566,0.540161,
-2.48871,0.538635,
-2.49176,0.546265,
-2.49176,0.541687,
-2.49634,0.546265,
-2.49786,0.538635,
-2.50092,0.535583,
-2.50549,0.543213,
-2.51312,0.544739,
-2.51923,0.544739,
-2.52533,0.537109,
-2.53296,0.537109,
-2.53906,0.543213,
-2.54822,0.544739,
-2.55127,0.544739,
-2.5528,0.535583,
-2.55737,0.535583,
-2.565,0.543213,
-2.57263,0.540161,
-2.58484,0.546265,
-2.58484,0.537109,
-2.59399,0.534058,
-2.59247,0.543213,
-2.59857,0.541687,
-2.60162,0.544739,
-2.6001,0.535583,
-2.60468,0.537109,
-2.6062,0.544739,
-2.60773,0.540161,
-2.60925,0.544739,
-2.60773,0.537109,
-2.60162,0.535583,
-2.59857,0.541687,
-2.59857,0.540161,
-2.59552,0.543213,
-2.59857,0.535583,
-2.59857,0.537109,
-2.59399,0.541687,
-2.59247,0.540161,
-2.59247,0.544739,
-2.58942,0.538635,
-2.59247,0.535583,
-2.59247,0.541687,
-2.59247,0.540161,
-2.59705,0.544739,
-2.59705,0.538635,
-2.6001,0.534058,
-2.60468,0.543213,
-2.6062,0.541687,
-2.6123,0.543213,
-2.61841,0.538635,
-2.62146,0.534058,
-2.62756,0.541687,
-2.63062,0.540161,
-2.63672,0.543213,
-2.64282,0.538635,
-2.64587,0.535583,
-2.65656,0.540161,
-2.66113,0.541687,
-2.66876,0.543213,
-2.67181,0.540161,
-2.68097,0.537109,
-2.69012,0.543213,
-2.70233,0.540161,
-2.71149,0.543213,
-2.72217,0.538635,
-2.72827,0.534058,
-2.73285,0.541687,
-2.73895,0.540161,
-2.74353,0.541687,
-2.74963,0.534058,
-2.75421,0.534058,
-2.75879,0.543213,
-2.76794,0.538635,
-2.77252,0.541687,
-2.77863,0.535583,
-2.78931,0.532532,
-2.79846,0.541687,
-2.80304,0.538635,
-2.81219,0.544739,
-2.82135,0.537109,
-2.83203,0.532532,
-2.83966,0.540161,
-2.84576,0.540161,
-2.85492,0.541687,
-2.86102,0.537109,
-2.87018,0.52948,
-2.88086,0.538635,
-2.89001,0.537109,
-2.90222,0.541687,
-2.90833,0.540161,
-2.91748,0.532532,
-2.92969,0.538635,
-2.93427,0.540161,
-2.948,0.543213,
-2.95563,0.540161,
-2.96783,0.534058,
-2.97546,0.538635,
-2.98767,0.537109,
-2.99683,0.540161,
-3.00446,0.540161,
-3.01666,0.534058,
-3.02277,0.538635,
-3.03345,0.540161,
-3.0426,0.538635,
-3.05328,0.544739,
-3.05634,0.537109,
-3.06244,0.538635,
-3.07007,0.538635,
-3.07007,0.540161,
-3.07465,0.541687,
-3.08075,0.534058,
-3.08075,0.541687,
-3.08838,0.535583,
-3.09601,0.541687,
-3.10059,0.537109,
-3.10669,0.534058,
-3.11584,0.538635,
-3.12347,0.537109,
-3.1311,0.540161,
-3.13416,0.534058,
-3.13873,0.535583,
-3.14178,0.540161,
-3.14789,0.535583,
-3.15247,0.541687,
-3.15094,0.535583,
-3.14789,0.535583,
-3.14484,0.538635,
-3.13873,0.534058,
-3.1311,0.540161,
-3.1189,0.537109,
-3.10822,0.532532,
-3.0899,0.537109,
-3.0777,0.538635,
-3.05786,0.540161,
-3.03955,0.535583,
-3.01666,0.534058,
-2.9953,0.538635,
-2.97241,0.537109,
-2.948,0.540161,
-2.92053,0.532532,
-2.89917,0.534058,
-2.87476,0.537109,
-2.84729,0.538635,
-2.82288,0.540161,
-2.79846,0.537109,
-2.77557,0.535583,
-2.74811,0.538635,
-2.72827,0.535583,
-2.70691,0.538635,
-2.68402,0.535583,
-2.65961,0.534058,
-2.63977,0.537109,
-2.61688,0.535583,
-2.59552,0.538635,
-2.57721,0.534058,
-2.56042,0.535583,
-2.54669,0.537109,
-2.52991,0.534058,
-2.51465,0.540161,
-2.50244,0.52948,
-2.49481,0.534058,
-2.48566,0.537109,
-2.48108,0.537109,
-2.47192,0.541687,
-2.46582,0.534058,
-2.45972,0.534058,
-2.45514,0.537109,
-2.45209,0.537109,
-2.45056,0.541687,
-2.44904,0.537109,
-2.44904,0.534058,
-2.44751,0.535583,
-2.44751,0.538635,
-2.44446,0.537109,
-2.44751,0.534058,
-2.45056,0.52948,
-2.45667,0.535583,
-2.46124,0.535583,
-2.46277,0.538635,
-2.46887,0.532532,
-2.47803,0.535583,
-2.4826,0.535583,
-2.48871,0.537109,
-2.49634,0.538635,
-2.49939,0.532532,
-2.50244,0.535583,
-2.50854,0.535583,
-2.51617,0.534058,
-2.5177,0.538635,
-2.52075,0.534058,
-2.52533,0.534058,
-2.53143,0.535583,
-2.52838,0.535583,
-2.52991,0.537109,
-2.53143,0.532532,
-2.52991,0.534058,
-2.52838,0.538635,
-2.52686,0.532532,
-2.52228,0.537109,
-2.5238,0.52948,
-2.52228,0.538635,
-2.51617,0.535583,
-2.51617,0.535583,
-2.51312,0.535583,
-2.50854,0.52948,
-2.50397,0.532532,
-2.50397,0.532532,
-2.50702,0.537109,
-2.50092,0.541687,
-2.50397,0.534058,
-2.50092,0.532532,
-2.49939,0.532532,
-2.50092,0.535583,
-2.50244,0.537109,
-2.50092,0.532532,
-2.50397,0.52948,
-2.50397,0.534058,
-2.50549,0.541687,
-2.50244,0.538635,
-2.51312,0.534058,
-2.51312,0.534058,
-2.51465,0.532532,
-2.51617,0.538635,
-2.51923,0.537109,
-2.52075,0.532532,
-2.52686,0.52948,
-2.5238,0.534058,
-2.52991,0.535583,
-2.53754,0.538635,
-2.54059,0.534058,
-2.54822,0.52948,
-2.55432,0.535583,
-2.5589,0.538635,
-2.56805,0.538635,
-2.56653,0.534058,
-2.57111,0.532532,
-2.57721,0.527954,
-2.58331,0.538635,
-2.58789,0.537109,
-2.59552,0.52948,
-2.6001,0.532532,
-2.6062,0.52948,
-2.61078,0.538635,
-2.61841,0.540161,
-2.63062,0.532532,
-2.64282,0.534058,
-2.64893,0.532532,
-2.65656,0.535583,
-2.66724,0.538635,
-2.67792,0.52948,
-2.68402,0.534058,
-2.69012,0.532532,
-2.69623,0.535583,
-2.70233,0.537109,
-2.70538,0.52948,
-2.70844,0.534058,
-2.71301,0.52948,
-2.72369,0.540161,
-2.7298,0.540161,
-2.73285,0.535583,
-2.74048,0.534058,
-2.74506,0.526428,
-2.75269,0.540161,
-2.75879,0.538635,
-2.76489,0.52948,
-2.76947,0.532532,
-2.77405,0.532532,
-2.78015,0.534058,
-2.78778,0.537109,
-2.79388,0.534058,
-2.80151,0.532532,
-2.80914,0.534058,
-2.81372,0.537109,
-2.8183,0.535583,
-2.82745,0.532532,
-2.83508,0.532532,
-2.83661,0.527954,
-2.84576,0.537109,
-2.85187,0.538635,
-2.86255,0.52948,
-2.86407,0.52948,
-2.8717,0.532532,
-2.87781,0.538635,
-2.88696,0.535583,
-2.89612,0.52948,
-2.90375,0.534058,
-2.91138,0.527954,
-2.92053,0.535583,
-2.92816,0.538635,
-2.92816,0.52948,
-2.93121,0.534058,
-2.92664,0.526428,
-2.92511,0.538635,
-2.91595,0.540161,
-2.90985,0.52948,
-2.9007,0.534058,
-2.88696,0.534058,
-2.8717,0.535583,
-2.85645,0.538635,
-2.83508,0.52948,
-2.81525,0.52948,
-2.79388,0.532532,
-2.77252,0.537109,
-2.74963,0.535583,
-2.72522,0.527954,
-2.69928,0.532532,
-2.67487,0.52948,
-2.65045,0.535583,
-2.61993,0.540161,
-2.59247,0.52948,
-2.56042,0.534058,
-2.53448,0.526428,
-2.50702,0.535583,
-2.4826,0.535583,
-2.45209,0.527954,
-2.42004,0.534058,
-2.39105,0.527954,
-2.36206,0.538635,
-2.33612,0.535583,
-2.31018,0.527954,
-2.28271,0.534058,
-2.25372,0.534058,
-2.22778,0.541687,
-2.20947,0.540161,
-2.19269,0.526428,
-2.17896,0.52948,
-2.16064,0.527954,
-2.14996,0.537109,
-2.1347,0.540161,
-2.12097,0.526428,
-2.10724,0.52948,
-2.09198,0.534058,
-2.08893,0.540161,
-2.07977,0.537109,
-2.07367,0.526428,
-2.06909,0.52948,
-2.06451,0.527954,
-2.06146,0.538635,
-2.05841,0.537109,
-2.05536,0.52948,
-2.05383,0.532532,
-2.05841,0.527954,
-2.05841,0.540161,
-2.05994,0.537109,
-2.06451,0.527954,
-2.06451,0.534058,
-2.06757,0.532532,
-2.06757,0.535583,
-2.07214,0.537109,
-2.0752,0.526428,
-2.07977,0.532532,
-2.0874,0.527954,
-2.09351,0.540161,
-2.10114,0.535583,
-2.10876,0.527954,
-2.11487,0.532532,
-2.11639,0.532532,
-2.11792,0.537109,
-2.12097,0.540161,
-2.12402,0.526428,
-2.12708,0.532532,
-2.12555,0.534058,
-2.1347,0.537109,
-2.13623,0.540161,
-2.13623,0.527954,
-2.13776,0.534058,
-2.13928,0.52948,
-2.14081,0.535583,
-2.14081,0.538635,
-2.13776,0.527954,
-2.13928,0.535583,
-2.14233,0.532532,
-2.14386,0.538635,
-2.14691,0.538635,
-2.14996,0.532532,
-2.14844,0.535583,
-2.14996,0.52948,
-2.15149,0.538635,
-2.15607,0.537109,
-2.15759,0.52948,
-2.15912,0.534058,
-2.15759,0.52948,
-2.15912,0.538635,
-2.15607,0.537109,
-2.15912,0.532532,
-2.16217,0.532532,
-2.16064,0.534058,
-2.16827,0.540161,
-2.17133,0.537109,
-2.17438,0.52948,
-2.18048,0.52948,
-2.18658,0.52948,
-2.18964,0.543213,
-2.19727,0.537109,
-2.2049,0.534058,
-2.20642,0.527954,
-2.21405,0.535583,
-2.2171,0.537109,
-2.22168,0.537109,
-2.22473,0.52948,
-2.22321,0.527954,
-2.23236,0.535583,
-2.23846,0.537109,
-2.24304,0.537109,
-2.24457,0.532532,
-2.2522,0.532532,
-2.25983,0.535583,
-2.26746,0.537109,
-2.27051,0.538635,
-2.27814,0.534058,
-2.28424,0.535583,
-2.28882,0.537109,
-2.29797,0.535583,
-2.30255,0.538635,
-2.31018,0.535583,
-2.31934,0.532532,
-2.32849,0.535583,
-2.33307,0.540161,
-2.33917,0.535583,
-2.3468,0.52948,
-2.35596,0.532532,
-2.36359,0.535583,
-2.37579,0.543213,
-2.3819,0.537109,
-2.39105,0.534058,
-2.40326,0.532532,
-2.41699,0.532532,
-2.4292,0.541687,
-2.44446,0.535583,
-2.45667,0.532532,
-2.46735,0.532532,
-2.47955,0.537109,
-2.49176,0.541687,
-2.50397,0.534058,
-2.51465,0.532532,
-2.52533,0.532532,
-2.54211,0.535583,
-2.55127,0.538635,
-2.565,0.535583,
-2.57568,0.535583,
-2.58484,0.527954,
-2.6001,0.537109,
-2.60925,0.540161,
-2.61536,0.535583,
-2.62909,0.535583,
-2.63519,0.527954,
-2.63824,0.535583,
-2.64587,0.540161,
-2.6535,0.537109,
-2.66113,0.535583,
-2.67029,0.527954,
-2.67029,0.537109,
-2.67181,0.538635,
-2.67487,0.537109,
-2.67639,0.535583,
-2.67334,0.527954,
-2.66724,0.537109,
-2.66266,0.538635,
-2.65198,0.535583,
-2.63977,0.535583,
-2.62756,0.52948,
-2.6062,0.535583,
-2.58942,0.540161,
-2.56958,0.537109,
-2.54974,0.538635,
-2.52686,0.52948,
-2.50244,0.535583,
-2.47955,0.537109,
-2.45209,0.535583,
-2.42462,0.535583,
-2.39563,0.527954,
-2.36359,0.537109,
-2.32849,0.541687,
-2.2934,0.538635,
-2.25983,0.535583,
-2.22321,0.527954,
-2.18506,0.538635,
-2.14691,0.543213,
-2.10876,0.535583,
-2.06909,0.537109,
-2.03705,0.52948,
-2.005,0.534058,
-1.96991,0.541687,
-1.93939,0.535583,
-1.90887,0.535583,
-1.88446,0.52948,
-1.86615,0.538635,
-1.84326,0.541687,
-1.8219,0.535583,
-1.80664,0.537109,
-1.79138,0.526428,
-1.77765,0.537109,
-1.76544,0.543213,
-1.75934,0.537109,
-1.75018,0.534058,
-1.74408,0.52948,
-1.7395,0.541687,
-1.73645,0.543213,
-1.73187,0.535583,
-1.72729,0.535583,
-1.72882,0.527954,
-1.73035,0.535583,
-1.72882,0.544739,
-1.73187,0.537109,
-1.7334,0.537109,
-1.73492,0.527954,
-1.73798,0.540161,
-1.74103,0.543213,
-1.74866,0.538635,
-1.75018,0.537109,
-1.75629,0.527954,
-1.76239,0.538635,
-1.77155,0.540161,
-1.77917,0.540161,
-1.78375,0.535583,
-1.78986,0.527954,
-1.79596,0.540161,
-1.79901,0.540161,
-1.80817,0.537109,
-1.8158,0.537109,
-1.81732,0.52948,
-1.8219,0.538635,
-1.82953,0.541687,
-1.83258,0.540161,
-1.83411,0.540161,
-1.83868,0.527954,
-1.84021,0.540161,
-1.84174,0.543213,
-1.84326,0.537109,
-1.84479,0.538635,
-1.84631,0.527954,
-1.84631,0.538635,
-1.84326,0.541687,
-1.84479,0.538635,
-1.84631,0.540161,
-1.84326,0.527954,
-1.84479,0.538635,
-1.84631,0.541687,
-1.84631,0.538635,
-1.84326,0.538635,
-1.83868,0.527954,
-1.83563,0.540161,
-1.83105,0.538635,
-1.82953,0.540161,
-1.82953,0.537109,
-1.82037,0.526428,
-1.81885,0.540161,
-1.8158,0.538635,
-1.81427,0.541687,
-1.80817,0.540161,
-1.80664,0.52948,
-1.80664,0.540161,
-1.80511,0.543213,
-1.80664,0.538635,
-1.80817,0.541687,
-1.80969,0.527954,
-1.81427,0.541687,
-1.81885,0.543213,
-1.81885,0.540161,
-1.828,0.537109,
-1.82953,0.52948,
-1.83258,0.538635,
-1.83411,0.540161,
-1.83716,0.541687,
-1.84326,0.541687,
-1.84784,0.527954,
-1.85242,0.538635,
-1.86615,0.543213,
-1.8692,0.544739,
-1.87836,0.540161,
-1.89056,0.527954,
-1.89819,0.541687,
-1.90887,0.540161,
-1.91803,0.540161,
-1.92871,0.537109,
-1.94092,0.524902,
-1.9516,0.540161,
-1.96381,0.543213,
-1.97601,0.541687,
-1.98822,0.541687,
-2.00195,0.527954,
-2.01721,0.540161,
-2.03094,0.543213,
-2.04315,0.540161,
-2.05383,0.541687,
-2.06909,0.527954,
-2.08282,0.540161,
-2.09961,0.538635,
-2.11487,0.540161,
-2.12555,0.541687,
-2.14081,0.526428,
-2.15607,0.540161,
-2.16827,0.543213,
-2.18048,0.541687,
-2.20184,0.538635,
-2.21558,0.527954,
-2.22778,0.541687,
-2.24609,0.543213,
-2.25372,0.541687,
-2.2644,0.540161,
-2.28119,0.52948,
-2.29034,0.540161,
-2.3056,0.541687,
-2.31781,0.544739,
-2.33002,0.541687,
-2.3468,0.534058,
-2.35901,0.540161,
-2.37122,0.541687,
-2.388,0.538635,
-2.3941,0.541687,
-2.40479,0.52948,
-2.41547,0.538635,
-2.41852,0.541687,
-2.42462,0.541687,
-2.42462,0.541687,
-2.4231,0.535583,
-2.42157,0.540161,
-2.41547,0.541687,
-2.41241,0.538635,
-2.39868,0.541687,
-2.38647,0.532532,
-2.36969,0.544739,
-2.35291,0.540161,
-2.33459,0.540161,
-2.31323,0.538635,
-2.29187,0.527954,
-2.26746,0.543213,
-2.23846,0.538635,
-2.20795,0.544739,
-2.18201,0.541687,
-2.15454,0.52948,
-2.11945,0.543213,
-2.0874,0.538635,
-2.05994,0.543213,
-2.02332,0.543213,
-1.98975,0.527954,
-1.95465,0.543213,
-1.91956,0.538635,
-1.89056,0.540161,
-1.85242,0.538635,
-1.828,0.52948,
-1.79749,0.541687,
-1.77307,0.540161,
-1.74561,0.541687,
-1.72577,0.538635,
-1.70135,0.52948,
-1.68304,0.543213,
-1.66931,0.540161,
-1.65405,0.538635,
-1.64185,0.538635,
-1.63116,0.52948,
-1.61743,0.541687,
-1.6037,0.543213,
-1.60065,0.540161,
-1.5976,0.538635,
-1.59454,0.532532,
-1.59302,0.540161,
-1.59302,0.543213,
-1.59149,0.540161,
-1.58997,0.541687,
-1.59302,0.52948,
-1.60065,0.544739,
-1.60217,0.541687,
-1.60828,0.541687,
-1.61438,0.537109,
-1.62048,0.534058,
-1.62811,0.541687,
-1.63574,0.540161,
-1.64642,0.538635,
-1.6571,0.537109,
-1.66931,0.532532,
-1.67847,0.543213,
-1.69067,0.541687,
-1.70288,0.538635,
-1.70898,0.535583,
-1.71661,0.535583,
-1.72729,0.541687,
-1.74255,0.538635,
-1.75476,0.543213,
-1.76239,0.537109,
-1.77155,0.532532,
-1.7807,0.541687,
-1.79443,0.541687,
-1.80206,0.541687,
-1.80817,0.535583,
-1.81732,0.52948,
-1.8219,0.543213,
-1.828,0.540161,
-1.83411,0.543213,
-1.83716,0.535583,
-1.84479,0.532532,
-1.84784,0.541687,
-1.84937,0.541687,
-1.85547,0.544739,
-1.85547,0.537109,
-1.85852,0.534058,
-1.85852,0.543213,
-1.85852,0.540161,
-1.85852,0.540161,
-1.85547,0.534058,
-1.85394,0.534058,
-1.84937,0.537109,
-1.84937,0.541687,
-1.84631,0.541687,
-1.84631,0.534058,
-1.84784,0.532532,
-1.84631,0.540161,
-1.84479,0.538635,
-1.84631,0.537109,
-1.84479,0.527954,
-1.84479,0.535583,
-1.84784,0.540161,
-1.84937,0.538635,
-1.84937,0.537109,
-1.85547,0.532532,
-1.87073,0.532532,
-1.87683,0.538635,
-1.87988,0.538635,
-1.88599,0.538635,
-1.89362,0.527954,
-1.89972,0.537109,
-1.90277,0.538635,
-1.91345,0.538635,
-1.91956,0.535583,
-1.92871,0.532532,
-1.94092,0.532532,
-1.95007,0.537109,
-1.9577,0.540161,
-1.96838,0.537109,
-1.97906,0.532532,
-1.98822,0.532532,
-2.00195,0.535583,
-2.01416,0.540161,
-2.02026,0.537109,
-2.03247,0.527954,
-2.04163,0.534058,
-2.05078,0.538635,
-2.06451,0.535583,
-2.07367,0.538635,
-2.08435,0.527954,
-2.09198,0.534058,
-2.10571,0.537109,
-2.11945,0.537109,
-2.1347,0.541687,
-2.14386,0.527954,
-2.15607,0.537109,
-2.1637,0.537109,
-2.17896,0.540161,
-2.18964,0.541687,
-2.19879,0.52948,
-2.20795,0.534058,
-2.21863,0.538635,
-2.23083,0.540161,
-2.23846,0.538635,
-2.24915,0.527954,
-2.25677,0.534058,
-2.2644,0.537109,
-2.27509,0.538635,
-2.28271,0.538635,
-2.29034,0.527954,
-2.29797,0.534058,
-2.30865,0.538635,
-2.31781,0.537109,
-2.32544,0.537109,
-2.33154,0.52948,
-2.34222,0.534058,
-2.34833,0.538635,
-2.35443,0.537109,
-2.35748,0.540161,
-2.36664,0.527954,
-2.36969,0.532532,
-2.37122,0.535583,
-2.36816,0.535583,
-2.36664,0.538635,
-2.36511,0.52948,
-2.35138,0.534058,
-2.3407,0.537109,
-2.32239,0.537109,
-2.31018,0.537109,
-2.2934,0.527954,
-2.27051,0.532532,
-2.24762,0.537109,
-2.22473,0.538635,
-2.19574,0.535583,
-2.16827,0.526428,
-2.13776,0.532532,
-2.10419,0.537109,
-2.0752,0.535583,
-2.04315,0.535583,
-2.01111,0.52948,
-1.98212,0.534058,
-1.95007,0.534058,
-1.92261,0.538635,
-1.89514,0.537109,
-1.8692,0.532532,
-1.84021,0.532532,
-1.81122,0.538635,
-1.78986,0.538635,
-1.75934,0.535583,
-1.73492,0.534058,
-1.71509,0.52948,
-1.69525,0.535583,
-1.67389,0.540161,
-1.65253,0.535583,
-1.63116,0.534058,
-1.61285,0.535583,
-1.59912,0.532532,
-1.58386,0.538635,
-1.57318,0.535583,
-1.56403,0.52948,
-1.55182,0.534058,
-1.54877,0.535583,
-1.53809,0.538635,
-1.53351,0.537109,
-1.53046,0.535583,
-1.52893,0.534058,
-1.5274,0.535583,
-1.53046,0.538635,
-1.53503,0.537109,
-1.53809,0.534058,
-1.54114,0.532532,
-1.54877,0.534058,
-1.55487,0.537109,
-1.55945,0.537109,
-1.56555,0.52948,
-1.57623,0.534058,
-1.58844,0.534058,
-1.6037,0.537109,
-1.61743,0.538635,
-1.63422,0.52948,
-1.64642,0.52948,
-1.65558,0.534058,
-1.66779,0.535583,
-1.67999,0.535583,
-1.69373,0.532532,
-1.70135,0.535583,
-1.70593,0.538635,
-1.71814,0.538635,
-1.72882,0.538635,
-1.73645,0.52948,
-1.7395,0.534058,
-1.74408,0.532532,
-1.75018,0.535583,
-1.75171,0.535583,
-1.75476,0.527954,
-1.75781,0.535583,
-1.75629,0.534058,
-1.75934,0.537109,
-1.75171,0.538635,
-1.75018,0.534058,
-1.74713,0.534058,
-1.74561,0.532532,
-1.74561,0.537109,
-1.74103,0.538635,
-1.74255,0.535583,
-1.74561,0.532532,
-1.74103,0.527954,
-1.74103,0.538635,
-1.74103,0.540161,
-1.74103,0.532532,
-1.74255,0.534058,
-1.74255,0.52948,
-1.74103,0.535583,
-1.7395,0.538635,
-1.74408,0.534058,
-1.74255,0.534058,
-1.74408,0.532532,
-1.74713,0.537109,
-1.75171,0.540161,
-1.75171,0.532532,
-1.75781,0.532532,
-1.76086,0.534058,
-1.76239,0.535583,
-1.77002,0.538635,
-1.7746,0.534058,
-1.78375,0.535583,
-1.78986,0.52948,
-1.79443,0.538635,
-1.79901,0.538635,
-1.80359,0.534058,
-1.81122,0.532532,
-1.81122,0.534058,
-1.81427,0.538635,
-1.81885,0.540161,
-1.83105,0.535583,
-1.83258,0.532532,
-1.84326,0.52948,
-1.85394,0.538635,
-1.8631,0.534058,
-1.87073,0.537109,
-1.87683,0.532532,
-1.88599,0.527954,
-1.89972,0.537109,
-1.91193,0.537109,
-1.92261,0.532532,
-1.93481,0.52948,
-1.94092,0.527954,
-1.95007,0.538635,
-1.96228,0.540161,
-1.97296,0.534058,
-1.98212,0.534058,
-1.9928,0.527954,
-2.00195,0.540161,
-2.01263,0.537109,
-2.02179,0.532532,
-2.03094,0.532532,
-2.03857,0.534058,
-2.05078,0.538635,
-2.05688,0.537109,
-2.06604,0.538635,
-2.07825,0.535583,
-2.08588,0.527954,
-2.10114,0.537109,
-2.11182,0.537109,
-2.12097,0.534058,
-2.1347,0.534058,
-2.14691,0.534058,
-2.15912,0.538635,
-2.17133,0.538635,
-2.18048,0.537109,
-2.19116,0.535583,
-2.19727,0.52948,
-2.2049,0.537109,
-2.21558,0.538635,
-2.22473,0.532532,
-2.22321,0.52948,
-2.22321,0.52948,
-2.22626,0.538635,
-2.22168,0.537109,
-2.21863,0.535583,
-2.21252,0.534058,
-2.19421,0.527954,
-2.18353,0.538635,
-2.16217,0.537109,
-2.14233,0.532532,
-2.12402,0.534058,
-2.10419,0.527954,
-2.07825,0.540161,
-2.05231,0.540161,
-2.03094,0.535583,
-2.00195,0.535583,
-1.97296,0.534058,
-1.93939,0.540161,
-1.90735,0.538635,
-1.87683,0.535583,
-1.84631,0.535583,
-1.81885,0.532532,
-1.79138,0.540161,
-1.76086,0.538635,
-1.73187,0.534058,
-1.70135,0.537109,
-1.66931,0.534058,
-1.64032,0.540161,
-1.61438,0.541687,
-1.59149,0.537109,
-1.57013,0.537109,
-1.54572,0.532532,
-1.52893,0.538635,
-1.50757,0.541687,
-1.49384,0.537109,
-1.47552,0.52948,
-1.46179,0.527954,
-1.44653,0.537109,
-1.42975,0.538635,
-1.42212,0.535583,
-1.41296,0.535583,
-1.40839,0.535583,
-1.40228,0.534058,
-1.39618,0.537109,
-1.39313,0.537109,
-1.3855,0.537109,
-1.38702,0.532532,
-1.3855,0.534058,
-1.3855,0.540161,
-1.39008,0.535583,
-1.39313,0.537109,
-1.39465,0.532532,
-1.40076,0.535583,
-1.41296,0.540161,
-1.42212,0.537109,
-1.42975,0.537109,
-1.44348,0.534058,
-1.45569,0.537109,
-1.46484,0.540161,
-1.47247,0.538635,
-1.48773,0.535583,
-1.49689,0.532532,
-1.50757,0.537109,
-1.50909,0.538635,
-1.51672,0.537109,
-1.5213,0.537109,
-1.52435,0.532532,
-1.52588,0.535583,
-1.52893,0.537109,
-1.53351,0.535583,
-1.53503,0.535583,
-1.53351,0.52948,
-1.53351,0.540161,
-1.53503,0.540161,
-1.53198,0.538635,
-1.52588,0.534058,
-1.52283,0.535583,
-1.51825,0.540161,
-1.50604,0.537109,
-1.50299,0.538635,
-1.49536,0.535583,
-1.49384,0.535583,
-1.48773,0.540161,
-1.48163,0.537109,
-1.47705,0.534058,
-1.474,0.535583,
-1.474,0.534058,
-1.46942,0.544739,
-1.47095,0.537109,
-1.4679,0.537109,
-1.46027,0.538635,
-1.45874,0.52948,
-1.45874,0.538635,
-1.45874,0.538635,
-1.46027,0.534058,
-1.45874,0.535583,
-1.46027,0.534058,
-1.45721,0.535583,
-1.46484,0.538635,
-1.46484,0.537109,
-1.46484,0.535583,
-1.4679,0.532532,
-1.47552,0.543213,
-1.47705,0.537109,
-1.48315,0.538635,
-1.48773,0.538635,
-1.49384,0.532532,
-1.49384,0.540161,
-1.49994,0.538635,
-1.50604,0.540161,
-1.5152,0.535583,
-1.51978,0.535583,
-1.5274,0.540161,
-1.53503,0.538635,
-1.54572,0.538635,
-1.54877,0.540161,
-1.55487,0.535583,
-1.5625,0.540161,
-1.57013,0.538635,
-1.57776,0.540161,
-1.58844,0.538635,
-1.58997,0.534058,
-1.59912,0.538635,
-1.60217,0.537109,
-1.61438,0.537109,
-1.62811,0.537109,
-1.64032,0.534058,
-1.65405,0.540161,
-1.66168,0.537109,
-1.67389,0.535583,
-1.68762,0.540161,
-1.69983,0.532532,
-1.70593,0.543213,
-1.71661,0.537109,
-1.72729,0.540161,
-1.73798,0.537109,
-1.75171,0.532532,
-1.76239,0.540161,
-1.7746,0.541687,
-1.78986,0.538635,
-1.80359,0.538635,
-1.81122,0.537109,
-1.8219,0.541687,
-1.83411,0.538635,
-1.84479,0.538635,
-1.85547,0.537109,
-1.87073,0.534058,
-1.88446,0.540161,
-1.89362,0.538635,
-1.90125,0.537109,
-1.91193,0.540161,
-1.92413,0.532532,
-1.93329,0.541687,
-1.94397,0.537109,
-1.95007,0.540161,
-1.95313,0.538635,
-1.9577,0.534058,
-1.9577,0.538635,
-1.96228,0.535583,
-1.95465,0.535583,
-1.95007,0.534058,
-1.94244,0.532532,
-1.92871,0.538635,
-1.9104,0.540161,
-1.89667,0.538635,
-1.87531,0.535583,
-1.85089,0.534058,
-1.82953,0.540161,
-1.80206,0.538635,
-1.77612,0.538635,
-1.74866,0.537109,
-1.71661,0.535583,
-1.69067,0.540161,
-1.65558,0.537109,
-1.62659,0.535583,
-1.58691,0.537109,
-1.55792,0.534058,
-1.52588,0.540161,
-1.49384,0.537109,
-1.45874,0.540161,
-1.42517,0.535583,
-1.3916,0.534058,
-1.36108,0.540161,
-1.33209,0.541687,
-1.30463,0.538635,
-1.27563,0.537109,
-1.24817,0.532532,
-1.22833,0.543213,
-1.21155,0.540161,
-1.19324,0.543213,
-1.17798,0.537109,
-1.16119,0.535583,
-1.14594,0.541687,
-1.13678,0.541687,
-1.12305,0.543213,
-1.11389,0.537109,
-1.10168,0.535583,
-1.09406,0.541687,
-1.08643,0.538635,
-1.08032,0.544739,
-1.08032,0.538635,
-1.0788,0.534058,
-1.08032,0.543213,
-1.08185,0.540161,
-1.08337,0.543213,
-1.08795,0.537109,
-1.08795,0.535583,
-1.08948,0.543213,
-1.091,0.540161,
-1.091,0.540161,
-1.09406,0.540161,
-1.09863,0.537109,
-1.10474,0.540161,
-1.10626,0.538635,
-1.10931,0.541687,
-1.10931,0.535583,
-1.11847,0.537109,
-1.12152,0.540161,
-1.12305,0.543213,
-1.12762,0.541687,
-1.13068,0.537109,
-1.13678,0.535583,
-1.14136,0.541687,
-1.14288,0.541687,
-1.14288,0.546265,
-1.14594,0.537109,
-1.14746,0.534058,
-1.14594,0.541687,
-1.14746,0.540161,
-1.14899,0.543213,
-1.14136,0.537109,
-1.13831,0.537109,
-1.13068,0.544739,
-1.13068,0.538635,
-1.12915,0.543213,
-1.12915,0.534058,
-1.1261,0.535583,
-1.12457,0.546265,
-1.1261,0.541687,
-1.1261,0.544739,
-1.1261,0.538635,
-1.12305,0.535583,
-1.12457,0.544739,
-1.12305,0.543213,
-1.12152,0.543213,
-1.12152,0.537109,
-1.1261,0.537109,
-1.12915,0.541687,
-1.1322,0.538635,
-1.13373,0.544739,
-1.13678,0.538635,
-1.13831,0.537109,
-1.14288,0.544739,
-1.14746,0.541687,
-1.15356,0.549316,
-1.15967,0.540161,
-1.16272,0.535583,
-1.1673,0.544739,
-1.17188,0.538635,
-1.17798,0.546265,
-1.18256,0.540161,
-1.19171,0.540161,
-1.19629,0.546265,
-1.20239,0.543213,
-1.21307,0.549316,
-1.2207,0.540161,
-1.22833,0.538635,
-1.23138,0.547791,
-1.23749,0.543213,
-1.24512,0.547791,
-1.24969,0.540161,
-1.25275,0.541687,
-1.26038,0.544739,
-1.26801,0.546265,
-1.27869,0.546265,
-1.28784,0.538635,
-1.297,0.540161,
-1.30615,0.547791,
-1.32294,0.544739,
-1.33362,0.547791,
-1.34735,0.540161,
-1.35651,0.540161,
-1.37024,0.547791,
-1.38092,0.543213,
-1.39008,0.546265,
-1.40533,0.538635,
-1.41602,0.540161,
-1.4267,0.552368,
-1.44043,0.546265,
-1.45416,0.546265,
-1.47095,0.541687,
-1.48315,0.540161,
-1.49078,0.549316,
-1.50757,0.546265,
-1.51825,0.549316,
-1.53351,0.543213,
-1.54572,0.541687,
-1.5625,0.547791,
-1.57166,0.549316,
-1.58539,0.552368,
-1.59454,0.544739,
-1.60217,0.540161,
-1.61438,0.55542,
-1.62354,0.547791,
-1.63879,0.550842,
-1.64795,0.540161,
-1.65863,0.541687,
-1.67542,0.553894,
-1.68304,0.549316,
-1.6922,0.547791,
-1.69983,0.543213,
-1.70593,0.541687,
-1.71356,0.552368,
-1.71356,0.547791,
-1.71356,0.553894,
-1.71204,0.544739,
-1.70593,0.544739,
-1.6983,0.553894,
-1.68915,0.547791,
-1.67847,0.552368,
-1.6571,0.543213,
-1.64337,0.544739,
-1.62659,0.556946,
-1.60065,0.547791,
-1.57928,0.553894,
-1.55792,0.541687,
-1.53351,0.544739,
-1.51062,0.55542,
-1.48315,0.550842,
-1.45569,0.552368,
-1.43127,0.544739,
-1.39923,0.544739,
-1.37329,0.556946,
-1.34583,0.552368,
-1.31683,0.552368,
-1.28479,0.544739,
-1.25122,0.547791,
-1.22223,0.55542,
-1.19324,0.553894,
-1.15814,0.55542,
-1.1322,0.546265,
-1.10779,0.544739,
-1.08795,0.556946,
-1.06506,0.552368,
-1.04828,0.553894,
-1.03455,0.550842,
-1.01471,0.549316,
-1.0025,0.55542,
-0.98877,0.556946,
-0.98114,0.55542,
-0.970459,0.549316,
-0.965881,0.549316,
-0.9552,0.559998,
-0.946045,0.553894,
-0.947571,0.553894,
-0.946045,0.547791,
-0.941467,0.550842,
-0.942993,0.561523,
-0.939941,0.558472,
-0.939941,0.55542,
-0.941467,0.549316,
-0.942993,0.549316,
-0.947571,0.561523,
-0.952148,0.55542,
-0.959778,0.55542,
-0.965881,0.549316,
-0.971985,0.550842,
-0.976563,0.561523,
-0.984192,0.556946,
-0.990295,0.559998,
-1.0025,0.556946,
-1.01166,0.550842,
-1.01929,0.558472,
-1.02539,0.559998,
-1.02386,0.559998,
-1.02997,0.553894,
-1.02997,0.550842,
-1.0376,0.559998,
-1.04065,0.556946,
-1.04065,0.559998,
-1.04065,0.552368,
-1.04523,0.550842,
-1.04218,0.559998,
-1.04218,0.558472,
-1.04218,0.561523,
-1.03912,0.553894,
-1.03302,0.55542,
-1.02997,0.561523,
-1.02997,0.563049,
-1.02539,0.563049,
-1.02234,0.558472,
-1.02234,0.55542,
-1.02234,0.569153,
-1.01624,0.561523,
-1.01624,0.561523,
-1.01318,0.556946,
-1.01318,0.556946,
-1.01013,0.563049,
-1.01013,0.563049,
-1.01318,0.563049,
-1.01166,0.561523,
-1.01624,0.558472,
-1.01471,0.566101,
-1.01776,0.561523,
-1.01471,0.566101,
-1.01929,0.556946,
-1.02386,0.556946,
-1.02539,0.566101,
-1.03302,0.566101,
-1.03455,0.563049,
-1.0376,0.559998,
-1.04523,0.559998,
-1.05133,0.569153,
-1.05743,0.569153,
-1.06201,0.566101,
-1.07117,0.561523,
-1.07727,0.561523,
-1.08337,0.566101,
-1.091,0.570679,
-1.10168,0.567627,
-1.11084,0.561523,
-1.11694,0.559998,
-1.13068,0.570679,
-1.14136,0.570679,
-1.15356,0.561523,
-1.17188,0.558472,
-1.18713,0.559998,
-1.19476,0.569153,
-1.20544,0.569153,
-1.21613,0.563049,
-1.22986,0.561523,
-1.24512,0.567627,
-1.26038,0.570679,
-1.27869,0.572205,
-1.29089,0.567627,
-1.30615,0.559998,
-1.32294,0.567627,
-1.33362,0.570679,
-1.3443,0.57373,
-1.36414,0.569153,
-1.37482,0.561523,
-1.38855,0.569153,
-1.40381,0.569153,
-1.41754,0.570679,
-1.43127,0.567627,
-1.44958,0.566101,
-1.46484,0.569153,
-1.47705,0.569153,
-1.49078,0.572205,
-1.50604,0.569153,
-1.51672,0.569153,
-1.53046,0.567627,
-1.54266,0.567627,
-1.5625,0.572205,
-1.57318,0.569153,
-1.58844,0.566101,
-1.60217,0.570679,
-1.62048,0.57373,
-1.63269,0.576782,
-1.65253,0.567627,
-1.66168,0.567627,
-1.67084,0.566101,
-1.6861,0.575256,
-1.69373,0.575256,
-1.70593,0.572205,
-1.71661,0.570679,
-1.72729,0.570679,
-1.73798,0.57373,
-1.74866,0.579834,
-1.76086,0.570679,
-1.76392,0.569153,
-1.77155,0.570679,
-1.77307,0.576782,
-1.77002,0.575256,
-1.76849,0.572205,
-1.76849,0.572205,
-1.76544,0.57373,
-1.76086,0.576782,
-1.75476,0.576782,
-1.74255,0.57373,
-1.72882,0.569153,
-1.71204,0.575256,
-1.6983,0.578308,
-1.67694,0.58136,
-1.6571,0.575256,
-1.63574,0.572205,
-1.61133,0.575256,
-1.58691,0.578308,
-1.55945,0.578308,
-1.53046,0.572205,
-1.49841,0.567627,
-1.47095,0.57373,
-1.44043,0.578308,
-1.41296,0.579834,
-1.3855,0.57373,
-1.35803,0.570679,
-1.33057,0.576782,
-1.30463,0.576782,
-1.27869,0.579834,
-1.25275,0.57373,
-1.22833,0.569153,
-1.2085,0.57373,
-1.18561,0.576782,
-1.16272,0.58136,
-1.14288,0.57373,
-1.12305,0.570679,
-1.10321,0.57373,
-1.08795,0.575256,
-1.07422,0.579834,
-1.06201,0.575256,
-1.04828,0.572205,
-1.03455,0.575256,
-1.02539,0.579834,
-1.01776,0.582886,
-1.01013,0.57373,
-1.0025,0.57373,
-0.993347,0.575256,
-0.987244,0.578308,
-0.985718,0.582886,
-0.98114,0.576782,
-0.978088,0.570679,
-0.976563,0.576782,
-0.971985,0.578308,
-0.973511,0.582886,
-0.976563,0.576782,
-0.978088,0.575256,
-0.985718,0.576782,
-0.990295,0.579834,
-0.996399,0.585938,
-1.00708,0.578308,
-1.01166,0.575256,
-1.02234,0.579834,
-1.02997,0.579834,
-1.0376,0.585938,
-1.04218,0.576782,
-1.0498,0.572205,
-1.05743,0.576782,
-1.06049,0.582886,
-1.06354,0.584412,
-1.06506,0.578308,
-1.07269,0.578308,
-1.07574,0.575256,
-1.08032,0.579834,
-1.08643,0.587463,
-1.08337,0.579834,
-1.08643,0.575256,
-1.08643,0.576782,
-1.091,0.582886,
-1.091,0.587463,
-1.08948,0.579834,
-1.09253,0.575256,
-1.08948,0.58136,
-1.08795,0.58136,
-1.08337,0.587463,
-1.08032,0.58136,
-1.08185,0.576782,
-1.0788,0.58136,
-1.08032,0.58136,
-1.07574,0.588989,
-1.0788,0.575256,
-1.0788,0.576782,
-1.07574,0.579834,
-1.0788,0.58136,
-1.07727,0.592041,
-1.07727,0.579834,
-1.0788,0.579834,
-1.08185,0.579834,
-1.08643,0.582886,
-1.08643,0.587463,
-1.08643,0.58136,
-1.08948,0.58136,
-1.091,0.579834,
-1.09711,0.582886,
-1.09863,0.587463,
-1.10321,0.579834,
-1.10474,0.579834,
-1.11237,0.582886,
-1.12152,0.579834,
-1.1261,0.593567,
-1.13678,0.579834,
-1.14746,0.579834,
-1.15662,0.578308,
-1.17035,0.584412,
-1.18256,0.590515,
-1.19171,0.58136,
-1.20697,0.576782,
-1.2207,0.579834,
-1.23138,0.585938,
-1.24664,0.590515,
-1.25427,0.578308,
-1.26648,0.579834,
-1.28174,0.578308,
-1.28937,0.585938,
-1.3031,0.592041,
-1.31378,0.58136,
-1.32904,0.578308,
-1.34277,0.584412,
-1.35651,0.584412,
-1.36871,0.590515,
-1.38245,0.58136,
-1.39771,0.582886,
-1.41449,0.575256,
-1.42517,0.58136,
-1.43585,0.592041,
-1.45264,0.58136,
-1.4679,0.58136,
-1.47705,0.582886,
-1.49231,0.579834,
-1.50604,0.592041,
-1.52435,0.582886,
-1.53503,0.579834,
-1.54572,0.58136,
-1.5625,0.585938,
-1.57471,0.593567,
-1.58691,0.58136,
-1.60217,0.579834,
-1.62048,0.58136,
-1.63574,0.587463,
-1.65253,0.593567,
-1.66779,0.58136,
-1.68152,0.582886,
-1.6983,0.579834,
-1.71661,0.582886,
-1.73492,0.593567,
-1.74713,0.585938,
-1.76849,0.584412,
-1.78223,0.582886,
-1.80511,0.582886,
-1.8158,0.592041,
-1.82953,0.585938,
-1.84631,0.582886,
-1.86157,0.58136,
-1.87531,0.585938,
-1.88599,0.590515,
-1.89819,0.584412,
-1.90887,0.579834,
-1.91956,0.582886,
-1.93176,0.584412,
-1.93787,0.592041,
-1.9455,0.582886,
-1.9455,0.579834,
-1.94092,0.58136,
-1.93329,0.587463,
-1.92871,0.592041,
-1.91345,0.585938,
-1.89819,0.582886,
-1.88141,0.579834,
-1.8631,0.590515,
-1.83868,0.592041,
-1.81427,0.582886,
-1.79138,0.585938,
-1.76849,0.584412,
-1.7334,0.588989,
-1.70441,0.592041,
-1.67389,0.584412,
-1.64337,0.584412,
-1.61743,0.582886,
-1.58997,0.585938,
-1.5625,0.595093,
-1.53351,0.584412,
-1.51062,0.584412,
-1.48315,0.582886,
-1.45569,0.585938,
-1.43127,0.592041,
-1.40533,0.584412,
-1.38397,0.584412,
-1.36108,0.584412,
-1.3443,0.588989,
-1.32294,0.595093,
-1.3092,0.588989,
-1.28784,0.587463,
-1.26953,0.585938,
-1.25885,0.587463,
-1.24817,0.592041,
-1.23749,0.585938,
-1.22375,0.585938,
-1.21765,0.58136,
-1.21002,0.588989,
-1.20239,0.592041,
-1.19629,0.58136,
-1.18866,0.587463,
-1.18561,0.584412,
-1.1795,0.587463,
-1.1795,0.593567,
-1.18103,0.584412,
-1.18103,0.587463,
-1.18408,0.585938,
-1.18713,0.587463,
-1.18561,0.593567,
-1.19019,0.582886,
-1.19629,0.588989,
-1.20239,0.585938,
-1.2085,0.588989,
-1.21307,0.595093,
-1.2146,0.58136,
-1.22375,0.587463,
-1.22986,0.585938,
-1.23749,0.588989,
-1.24817,0.593567,
-1.2558,0.58136,
-1.26495,0.585938,
-1.26953,0.588989,
-1.27411,0.592041,
-1.28174,0.595093,
-1.28937,0.582886,
-1.29089,0.585938,
-1.29242,0.587463,
-1.297,0.593567,
-1.30005,0.598145,
-1.30157,0.584412,
-1.30157,0.588989,
-1.29852,0.587463,
-1.29852,0.592041,
-1.29547,0.593567,
-1.29395,0.587463,
-1.29089,0.588989,
-1.28784,0.585938,
-1.28632,0.590515,
-1.28174,0.595093,
-1.28174,0.585938,
-1.27716,0.587463,
-1.27411,0.584412,
-1.27106,0.592041,
-1.26648,0.592041,
-1.26953,0.585938,
-1.26953,0.590515,
-1.26648,0.587463,
-1.26648,0.595093,
-1.26495,0.592041,
-1.26495,0.590515,
-1.26801,0.588989,
-1.27411,0.585938,
-1.28021,0.593567,
-1.28632,0.590515,
-1.29242,0.587463,
-1.30005,0.590515,
-1.30463,0.584412,
-1.31226,0.595093,
-1.31989,0.593567,
-1.32904,0.587463,
-1.33972,0.585938,
-1.35193,0.585938,
-1.36261,0.592041,
-1.37177,0.592041,
-1.38245,0.590515,
-1.39618,0.587463,
-1.40839,0.587463,
-1.41754,0.593567,
-1.4328,0.592041,
-1.44043,0.588989,
-1.45111,0.588989,
-1.4679,0.588989,
-1.47705,0.598145,
-1.48926,0.593567,
-1.49994,0.587463,
-1.5152,0.585938,
-1.52435,0.587463,
-1.53503,0.598145,
-1.54419,0.592041,
-1.55792,0.587463,
-1.57013,0.588989,
-1.58081,0.587463,
-1.59454,0.598145,
-1.6098,0.590515,
-1.62506,0.588989,
-1.64032,0.588989,
-1.65253,0.587463,
-1.66779,0.598145,
-1.68152,0.592041,
-1.69678,0.585938,
-1.71051,0.588989,
-1.72577,0.587463,
-1.74713,0.598145,
-1.76086,0.593567,
-1.77765,0.588989,
-1.79901,0.587463,
-1.80817,0.585938,
-1.82037,0.593567,
-1.83105,0.595093,
-1.84479,0.587463,
-1.86157,0.590515,
-1.87073,0.587463,
-1.88599,0.59967,
-1.89819,0.592041,
-1.9104,0.587463,
-1.92261,0.590515,
-1.94244,0.585938,
-1.95313,0.598145,
-1.96838,0.592041,
-1.98517,0.590515,
-2.00195,0.588989,
-2.01263,0.585938,
-2.02637,0.595093,
-2.0401,0.593567,
-2.05231,0.590515,
-2.06146,0.587463,
-2.07367,0.585938,
-2.08435,0.593567,
-2.09351,0.592041,
-2.10266,0.588989,
-2.10571,0.588989,
-2.11182,0.584412,
-2.11639,0.595093,
-2.12097,0.592041,
-2.11945,0.588989,
-2.11945,0.588989,
-2.11334,0.584412,
-2.10724,0.598145,
-2.09961,0.592041,
-2.09198,0.588989,
-2.0813,0.585938,
-2.06604,0.587463,
-2.0462,0.59967,
-2.02484,0.590515,
-2.00653,0.590515,
-1.98517,0.585938,
-1.9577,0.587463,
-1.93176,0.602722,
-1.90125,0.592041,
-1.87225,0.585938,
-1.84479,0.585938,
-1.81274,0.588989,
-1.7807,0.595093,
-1.75171,0.593567,
-1.72424,0.590515,
-1.69067,0.587463,
-1.66473,0.588989,
-1.63727,0.59967,
-1.60828,0.592041,
-1.58691,0.590515,
-1.5625,0.590515,
-1.53656,0.585938,
-1.5152,0.59967,
-1.49841,0.595093,
-1.4801,0.588989,
-1.46332,0.588989,
-1.44806,0.585938,
-1.4328,0.59967,
-1.41907,0.593567,
-1.40533,0.587463,
-1.3916,0.587463,
-1.38397,0.587463,
-1.37787,0.595093,
-1.37024,0.593567,
-1.36261,0.588989,
-1.35956,0.587463,
-1.35651,0.585938,
-1.35651,0.59967,
-1.3504,0.592041,
-1.35651,0.590515,
-1.35956,0.587463,
-1.36414,0.588989,
-1.36719,0.598145,
-1.37177,0.598145,
-1.38092,0.590515,
-1.38245,0.588989,
-1.38702,0.585938,
-1.39008,0.595093,
-1.3916,0.592041,
-1.39923,0.587463,
-1.40686,0.587463,
-1.40839,0.585938,
-1.41449,0.598145,
-1.41907,0.590515,
-1.42517,0.590515,
-1.42975,0.587463,
-1.43585,0.588989,
-1.44196,0.595093,
-1.44043,0.592041,
-1.44806,0.587463,
-1.44806,0.584412,
-1.45111,0.587463,
-1.45416,0.595093,
-1.46027,0.590515,
-1.45874,0.588989,
-1.45874,0.584412,
-1.46484,0.585938,
-1.46332,0.595093,
-1.46484,0.592041,
-1.4679,0.588989,
-1.46637,0.584412,
-1.46942,0.584412,
-1.47095,0.595093,
-1.47095,0.593567,
-1.47095,0.587463,
-1.46942,0.585938,
-1.47095,0.585938,
-1.4679,0.595093,
-1.46942,0.590515,
-1.46637,0.588989,
-1.46484,0.588989,
-1.46637,0.590515,
-1.46332,0.595093,
-1.46484,0.592041,
-1.4679,0.592041,
-1.46942,0.592041,
-1.474,0.585938,
-1.4801,0.592041,
-1.48315,0.593567,
-1.48468,0.592041,
-1.48468,0.585938,
-1.49078,0.585938,
-1.49689,0.595093,
-1.49689,0.590515,
-1.50299,0.590515,
-1.50299,0.588989,
-1.51062,0.587463,
-1.5152,0.592041,
-1.51672,0.590515,
-1.52588,0.587463,
-1.53046,0.585938,
-1.53503,0.584412,
-1.53961,0.593567,
-1.55182,0.592041,
-1.55945,0.592041,
-1.56555,0.585938,
-1.57623,0.585938,
-1.58691,0.592041,
-1.59607,0.593567,
-1.60522,0.592041,
-1.61285,0.590515,
-1.62659,0.587463,
-1.63574,0.593567,
-1.6449,0.592041,
-1.66016,0.592041,
-1.67389,0.587463,
-1.6922,0.585938,
-1.70288,0.592041,
-1.71661,0.593567,
-1.72729,0.590515,
-1.74103,0.585938,
-1.75934,0.585938,
-1.77307,0.593567,
-1.78223,0.590515,
-1.79901,0.592041,
-1.80969,0.585938,
-1.81885,0.584412,
-1.83411,0.593567,
-1.84937,0.590515,
-1.8631,0.592041,
-1.87836,0.585938,
-1.89362,0.584412,
-1.90735,0.592041,
-1.92108,0.593567,
-1.93481,0.590515,
-1.94702,0.584412,
-1.9577,0.585938,
-1.96838,0.592041,
-1.98212,0.592041,
-1.99585,0.590515,
-2.00653,0.584412,
-2.01721,0.585938,
-2.02484,0.590515,
-2.03552,0.592041,
-2.04315,0.595093,
-2.05078,0.585938,
-2.06451,0.582886,
-2.0752,0.590515,
-2.08588,0.592041,
-2.10114,0.592041,
-2.11029,0.585938,
-2.12402,0.585938,
-2.13318,0.587463,
-2.14539,0.595093,
-2.15912,0.592041,
-2.16827,0.585938,
-2.17438,0.584412,
-2.18201,0.592041,
-2.19116,0.588989,
-2.20184,0.593567,
-2.20184,0.585938,
-2.2049,0.584412,
-2.2049,0.590515,
-2.19879,0.587463,
-2.19421,0.590515,
-2.18353,0.582886,
-2.1759,0.582886,
-2.15759,0.588989,
-2.13928,0.588989,
-2.12097,0.595093,
-2.10266,0.587463,
-2.0813,0.585938,
-2.05994,0.588989,
-2.03552,0.587463,
-2.00806,0.593567,
-1.97449,0.587463,
-1.94397,0.584412,
-1.90735,0.590515,
-1.87073,0.588989,
-1.83563,0.592041,
-1.80054,0.585938,
-1.76849,0.584412,
-1.73187,0.590515,
-1.69678,0.588989,
-1.66779,0.590515,
-1.63727,0.585938,
-1.60675,0.579834,
-1.57471,0.590515,
-1.54266,0.590515,
-1.52283,0.590515,
-1.49689,0.585938,
-1.47552,0.584412,
-1.45569,0.590515,
-1.43738,0.588989,
-1.42365,0.588989,
-1.41296,0.582886,
-1.40076,0.58136,
-1.39313,0.590515,
-1.38855,0.592041,
-1.38245,0.592041,
-1.37939,0.587463,
-1.37482,0.584412,
-1.37482,0.587463,
-1.37787,0.590515,
-1.37482,0.590515,
-1.37329,0.587463,
-1.38092,0.582886,
-1.39008,0.588989,
-1.39618,0.588989,
-1.40686,0.590515,
-1.41449,0.584412,
-1.42517,0.584412,
-1.4328,0.585938,
-1.44043,0.585938,
-1.45264,0.590515,
-1.46332,0.584412,
-1.48163,0.584412,
-1.49536,0.585938,
-1.50604,0.585938,
-1.51672,0.590515,
-1.51978,0.582886,
-1.53198,0.585938,
-1.54572,0.584412,
-1.55945,0.588989,
-1.56708,0.587463,
-1.57166,0.582886,
-1.57623,0.584412,
-1.58081,0.587463,
-1.58539,0.587463,
-1.58539,0.592041,
-1.58539,0.582886,
-1.57776,0.58136,
-1.58081,0.587463,
-1.57776,0.587463,
-1.57166,0.590515,
-1.57318,0.585938,
-1.57471,0.585938,
-1.56708,0.587463,
-1.5625,0.587463,
-1.55792,0.590515,
-1.55334,0.584412,
-1.54419,0.576782,
-1.54114,0.588989,
-1.53809,0.582886,
-1.53809,0.588989,
-1.53809,0.587463,
-1.53503,0.585938,
-1.53503,0.587463,
-1.53503,0.585938,
-1.53809,0.590515,
-1.53656,0.585938,
-1.53656,0.58136,
-1.53961,0.584412,
-1.54572,0.584412,
-1.55334,0.587463,
-1.5564,0.588989,
-1.5625,0.582886,
-1.56403,0.585938,
-1.57013,0.585938,
-1.57776,0.585938,
-1.58691,0.585938,
-1.59607,0.58136,
-1.60217,0.587463,
-1.61438,0.584412,
-1.62659,0.587463,
-1.63422,0.587463,
-1.64185,0.58136,
-1.65253,0.584412,
-1.66321,0.582886,
-1.67084,0.585938,
-1.68304,0.587463,
-1.69067,0.579834,
-1.69678,0.582886,
-1.70593,0.584412,
-1.72119,0.585938,
-1.72729,0.585938,
-1.73645,0.579834,
-1.74561,0.587463,
-1.75781,0.582886,
-1.76392,0.584412,
-1.7746,0.585938,
-1.77917,0.582886,
-1.79138,0.585938,
-1.80054,0.582886,
-1.80664,0.587463,
-1.82037,0.584412,
-1.83258,0.578308,
-1.84631,0.582886,
-1.86005,0.584412,
-1.87683,0.579834,
-1.88751,0.584412,
-1.90735,0.58136,
-1.91956,0.582886,
-1.93176,0.582886,
-1.94397,0.587463,
-1.96228,0.582886,
-1.97296,0.579834,
-1.98517,0.584412,
-2.00043,0.582886,
-2.00958,0.584412,
-2.01874,0.58136,
-2.02789,0.579834,
-2.03705,0.584412,
-2.04773,0.582886,
-2.05688,0.585938,
-2.06757,0.579834,
-2.07825,0.58136,
-2.09198,0.584412,
-2.10419,0.584412,
-2.12097,0.587463,
-2.1347,0.579834,
-2.14996,0.579834,
-2.16064,0.584412,
-2.17285,0.582886,
-2.18964,0.585938,
-2.2049,0.58136,
-2.22321,0.58136,
-2.23846,0.582886,
-2.25525,0.584412,
-2.27509,0.587463,
-2.28424,0.578308,
-2.30255,0.578308,
-2.31476,0.58136,
-2.32391,0.582886,
-2.33002,0.585938,
-2.33612,0.58136,
-2.3468,0.576782,
-2.34985,0.584412,
-2.34833,0.582886,
-2.34375,0.58136,
-2.33917,0.579834,
-2.33307,0.582886,
-2.32239,0.584412,
-2.31018,0.582886,
-2.29034,0.582886,
-2.27509,0.582886,
-2.2522,0.578308,
-2.23083,0.58136,
-2.20795,0.579834,
-2.18353,0.585938,
-2.15912,0.58136,
-2.13013,0.579834,
-2.10419,0.582886,
-2.07825,0.58136,
-2.04468,0.582886,
-2.01721,0.579834,
-1.98975,0.578308,
-1.96381,0.584412,
-1.93329,0.579834,
-1.9104,0.587463,
-1.88293,0.579834,
-1.85547,0.58136,
-1.83411,0.58136,
-1.80969,0.579834,
-1.7868,0.584412,
-1.76697,0.579834,
-1.74713,0.578308,
-1.73035,0.582886,
-1.71051,0.578308,
-1.69373,0.584412,
-1.67847,0.578308,
-1.66931,0.579834,
-1.6571,0.579834,
-1.64642,0.58136,
-1.64032,0.582886,
-1.63269,0.576782,
-1.62811,0.58136,
-1.62964,0.58136,
-1.62659,0.58136,
-1.62506,0.585938,
-1.62811,0.576782,
-1.63269,0.579834,
-1.63727,0.58136,
-1.64337,0.58136,
-1.64642,0.582886,
-1.65405,0.58136,
-1.65863,0.578308,
-1.66626,0.58136,
-1.67389,0.58136,
-1.67999,0.582886,
-1.6922,0.579834,
-1.69983,0.576782,
-1.70898,0.578308,
-1.71661,0.579834,
-1.72577,0.585938,
-1.73187,0.579834,
-1.7395,0.578308,
-1.74408,0.58136,
-1.74713,0.579834,
-1.75018,0.582886,
-1.75781,0.578308,
-1.76392,0.582886,
-1.76849,0.579834,
-1.77155,0.579834,
-1.77155,0.585938,
-1.7746,0.576782,
-1.77612,0.582886,
-1.77917,0.579834,
-1.7807,0.579834,
-1.7807,0.584412,
-1.78375,0.58136,
-1.78223,0.579834,
-1.78986,0.579834,
-1.79443,0.58136,
-1.79291,0.58136,
-1.79443,0.578308,
-1.79291,0.579834,
-1.79443,0.579834,
-1.79596,0.58136,
-1.79596,0.585938,
-1.79596,0.57373,
-1.79749,0.58136,
-1.79901,0.58136,
-1.79596,0.582886,
-1.79596,0.584412,
-1.79138,0.578308,
-1.7868,0.579834,
-1.7868,0.58136,
-1.78375,0.584412,
-1.7868,0.58136,
-1.79291,0.578308,
-1.79443,0.578308,
-1.79596,0.58136,
-1.79596,0.582886,
-1.80359,0.585938,
-1.80511,0.578308,
-1.81274,0.576782,
-1.81885,0.576782,
-1.82037,0.58136,
-1.82648,0.585938,
-1.83411,0.578308,
-1.84021,0.578308,
-1.84479,0.576782,
-1.84937,0.579834,
-1.85394,0.582886,
-1.86005,0.576782,
-1.86615,0.576782,
-1.87073,0.579834,
-1.87836,0.58136,
-1.88599,0.58136,
-1.88751,0.58136,
-1.89362,0.578308,
-1.9043,0.576782,
-1.90735,0.579834,
-1.91498,0.582886,
-1.92413,0.578308,
-1.93024,0.578308,
-1.93939,0.578308,
-1.94855,0.582886,
-1.95618,0.582886,
-1.96838,0.575256,
-1.97601,0.576782,
-1.98364,0.576782,
-1.99127,0.579834,
-2.005,0.578308,
-2.01721,0.57373,
-2.034,0.578308,
-2.0462,0.578308,
-2.05994,0.58136,
-2.07367,0.579834,
-2.0813,0.576782,
-2.09351,0.57373,
-2.11334,0.576782,
-2.12097,0.58136,
-2.13318,0.579834,
-2.14691,0.57373,
-2.15912,0.57373,
-2.17438,0.575256,
-2.18353,0.58136,
-2.20184,0.582886,
-2.21405,0.575256,
-2.22778,0.576782,
-2.23846,0.578308,
-2.2522,0.582886,
-2.26593,0.58136,
-2.28119,0.578308,
-2.29187,0.576782,
-2.30255,0.575256,
-2.31476,0.582886,
-2.32544,0.58136,
-2.33612,0.575256,
-2.35291,0.575256,
-2.36359,0.576782,
-2.3819,0.582886,
-2.39105,0.579834,
-2.40021,0.57373,
-2.40936,0.576782,
-2.41547,0.575256,
-2.41852,0.582886,
-2.41852,0.58136,
-2.4231,0.57373,
-2.41852,0.57373,
-2.40936,0.575256,
-2.39716,0.58136,
-2.38647,0.58136,
-2.36816,0.575256,
-2.3468,0.575256,
-2.32391,0.572205,
-2.30255,0.578308,
-2.28424,0.579834,
-2.25677,0.576782,
-2.23236,0.575256,
-2.20184,0.57373,
-2.1698,0.58136,
-2.14233,0.58136,
-2.11182,0.576782,
-2.0874,0.57373,
-2.05536,0.576782,
-2.02179,0.58136,
-1.9928,0.579834,
-1.96228,0.576782,
-1.93481,0.576782,
-1.90277,0.575256,
-1.87531,0.579834,
-1.84784,0.58136,
-1.8158,0.575256,
-1.79291,0.578308,
-1.76697,0.575256,
-1.7395,0.579834,
-1.71814,0.579834,
-1.6983,0.572205,
-1.68152,0.576782,
-1.67084,0.575256,
-1.66016,0.579834,
-1.64642,0.58136,
-1.64032,0.572205,
-1.63269,0.575256,
-1.62354,0.575256,
-1.62201,0.58136,
-1.61743,0.578308,
-1.61743,0.57373,
-1.61285,0.576782,
-1.61133,0.572205,
-1.6098,0.58136,
-1.6098,0.575256,
-1.61133,0.57373,
-1.61133,0.57373,
-1.61896,0.576782,
-1.62354,0.58136,
-1.62964,0.576782,
-1.63574,0.572205,
-1.63879,0.576782,
-1.64948,0.570679,
-1.65863,0.582886,
-1.66626,0.575256,
-1.67236,0.569153,
-1.68152,0.575256,
-1.6922,0.57373,
-1.69525,0.58136,
-1.70593,0.575256,
-1.71356,0.572205,
-1.71814,0.578308,
-1.72119,0.57373,
-1.72729,0.579834,
-1.7334,0.579834,
-1.7334,0.569153,
-1.7334,0.575256,
-1.73645,0.570679,
-1.73645,0.58136,
-1.73645,0.578308,
-1.73492,0.572205,
-1.7334,0.575256,
-1.73187,0.575256,
-1.72882,0.578308,
-1.72729,0.579834,
-1.72424,0.570679,
-1.72272,0.57373,
-1.72424,0.572205,
-1.72424,0.579834,
-1.72272,0.579834,
-1.72272,0.569153,
-1.71509,0.57373,
-1.71661,0.575256,
-1.70898,0.578308,
-1.70593,0.579834,
-1.70135,0.572205,
-1.70135,0.572205,
-1.69525,0.57373,
-1.69373,0.579834,
-1.6983,0.579834,
-1.6983,0.570679,
-1.69678,0.57373,
-1.69983,0.575256,
-1.70135,0.579834,
-1.70593,0.578308,
-1.71356,0.570679,
-1.71509,0.575256,
-1.72424,0.57373,
-1.72882,0.579834,
-1.73187,0.578308,
-1.73187,0.570679,
-1.73798,0.575256,
-1.74408,0.57373,
-1.75018,0.582886,
-1.76086,0.579834,
-1.76544,0.570679,
-1.77155,0.57373,
-1.77917,0.572205,
-1.78223,0.582886,
-1.79291,0.578308,
-1.80054,0.572205,
-1.80969,0.57373,
-1.81885,0.572205,
-1.83105,0.58136,
-1.84021,0.57373,
-1.84631,0.567627,
-1.85852,0.575256,
-1.86615,0.575256,
-1.87378,0.578308,
-1.88293,0.576782,
-1.88904,0.572205,
-1.89972,0.572205,
-1.9104,0.57373,
-1.92108,0.578308,
-1.93024,0.58136,
-1.94397,0.57373,
-1.95007,0.57373,
-1.9577,0.57373,
-1.96381,0.578308,
-1.97296,0.579834,
-1.98822,0.570679,
-2.00043,0.57373,
-2.01721,0.572205,
-2.03552,0.579834,
-2.04315,0.576782,
-2.05383,0.570679,
-2.06757,0.570679,
-2.07672,0.572205,
-2.08893,0.579834,
-2.09961,0.576782,
-2.11029,0.570679,
-2.11945,0.57373,
-2.1347,0.57373,
-2.14539,0.582886,
-2.15912,0.578308,
-2.1759,0.57373,
-2.18506,0.570679,
-2.19727,0.570679,
-2.21252,0.579834,
-2.22321,0.578308,
-2.23083,0.572205,
-2.24457,0.572205,
-2.25525,0.572205,
-2.27051,0.579834,
-2.28119,0.579834,
-2.29492,0.570679,
-2.2995,0.572205,
-2.30713,0.57373,
-2.31476,0.578308,
-2.31628,0.576782,
-2.31476,0.569153,
-2.31323,0.572205,
-2.31018,0.569153,
-2.30103,0.579834,
-2.28729,0.57373,
-2.27509,0.572205,
-2.25677,0.570679,
-2.23846,0.570679,
-2.2171,0.578308,
-2.19269,0.578308,
-2.16522,0.570679,
-2.13623,0.570679,
-2.10876,0.576782,
-2.07672,0.578308,
-2.0401,0.578308,
-2.00958,0.572205,
-1.97144,0.570679,
-1.93787,0.57373,
-1.9043,0.579834,
-1.87073,0.578308,
-1.84021,0.572205,
-1.80969,0.569153,
-1.77917,0.572205,
-1.75781,0.576782,
-1.73035,0.578308,
-1.70746,0.572205,
-1.68152,0.570679,
-1.66321,0.57373,
-1.64032,0.576782,
-1.61743,0.576782,
-1.6037,0.570679,
-1.58844,0.569153,
-1.5686,0.572205,
-1.55792,0.578308,
-1.54266,0.575256,
-1.53503,0.572205,
-1.52893,0.570679,
-1.52283,0.575256,
-1.5152,0.578308,
-1.50604,0.57373,
-1.50452,0.572205,
-1.49994,0.570679,
-1.49841,0.572205,
-1.49231,0.576782,
-1.49231,0.57373,
-1.48926,0.572205,
-1.49231,0.570679,
-1.48926,0.572205,
-1.48926,0.576782,
-1.49536,0.575256,
-1.49689,0.57373,
-1.50299,0.569153,
-1.51062,0.572205,
-1.51978,0.576782,
-1.52435,0.572205,
-1.53046,0.570679,
-1.53809,0.570679,
-1.54419,0.572205,
-1.55182,0.576782,
-1.55792,0.572205,
-1.56555,0.570679,
-1.57166,0.569153,
-1.57928,0.576782,
-1.58386,0.575256,
-1.59149,0.575256,
-1.59607,0.57373,
-1.60065,0.567627,
-1.60522,0.570679,
-1.6098,0.575256,
-1.61285,0.57373,
-1.61743,0.570679,
-1.62048,0.567627,
-1.62506,0.575256,
-1.62811,0.579834,
-1.62811,0.572205,
