-0.914001,0.527954,
-0.878906,0.52948,
-0.848389,0.518799,
-0.823975,0.520325,
-0.80719,0.527954,
-0.798035,0.527954,
-0.798035,0.527954,
-0.805664,0.520325,
-0.811768,0.517273,
-0.830078,0.526428,
-0.85144,0.527954,
-0.881958,0.524902,
-0.907898,0.521851,
-0.942993,0.521851,
-0.979614,0.526428,
-1.02081,0.526428,
-1.06354,0.523376,
-1.10931,0.518799,
-1.16119,0.517273,
-1.21002,0.526428,
-1.26038,0.524902,
-1.31531,0.52948,
-1.37024,0.523376,
-1.42822,0.517273,
-1.49078,0.526428,
-1.55182,0.526428,
-1.61285,0.526428,
-1.67084,0.520325,
-1.72729,0.517273,
-1.7868,0.527954,
-1.84631,0.52948,
-1.9043,0.526428,
-1.95465,0.520325,
-2.005,0.518799,
-2.05536,0.526428,
-2.10114,0.524902,
-2.14081,0.524902,
-2.1759,0.518799,
-2.2049,0.517273,
-2.22778,0.527954,
-2.24915,0.527954,
-2.26288,0.523376,
-2.27203,0.520325,
-2.27509,0.521851,
-2.27356,0.526428,
-2.26746,0.521851,
-2.25525,0.524902,
-2.24304,0.521851,
-2.22626,0.515747,
-2.20795,0.524902,
-2.18658,0.527954,
-2.16522,0.524902,
-2.13928,0.520325,
-2.11639,0.517273,
-2.08893,0.526428,
-2.06604,0.527954,
-2.04468,0.523376,
-2.02789,0.518799,
-2.00958,0.517273,
-1.99585,0.526428,
-1.98517,0.527954,
-1.98059,0.526428,
-1.97144,0.517273,
-1.96533,0.517273,
-1.96381,0.527954,
-1.96991,0.523376,
-1.97601,0.524902,
-1.98059,0.518799,
-1.98822,0.518799,
-2.00195,0.526428,
-2.01416,0.526428,
-2.03094,0.524902,
-2.0462,0.518799,
-2.06909,0.517273,
-2.09045,0.526428,
-2.11182,0.527954,
-2.13776,0.523376,
-2.1637,0.520325,
-2.18658,0.517273,
-2.21558,0.526428,
-2.24304,0.526428,
-2.27203,0.523376,
-2.3056,0.515747,
-2.33154,0.518799,
-2.36511,0.526428,
-2.39563,0.524902,
-2.42462,0.521851,
-2.45209,0.518799,
-2.48108,0.514221,
-2.50549,0.523376,
-2.52991,0.524902,
-2.55585,0.521851,
-2.58636,0.517273,
-2.6123,0.514221,
-2.6413,0.526428,
-2.67487,0.526428,
-2.70386,0.520325,
-2.73132,0.518799,
-2.76642,0.515747,
-2.79846,0.527954,
-2.82745,0.526428,
-2.85645,0.523376,
-2.88696,0.517273,
-2.91595,0.515747,
-2.94952,0.524902,
-2.97546,0.523376,
-2.99683,0.523376,
-3.01971,0.518799,
-3.04718,0.518799,
-3.06854,0.526428,
-3.0899,0.523376,
-3.11279,0.521851,
-3.13568,0.518799,
-3.15552,0.517273,
-3.17993,0.523376,
-3.20282,0.523376,
-3.22266,0.521851,
-3.24554,0.518799,
-3.26996,0.518799,
-3.28979,0.526428,
-3.31268,0.523376,
-3.33405,0.523376,
-3.35541,0.515747,
-3.37067,0.517273,
-3.38898,0.523376,
-3.40729,0.523376,
-3.42712,0.521851,
-3.44391,0.515747,
-3.45917,0.520325,
-3.47748,0.523376,
-3.49121,0.523376,
-3.50342,0.524902,
-3.52173,0.517273,
-3.53241,0.517273,
-3.54767,0.523376,
-3.56293,0.523376,
-3.58276,0.523376,
-3.59497,0.517273,
-3.6087,0.518799,
-3.61938,0.521851,
-3.62091,0.521851,
-3.62396,0.523376,
-3.62091,0.517273,
-3.59955,0.520325,
-3.56445,0.521851,
-3.5202,0.524902,
-3.45154,0.523376,
-3.37067,0.517273,
-3.26538,0.517273,
-3.15094,0.524902,
-3.01514,0.526428,
-2.87476,0.521851,
-2.72217,0.515747,
-2.56653,0.520325,
-2.41852,0.523376,
-2.26746,0.523376,
-2.12555,0.518799,
-1.99585,0.518799,
-1.8631,0.518799,
-1.74866,0.521851,
-1.64185,0.524902,
-1.53961,0.520325,
-1.44958,0.518799,
-1.36719,0.518799,
-1.29242,0.526428,
-1.22528,0.524902,
-1.16425,0.518799,
-1.11389,0.517273,
-1.06812,0.520325,
-1.03302,0.521851,
-0.994873,0.524902,
-0.970459,0.518799,
-0.952148,0.517273,
-0.938416,0.518799,
-0.933838,0.521851,
-0.932312,0.527954,
-0.93689,0.521851,
-0.953674,0.515747,
-0.971985,0.518799,
-1.00098,0.523376,
-1.02386,0.524902,
-1.05438,0.518799,
-1.08795,0.517273,
-1.12915,0.517273,
-1.16577,0.524902,
-1.21155,0.523376,
-1.25427,0.521851,
-1.3031,0.520325,
-1.35345,0.517273,
-1.40686,0.521851,
-1.46027,0.521851,
-1.50909,0.520325,
-1.5686,0.514221,
-1.62506,0.518799,
-1.6861,0.515747,
-1.74255,0.527954,
-1.80206,0.517273,
-1.86157,0.515747,
-1.92108,0.518799,
-1.97754,0.520325,
-2.03552,0.524902,
-2.0813,0.517273,
-2.13318,0.517273,
-2.1759,0.515747,
-2.21558,0.518799,
-2.2522,0.524902,
-2.28424,0.520325,
-2.31934,0.520325,
-2.34375,0.517273,
-2.36359,0.521851,
-2.37885,0.523376,
-2.38647,0.520325,
-2.39258,0.515747,
-2.39105,0.515747,
-2.38647,0.521851,
-2.37885,0.524902,
-2.36511,0.518799,
-2.35138,0.514221,
-2.32849,0.517273,
-2.31018,0.523376,
-2.28577,0.523376,
-2.26593,0.517273,
-2.24304,0.517273,
-2.21863,0.515747,
-2.19574,0.521851,
-2.17896,0.526428,
-2.15759,0.520325,
-2.14081,0.515747,
-2.13013,0.514221,
-2.11792,0.523376,
-2.10876,0.524902,
-2.09961,0.518799,
-2.09961,0.518799,
-2.10419,0.514221,
-2.10419,0.518799,
-2.10876,0.524902,
-2.11639,0.518799,
-2.13013,0.515747,
-2.13776,0.517273,
-2.15302,0.521851,
-2.16827,0.524902,
-2.19116,0.521851,
-2.20642,0.514221,
-2.22473,0.518799,
-2.24915,0.518799,
-2.27203,0.526428,
-2.29492,0.518799,
-2.32086,0.515747,
-2.3407,0.512695,
-2.36511,0.521851,
-2.39716,0.527954,
-2.42462,0.521851,
-2.45361,0.517273,
-2.4826,0.514221,
-2.50549,0.521851,
-2.53906,0.526428,
-2.56348,0.520325,
-2.59705,0.518799,
-2.62604,0.515747,
-2.65961,0.521851,
-2.69165,0.524902,
-2.72064,0.520325,
-2.75269,0.518799,
-2.7832,0.515747,
-2.81372,0.518799,
-2.83813,0.524902,
-2.86255,0.520325,
-2.88696,0.515747,
-2.91748,0.517273,
-2.94189,0.518799,
-2.96631,0.526428,
-2.98767,0.520325,
-3.01361,0.518799,
-3.04108,0.514221,
-3.05939,0.520325,
-3.08075,0.521851,
-3.10059,0.520325,
-3.12347,0.520325,
-3.14178,0.515747,
-3.16467,0.521851,
-3.18146,0.526428,
-3.20892,0.518799,
-3.22571,0.517273,
-3.24402,0.515747,
-3.26233,0.523376,
-3.28522,0.523376,
-3.302,0.518799,
-3.32031,0.514221,
-3.33862,0.514221,
-3.35388,0.515747,
-3.37677,0.524902,
-3.39966,0.517273,
-3.41492,0.515747,
-3.44086,0.511169,
-3.45612,0.518799,
-3.479,0.521851,
-3.49731,0.518799,
-3.51257,0.512695,
-3.53088,0.517273,
-3.54309,0.521851,
-3.55835,0.524902,
-3.56903,0.520325,
-3.58582,0.515747,
-3.59497,0.515747,
-3.60565,0.520325,
-3.61938,0.521851,
-3.63159,0.520325,
-3.64075,0.515747,
-3.64685,0.514221,
-3.64838,0.518799,
-3.64227,0.520325,
-3.63007,0.518799,
-3.6026,0.515747,
-3.5614,0.514221,
-3.51257,0.518799,
-3.44543,0.524902,
-3.35693,0.518799,
-3.25012,0.514221,
-3.12653,0.515747,
-2.98615,0.521851,
-2.84119,0.521851,
-2.68402,0.517273,
-2.5238,0.515747,
-2.36969,0.515747,
-2.21863,0.518799,
-2.07214,0.524902,
-1.93024,0.517273,
-1.80206,0.515747,
-1.67694,0.514221,
-1.56403,0.518799,
-1.46637,0.521851,
-1.36871,0.515747,
-1.28479,0.515747,
-1.21155,0.514221,
-1.14746,0.520325,
-1.08795,0.521851,
-1.04065,0.517273,
-0.999451,0.515747,
-0.965881,0.515747,
-0.935364,0.518799,
-0.917053,0.524902,
-0.904846,0.518799,
-0.900269,0.518799,
-0.897217,0.514221,
-0.901794,0.515747,
-0.909424,0.526428,
-0.927734,0.515747,
-0.947571,0.517273,
-0.973511,0.514221,
-1.0025,0.520325,
-1.03455,0.526428,
-1.07422,0.518799,
-1.11237,0.515747,
-1.15814,0.514221,
-1.2085,0.517273,
-1.26343,0.524902,
-1.31226,0.517273,
-1.36414,0.517273,
-1.42059,0.512695,
-1.4801,0.521851,
-1.53961,0.520325,
-1.60065,0.517273,
-1.66168,0.514221,
-1.72119,0.512695,
-1.78528,0.518799,
-1.84326,0.521851,
-1.89972,0.515747,
-1.96228,0.514221,
-2.01263,0.514221,
-2.06604,0.517273,
-2.11639,0.520325,
-2.15912,0.518799,
-2.20795,0.512695,
-2.24915,0.512695,
-2.29034,0.518799,
-2.32239,0.518799,
-2.35138,0.512695,
-2.37122,0.512695,
-2.3941,0.514221,
-2.40479,0.521851,
-2.41547,0.521851,
-2.41852,0.514221,
-2.41699,0.514221,
-2.41089,0.512695,
-2.40936,0.518799,
-2.39563,0.521851,
-2.37732,0.515747,
-2.35596,0.515747,
-2.33307,0.514221,
-2.30713,0.520325,
-2.28119,0.520325,
-2.25677,0.514221,
-2.23389,0.512695,
-2.20947,0.512695,
-2.18811,0.518799,
-2.1637,0.521851,
-2.14691,0.514221,
-2.1286,0.518799,
-2.11182,0.514221,
-2.09351,0.520325,
-2.08588,0.523376,
-2.07672,0.514221,
-2.06146,0.512695,
-2.05994,0.514221,
-2.05841,0.520325,
-2.05536,0.520325,
-2.05841,0.517273,
-2.06604,0.515747,
-2.07367,0.514221,
-2.08588,0.521851,
-2.09656,0.523376,
-2.11029,0.512695,
-2.12555,0.514221,
-2.14996,0.515747,
-2.1759,0.521851,
-2.19574,0.520325,
-2.22015,0.514221,
-2.24457,0.512695,
-2.27661,0.517273,
-2.30103,0.520325,
-2.33154,0.520325,
-2.36053,0.515747,
-2.39105,0.515747,
-2.42157,0.517273,
-2.45514,0.521851,
-2.48413,0.520325,
-2.5177,0.517273,
-2.54822,0.509644,
-2.58331,0.514221,
-2.61841,0.523376,
-2.64893,0.518799,
-2.67487,0.517273,
-2.71149,0.512695,
-2.74506,0.517273,
-2.76947,0.523376,
-2.80762,0.520325,
-2.83661,0.512695,
-2.86865,0.512695,
-2.89917,0.515747,
-2.92969,0.521851,
-2.95868,0.518799,
-2.98462,0.518799,
-3.01056,0.514221,
-3.03802,0.512695,
-3.06854,0.518799,
-3.09143,0.515747,
-3.11584,0.514221,
-3.13568,0.514221,
-3.15552,0.512695,
-3.17993,0.518799,
-3.19977,0.515747,
-3.21808,0.515747,
-3.23486,0.511169,
-3.2547,0.511169,
-3.27301,0.521851,
-3.28979,0.517273,
-3.30963,0.517273,
-3.32489,0.511169,
-3.34015,0.512695,
-3.35693,0.520325,
-3.3783,0.518799,
-3.39661,0.512695,
-3.41034,0.511169,
-3.42407,0.511169,
-3.44238,0.520325,
-3.45764,0.517273,
-3.47137,0.512695,
-3.48969,0.511169,
-3.50189,0.508118,
-3.51563,0.518799,
-3.52783,0.518799,
-3.54462,0.512695,
-3.55225,0.511169,
-3.56293,0.508118,
-3.56445,0.523376,
-3.56598,0.515747,
-3.55988,0.514221,
-3.54919,0.512695,
-3.52478,0.509644,
-3.48816,0.520325,
-3.44238,0.517273,
-3.37677,0.512695,
-3.2959,0.509644,
-3.19519,0.509644,
-3.08075,0.520325,
-2.94952,0.515747,
-2.80762,0.515747,
-2.65656,0.511169,
-2.50549,0.512695,
-2.35596,0.521851,
-2.20947,0.515747,
-2.07062,0.514221,
-1.93634,0.511169,
-1.81122,0.514221,
-1.69373,0.518799,
-1.58386,0.517273,
-1.48621,0.512695,
-1.39618,0.512695,
-1.31836,0.511169,
-1.24817,0.518799,
-1.18866,0.515747,
-1.13983,0.514221,
-1.09406,0.512695,
-1.05438,0.514221,
-1.02692,0.520325,
-1.00403,0.515747,
-0.985718,0.515747,
-0.98114,0.511169,
-0.978088,0.512695,
-0.98114,0.517273,
-0.991821,0.518799,
-1.00403,0.512695,
-1.01929,0.511169,
-1.0376,0.512695,
-1.06506,0.518799,
-1.09711,0.517273,
-1.13373,0.514221,
-1.17493,0.512695,
-1.21307,0.512695,
-1.2619,0.520325,
-1.31226,0.517273,
-1.35956,0.512695,
-1.41449,0.512695,
-1.46942,0.511169,
-1.52283,0.520325,
-1.58081,0.514221,
-1.64032,0.512695,
-1.70288,0.508118,
-1.76544,0.511169,
-1.83105,0.514221,
-1.89056,0.515747,
-1.95465,0.511169,
-2.01569,0.508118,
-2.07977,0.509644,
-2.13928,0.517273,
-2.19421,0.518799,
-2.24762,0.515747,
-2.30103,0.506592,
-2.34375,0.509644,
-2.3819,0.517273,
-2.42004,0.515747,
-2.45361,0.512695,
-2.48108,0.509644,
-2.50092,0.512695,
-2.51923,0.515747,
-2.52838,0.517273,
-2.53296,0.514221,
-2.53601,0.508118,
-2.52838,0.509644,
-2.51617,0.515747,
-2.49939,0.514221,
-2.48413,0.512695,
-2.46429,0.512695,
-2.43988,0.511169,
-2.41089,0.515747,
-2.3819,0.514221,
-2.3468,0.511169,
-2.31781,0.509644,
-2.28882,0.511169,
-2.25525,0.515747,
-2.22778,0.517273,
-2.19727,0.514221,
-2.1759,0.509644,
-2.15607,0.512695,
-2.13623,0.515747,
-2.11639,0.514221,
-2.10419,0.512695,
-2.08893,0.511169,
-2.0813,0.509644,
-2.07672,0.514221,
-2.07825,0.518799,
-2.07672,0.512695,
-2.0752,0.511169,
-2.07977,0.511169,
-2.08893,0.517273,
-2.10724,0.514221,
-2.12097,0.515747,
-2.1347,0.511169,
-2.15149,0.511169,
-2.17133,0.517273,
-2.18658,0.518799,
-2.20947,0.512695,
-2.23236,0.508118,
-2.25983,0.508118,
-2.28729,0.515747,
-2.31628,0.515747,
-2.34528,0.512695,
-2.37732,0.509644,
-2.40631,0.511169,
-2.43378,0.515747,
-2.46277,0.518799,
-2.48871,0.512695,
-2.51465,0.509644,
-2.54059,0.511169,
-2.56805,0.514221,
-2.59399,0.515747,
-2.62299,0.515747,
-2.65045,0.508118,
-2.67334,0.509644,
-2.70386,0.514221,
-2.73132,0.512695,
-2.76184,0.512695,
-2.78778,0.509644,
-2.81677,0.508118,
-2.83966,0.515747,
-2.86713,0.514221,
-2.89459,0.518799,
-2.91443,0.508118,
-2.93579,0.508118,
-2.96021,0.514221,
-2.97394,0.514221,
-2.99377,0.512695,
-3.01208,0.506592,
-3.03192,0.509644,
-3.05176,0.512695,
-3.07007,0.514221,
-3.08838,0.514221,
-3.10822,0.508118,
-3.125,0.508118,
-3.14789,0.514221,
-3.16467,0.514221,
-3.18909,0.511169,
-3.21198,0.506592,
-3.23334,0.511169,
-3.25623,0.511169,
-3.27301,0.512695,
-3.28979,0.512695,
-3.31268,0.509644,
-3.32642,0.508118,
-3.34778,0.512695,
-3.36304,0.515747,
-3.3783,0.515747,
-3.39203,0.50354,
-3.39508,0.506592,
-3.40271,0.511169,
-3.40576,0.514221,
-3.39355,0.514221,
-3.38135,0.509644,
-3.34778,0.508118,
-3.30811,0.509644,
-3.2486,0.511169,
-3.17383,0.512695,
-3.0777,0.506592,
-2.96173,0.508118,
-2.82898,0.512695,
-2.6886,0.509644,
-2.53906,0.514221,
-2.388,0.511169,
-2.24152,0.506592,
-2.09198,0.509644,
-1.95618,0.506592,
-1.81885,0.512695,
-1.6983,0.508118,
-1.58386,0.505066,
-1.4679,0.509644,
-1.37024,0.511169,
-1.27563,0.512695,
-1.18866,0.506592,
-1.11389,0.506592,
-1.04523,0.511169,
-0.985718,0.512695,
-0.932312,0.512695,
-0.881958,0.511169,
-0.849915,0.505066,
-0.816345,0.509644,
-0.790405,0.512695,
-0.770569,0.514221,
-0.759888,0.505066,
-0.752258,0.506592,
-0.750732,0.509644,
-0.758362,0.509644,
-0.770569,0.512695,
-0.784302,0.511169,
-0.805664,0.505066,
-0.834656,0.506592,
-0.865173,0.512695,
-0.898743,0.511169,
-0.930786,0.509644,
-0.965881,0.506592,
-1.00555,0.508118,
-1.04675,0.509644,
-1.09253,0.512695,
-1.13831,0.506592,
-1.18713,0.50354,
-1.23596,0.508118,
-1.28479,0.509644,
-1.33057,0.511169,
-1.38702,0.506592,
-1.44196,0.506592,
-1.49841,0.509644,
-1.55487,0.509644,
-1.6098,0.511169,
-1.66931,0.505066,
-1.72424,0.505066,
-1.77612,0.509644,
-1.828,0.509644,
-1.87683,0.512695,
-1.91956,0.50354,
-1.96381,0.50354,
-2.00348,0.506592,
-2.0401,0.509644,
-2.07062,0.509644,
-2.10114,0.505066,
-2.1225,0.50354,
-2.13776,0.509644,
-2.14996,0.508118,
-2.15607,0.509644,
-2.15759,0.508118,
-2.15149,0.505066,
-2.14233,0.511169,
-2.12708,0.509644,
-2.11334,0.509644,
-2.09045,0.508118,
-2.07062,0.505066,
-2.04163,0.50354,
-2.01721,0.508118,
-1.98975,0.509644,
-1.96838,0.508118,
-1.93939,0.505066,
-1.91498,0.506592,
-1.89362,0.508118,
-1.87836,0.511169,
-1.86157,0.508118,
-1.84326,0.50354,
-1.828,0.509644,
-1.81274,0.506592,
-1.80206,0.509644,
-1.79596,0.505066,
-1.79291,0.50354,
-1.79138,0.50354,
-1.79291,0.508118,
-1.80054,0.508118,
-1.80969,0.508118,
-1.81274,0.505066,
-1.82648,0.508118,
-1.84174,0.506592,
-1.85547,0.508118,
-1.87073,0.511169,
-1.89362,0.502014,
-1.91193,0.506592,
-1.93481,0.505066,
-1.95465,0.509644,
-1.97601,0.509644,
-1.9989,0.498962,
-2.02484,0.505066,
-2.05231,0.505066,
-2.0813,0.509644,
-2.10724,0.508118,
-2.13928,0.505066,
-2.16827,0.508118,
-2.19269,0.506592,
-2.22473,0.506592,
-2.25525,0.508118,
-2.28119,0.505066,
-2.31171,0.506592,
-2.34528,0.502014,
-2.36969,0.508118,
-2.40173,0.506592,
-2.43225,0.505066,
-2.46124,0.50354,
-2.48871,0.505066,
-2.51617,0.508118,
-2.54364,0.508118,
-2.565,0.502014,
-2.59247,0.506592,
-2.61688,0.505066,
-2.6413,0.508118,
-2.66418,0.506592,
-2.69012,0.50354,
-2.71454,0.505066,
-2.73743,0.505066,
-2.76337,0.508118,
-2.7832,0.50354,
-2.80457,0.500488,
-2.8244,0.50354,
-2.84424,0.505066,
-2.86255,0.508118,
-2.88086,0.50354,
-2.90375,0.500488,
-2.92053,0.506592,
-2.94189,0.505066,
-2.96021,0.509644,
-2.97852,0.500488,
-2.99683,0.502014,
-3.01361,0.500488,
-3.02887,0.505066,
-3.04565,0.511169,
-3.06549,0.502014,
-3.0838,0.500488,
-3.09753,0.50354,
-3.10822,0.506592,
-3.11584,0.508118,
-3.12347,0.50354,
-3.12347,0.500488,
-3.11432,0.500488,
-3.09753,0.505066,
-3.06396,0.506592,
-3.01971,0.505066,
-2.9541,0.50354,
-2.86713,0.506592,
-2.76489,0.50354,
-2.64893,0.506592,
-2.51923,0.50354,
-2.37579,0.498962,
-2.22778,0.500488,
-2.08588,0.502014,
-1.94702,0.50354,
-1.81122,0.502014,
-1.68762,0.50354,
-1.56555,0.50354,
-1.45264,0.50354,
-1.3443,0.506592,
-1.24817,0.502014,
-1.15509,0.498962,
-1.07117,0.505066,
-0.990295,0.502014,
-0.917053,0.50354,
-0.848389,0.502014,
-0.793457,0.500488,
-0.741577,0.505066,
-0.695801,0.505066,
-0.653076,0.506592,
-0.621033,0.50354,
-0.598145,0.500488,
-0.57373,0.502014,
-0.564575,0.50354,
-0.552368,0.506592,
-0.549316,0.502014,
-0.552368,0.500488,
-0.552368,0.506592,
-0.561523,0.502014,
-0.576782,0.506592,
-0.598145,0.500488,
-0.616455,0.495911,
-0.639343,0.50354,
-0.675964,0.50354,
-0.708008,0.505066,
-0.738525,0.50354,
-0.769043,0.498962,
-0.804138,0.502014,
-0.842285,0.505066,
-0.87738,0.506592,
-0.918579,0.500488,
-0.959778,0.502014,
-1.01013,0.502014,
-1.0498,0.500488,
-1.09558,0.505066,
-1.14136,0.500488,
-1.18408,0.498962,
-1.23138,0.502014,
-1.27411,0.500488,
-1.31836,0.506592,
-1.36261,0.498962,
-1.40381,0.500488,
-1.44196,0.502014,
-1.47705,0.500488,
-1.51672,0.506592,
-1.54419,0.498962,
-1.57013,0.498962,
-1.59302,0.502014,
-1.60828,0.505066,
-1.62506,0.508118,
-1.63422,0.502014,
-1.64337,0.500488,
-1.64642,0.500488,
-1.64795,0.502014,
-1.64642,0.505066,
-1.63879,0.498962,
-1.62964,0.500488,
-1.61896,0.500488,
-1.5976,0.505066,
-1.57471,0.505066,
-1.55487,0.498962,
-1.53351,0.500488,
-1.50452,0.50354,
-1.48773,0.506592,
-1.46637,0.50354,
-1.45111,0.500488,
-1.43127,0.495911,
-1.41449,0.500488,
-1.40076,0.50354,
-1.39008,0.505066,
-1.3855,0.50354,
-1.3855,0.498962,
-1.38092,0.500488,
-1.37787,0.50354,
-1.38397,0.508118,
-1.39008,0.502014,
-1.39923,0.494385,
-1.40686,0.500488,
-1.42059,0.50354,
-1.42975,0.505066,
-1.4389,0.502014,
-1.45264,0.500488,
-1.47247,0.502014,
-1.48926,0.500488,
-1.50909,0.50354,
-1.52893,0.50354,
-1.55182,0.494385,
-1.5686,0.50354,
-1.58997,0.506592,
-1.61285,0.50354,
-1.63422,0.495911,
-1.6571,0.492859,
-1.68152,0.498962,
-1.70898,0.505066,
-1.73035,0.506592,
-1.75476,0.500488,
-1.78223,0.498962,
-1.80664,0.50354,
-1.83563,0.505066,
-1.86768,0.502014,
-1.89514,0.502014,
-1.92261,0.498962,
-1.94702,0.498962,
-1.97754,0.508118,
-2.00653,0.50354,
-2.03552,0.502014,
-2.06451,0.498962,
-2.09045,0.50354,
-2.11945,0.50354,
-2.14233,0.505066,
-2.16522,0.500488,
-2.18964,0.500488,
-2.21252,0.500488,
-2.23846,0.506592,
-2.26135,0.505066,
-2.29034,0.500488,
-2.31476,0.495911,
-2.33917,0.502014,
-2.35901,0.505066,
-2.38342,0.50354,
-2.40326,0.502014,
-2.42462,0.495911,
-2.44446,0.500488,
-2.46582,0.505066,
-2.48718,0.50354,
-2.50549,0.502014,
-2.52838,0.495911,
-2.54822,0.50354,
-2.56348,0.506592,
-2.58179,0.50354,
-2.6001,0.50354,
-2.61993,0.495911,
-2.63824,0.50354,
-2.65503,0.505066,
-2.66876,0.50354,
-2.67792,0.500488,
-2.69012,0.498962,
-2.69165,0.500488,
-2.68707,0.506592,
-2.67181,0.505066,
-2.63977,0.50354,
-2.59552,0.500488,
-2.53601,0.500488,
-2.45972,0.500488,
-2.36359,0.505066,
-2.26135,0.502014,
-2.15302,0.498962,
-2.03552,0.500488,
-1.9165,0.50354,
-1.79749,0.505066,
-1.67694,0.50354,
-1.5625,0.498962,
-1.44806,0.500488,
-1.33972,0.505066,
-1.24054,0.505066,
-1.14441,0.500488,
-1.05438,0.495911,
-0.970459,0.498962,
-0.895691,0.506592,
-0.820923,0.505066,
-0.75531,0.502014,
-0.701904,0.500488,
-0.648499,0.498962,
-0.59967,0.506592,
-0.559998,0.505066,
-0.526428,0.498962,
-0.492859,0.500488,
-0.471497,0.502014,
-0.457764,0.506592,
-0.440979,0.50354,
-0.437927,0.500488,
-0.431824,0.500488,
-0.431824,0.50354,
-0.437927,0.506592,
-0.444031,0.505066,
-0.456238,0.50354,
-0.471497,0.502014,
-0.491333,0.50354,
-0.509644,0.505066,
-0.537109,0.505066,
-0.567627,0.505066,
-0.595093,0.498962,
-0.624084,0.500488,
-0.660706,0.508118,
-0.691223,0.508118,
-0.720215,0.498962,
-0.753784,0.502014,
-0.790405,0.502014,
-0.830078,0.508118,
-0.871277,0.506592,
-0.906372,0.500488,
-0.947571,0.498962,
-0.991821,0.502014,
-1.0376,0.508118,
-1.08032,0.508118,
-1.12457,0.505066,
-1.16425,0.502014,
-1.20087,0.500488,
-1.24207,0.508118,
-1.26953,0.50354,
-1.30005,0.502014,
-1.33057,0.500488,
-1.35651,0.502014,
-1.37787,0.505066,
-1.40076,0.506592,
-1.41144,0.502014,
-1.41449,0.500488,
-1.42059,0.50354,
-1.41907,0.506592,
-1.41449,0.506592,
-1.40686,0.502014,
-1.39465,0.500488,
-1.38092,0.500488,
-1.36414,0.508118,
-1.3443,0.505066,
-1.32446,0.502014,
-1.30615,0.495911,
-1.28937,0.500488,
-1.26953,0.50354,
-1.24969,0.50354,
-1.23138,0.500488,
-1.21765,0.502014,
-1.20697,0.500488,
-1.19629,0.509644,
-1.19019,0.505066,
-1.18408,0.500488,
-1.1795,0.502014,
-1.17645,0.502014,
-1.17188,0.508118,
-1.17188,0.508118,
-1.17645,0.500488,
-1.18713,0.500488,
-1.18713,0.502014,
-1.19781,0.506592,
-1.2085,0.508118,
-1.21918,0.500488,
-1.23291,0.500488,
-1.25275,0.505066,
-1.27106,0.506592,
-1.28937,0.509644,
-1.31226,0.502014,
-1.33057,0.500488,
-1.35651,0.498962,
-1.37939,0.508118,
-1.40228,0.508118,
-1.42365,0.502014,
-1.44653,0.500488,
-1.47095,0.502014,
-1.49536,0.506592,
-1.5213,0.508118,
-1.54572,0.50354,
-1.57166,0.502014,
-1.5976,0.505066,
-1.62201,0.509644,
-1.6449,0.509644,
-1.67084,0.50354,
-1.69525,0.502014,
-1.72119,0.50354,
-1.74255,0.511169,
-1.76849,0.506592,
-1.79291,0.492859,
-1.8158,0.500488,
-1.84174,0.502014,
-1.86615,0.505066,
-1.88904,0.509644,
-1.91193,0.500488,
-1.93024,0.500488,
-1.9516,0.502014,
-1.97601,0.506592,
-1.99127,0.506592,
-2.01416,0.50354,
-2.03247,0.498962,
-2.05688,0.505066,
-2.07825,0.509644,
-2.10266,0.506592,
-2.12097,0.502014,
-2.13928,0.500488,
-2.15759,0.50354,
-2.18048,0.509644,
-2.19727,0.505066,
-2.2171,0.502014,
-2.23846,0.498962,
-2.25525,0.505066,
-2.27509,0.509644,
-2.28882,0.505066,
-2.31323,0.50354,
-2.33154,0.500488,
-2.34833,0.502014,
-2.36664,0.512695,
-2.37732,0.509644,
-2.3819,0.50354,
-2.38342,0.500488,
-2.37122,0.505066,
-2.34985,0.511169,
-2.31476,0.512695,
-2.26593,0.502014,
-2.20184,0.502014,
-2.1286,0.506592,
-2.03857,0.508118,
-1.94244,0.509644,
-1.83411,0.502014,
-1.72577,0.498962,
-1.61133,0.505066,
-1.49841,0.508118,
-1.39618,0.509644,
-1.29089,0.502014,
-1.19324,0.500488,
-1.10474,0.50354,
-1.01624,0.509644,
-0.933838,0.508118,
-0.852966,0.500488,
-0.778198,0.502014,
-0.712585,0.505066,
-0.648499,0.508118,
-0.590515,0.508118,
-0.541687,0.498962,
-0.497437,0.502014,
-0.456238,0.506592,
-0.427246,0.509644,
-0.393677,0.508118,
-0.37384,0.505066,
-0.361633,0.50354,
-0.349426,0.50354,
-0.341797,0.509644,
-0.338745,0.512695,
-0.343323,0.50354,
-0.352478,0.50354,
-0.361633,0.506592,
-0.372314,0.511169,
-0.387573,0.511169,
-0.402832,0.502014,
-0.422668,0.502014,
-0.444031,0.502014,
-0.469971,0.509644,
-0.498962,0.508118,
-0.527954,0.502014,
-0.559998,0.505066,
-0.593567,0.506592,
-0.628662,0.509644,
-0.668335,0.506592,
-0.704956,0.506592,
-0.746155,0.506592,
-0.784302,0.505066,
-0.820923,0.511169,
-0.869751,0.509644,
-0.906372,0.505066,
-0.952148,0.50354,
-1.00098,0.509644,
-1.04065,0.506592,
-1.08337,0.511169,
-1.12152,0.505066,
-1.15967,0.50354,
-1.18866,0.508118,
-1.21613,0.506592,
-1.24512,0.508118,
-1.26648,0.505066,
-1.28479,0.500488,
-1.29852,0.508118,
-1.3092,0.509644,
-1.31531,0.509644,
-1.31683,0.505066,
-1.31683,0.505066,
-1.31378,0.506592,
-1.3031,0.506592,
-1.28937,0.509644,
-1.27716,0.505066,
-1.2619,0.502014,
-1.24512,0.508118,
-1.22681,0.508118,
-1.21002,0.506592,
-1.19171,0.506592,
-1.17798,0.50354,
-1.16577,0.508118,
-1.15509,0.514221,
-1.14441,0.509644,
-1.13678,0.506592,
-1.12915,0.502014,
-1.12152,0.505066,
-1.11694,0.512695,
-1.11237,0.509644,
-1.11084,0.50354,
-1.11389,0.50354,
-1.11694,0.506592,
-1.12,0.509644,
-1.12305,0.509644,
-1.1322,0.505066,
-1.14746,0.502014,
-1.15814,0.508118,
-1.17188,0.511169,
-1.18256,0.506592,
-1.19629,0.505066,
-1.21307,0.50354,
-1.23138,0.511169,
-1.24969,0.506592,
-1.26648,0.508118,
-1.28479,0.50354,
-1.3031,0.50354,
-1.32904,0.511169,
-1.3504,0.508118,
-1.36871,0.508118,
-1.39465,0.506592,
-1.41602,0.498962,
-1.43585,0.509644,
-1.45874,0.508118,
-1.4801,0.508118,
-1.50146,0.506592,
-1.53046,0.502014,
-1.55334,0.508118,
-1.58081,0.509644,
-1.60675,0.505066,
-1.63269,0.50354,
-1.66016,0.502014,
-1.68304,0.511169,
-1.71051,0.509644,
-1.7395,0.506592,
-1.76392,0.505066,
-1.79291,0.500488,
-1.81427,0.508118,
-1.83563,0.509644,
-1.85852,0.508118,
-1.87378,0.505066,
-1.89819,0.500488,
-1.9165,0.506592,
-1.93787,0.511169,
-1.95618,0.508118,
-1.98212,0.505066,
-2.00958,0.502014,
-2.03247,0.508118,
-2.05536,0.509644,
-2.0752,0.509644,
-2.09351,0.506592,
-2.11945,0.502014,
-2.13928,0.506592,
-2.15607,0.512695,
-2.17896,0.511169,
-2.20184,0.506592,
-2.21863,0.50354,
-2.23846,0.506592,
-2.25067,0.508118,
-2.26135,0.509644,
-2.27814,0.505066,
-2.28729,0.495911,
-2.29187,0.508118,
-2.28882,0.512695,
-2.27814,0.506592,
-2.2583,0.50354,
-2.22626,0.498962,
-2.18201,0.508118,
-2.12708,0.509644,
-2.05536,0.509644,
-1.96838,0.506592,
-1.87225,0.500488,
-1.77765,0.505066,
-1.67694,0.509644,
-1.56708,0.506592,
-1.46484,0.506592,
-1.36261,0.494385,
-1.25885,0.505066,
-1.16272,0.509644,
-1.07574,0.506592,
-0.985718,0.505066,
-0.901794,0.500488,
-0.828552,0.502014,
-0.753784,0.511169,
-0.686646,0.511169,
-0.62561,0.506592,
-0.570679,0.498962,
-0.521851,0.508118,
-0.474548,0.509644,
-0.436401,0.509644,
-0.404358,0.508118,
-0.38147,0.494385,
-0.360107,0.50354,
-0.341797,0.509644,
-0.335693,0.506592,
-0.326538,0.506592,
-0.326538,0.495911,
-0.332642,0.505066,
-0.340271,0.505066,
-0.354004,0.509644,
-0.367737,0.505066,
-0.386047,0.492859,
-0.408936,0.506592,
-0.436401,0.506592,
-0.465393,0.508118,
-0.498962,0.505066,
-0.523376,0.502014,
-0.558472,0.506592,
-0.592041,0.506592,
-0.628662,0.506592,
-0.666809,0.508118,
-0.708008,0.498962,
-0.747681,0.505066,
-0.788879,0.509644,
-0.831604,0.509644,
-0.872803,0.50354,
-0.917053,0.498962,
-0.959778,0.50354,
-1.00098,0.508118,
-1.04523,0.508118,
-1.08337,0.508118,
-1.12,0.500488,
-1.15509,0.508118,
-1.19019,0.508118,
-1.22681,0.508118,
-1.25275,0.506592,
-1.27563,0.495911,
-1.29395,0.50354,
-1.31378,0.508118,
-1.32294,0.509644,
-1.33209,0.50354,
-1.33362,0.495911,
-1.33057,0.505066,
-1.32294,0.509644,
-1.31989,0.50354,
-1.31073,0.506592,
-1.29242,0.495911,
-1.27106,0.505066,
-1.26038,0.506592,
-1.24359,0.508118,
-1.22375,0.502014,
-1.2085,0.500488,
-1.19019,0.505066,
-1.17493,0.50354,
-1.15662,0.506592,
-1.14441,0.505066,
-1.1322,0.498962,
-1.12152,0.505066,
-1.11542,0.509644,
-1.10931,0.508118,
-1.10626,0.502014,
-1.10626,0.495911,
-1.10779,0.50354,
-1.10931,0.506592,
-1.11694,0.505066,
-1.12457,0.506592,
-1.13373,0.498962,
-1.14288,0.50354,
-1.14899,0.505066,
-1.15967,0.506592,
-1.1673,0.505066,
-1.18256,0.498962,
-1.19476,0.505066,
-1.2085,0.508118,
-1.22375,0.505066,
-1.24512,0.50354,
-1.26495,0.494385,
-1.28479,0.505066,
-1.30615,0.508118,
-1.32599,0.505066,
-1.3504,0.505066,
-1.36566,0.498962,
-1.3916,0.50354,
-1.41907,0.506592,
-1.44348,0.508118,
-1.4679,0.506592,
-1.49078,0.495911,
-1.50757,0.50354,
-1.53351,0.506592,
-1.55334,0.505066,
-1.57623,0.505066,
-1.6037,0.498962,
-1.62354,0.502014,
-1.64642,0.506592,
-1.66626,0.50354,
-1.68762,0.502014,
-1.70746,0.498962,
-1.73187,0.502014,
-1.75171,0.502014,
-1.77765,0.50354,
-1.79596,0.502014,
-1.81427,0.498962,
-1.83411,0.500488,
-1.85547,0.50354,
-1.87531,0.505066,
-1.90125,0.50354,
-1.91803,0.494385,
-1.93634,0.502014,
-1.95313,0.502014,
-1.96991,0.50354,
-1.98822,0.50354,
-2.005,0.495911,
-2.02179,0.505066,
-2.0401,0.500488,
-2.05841,0.502014,
-2.07977,0.502014,
-2.09351,0.495911,
-2.11487,0.505066,
-2.1286,0.500488,
-2.14386,0.502014,
-2.15759,0.50354,
-2.17285,0.492859,
-2.18506,0.502014,
-2.19879,0.50354,
-2.211,0.50354,
-2.22168,0.500488,
-2.22473,0.495911,
-2.22626,0.502014,
-2.21863,0.502014,
-2.20184,0.502014,
-2.1759,0.50354,
-2.13776,0.494385,
-2.0813,0.500488,
-2.01416,0.50354,
-1.93634,0.502014,
-1.84937,0.500488,
-1.75781,0.492859,
-1.65863,0.50354,
-1.5625,0.50354,
-1.45874,0.502014,
-1.36261,0.500488,
-1.27106,0.489807,
-1.18103,0.50354,
-1.091,0.500488,
-1.00708,0.502014,
-0.923157,0.495911,
-0.845337,0.492859,
-0.775146,0.50354,
-0.706482,0.498962,
-0.642395,0.500488,
-0.585938,0.495911,
-0.535583,0.491333,
-0.486755,0.500488,
-0.45166,0.498962,
-0.416565,0.495911,
-0.392151,0.495911,
-0.366211,0.492859,
-0.352478,0.498962,
-0.340271,0.50354,
-0.32959,0.500488,
-0.328064,0.495911,
-0.32959,0.492859,
-0.337219,0.500488,
-0.346375,0.502014,
-0.358582,0.50354,
-0.370789,0.494385,
-0.390625,0.492859,
-0.416565,0.500488,
-0.434875,0.50354,
-0.463867,0.502014,
-0.491333,0.494385,
-0.524902,0.489807,
-0.559998,0.495911,
-0.592041,0.50354,
-0.630188,0.500488,
-0.666809,0.494385,
-0.709534,0.494385,
-0.752258,0.500488,
-0.799561,0.502014,
-0.840759,0.498962,
-0.886536,0.492859,
-0.932312,0.492859,
-0.975037,0.498962,
-1.01624,0.502014,
-1.05896,0.500488,
-1.10168,0.492859,
-1.13678,0.489807,
-1.17188,0.500488,
-1.20087,0.500488,
-1.22528,0.502014,
-1.24664,0.491333,
-1.2619,0.492859,
-1.27411,0.500488,
-1.28021,0.50354,
-1.28174,0.495911,
-1.28021,0.492859,
-1.27716,0.489807,
-1.26648,0.498962,
-1.2558,0.500488,
-1.24207,0.494385,
-1.22681,0.491333,
-1.21155,0.494385,
-1.18866,0.500488,
-1.17188,0.502014,
-1.15356,0.495911,
-1.1322,0.492859,
-1.11389,0.494385,
-1.09253,0.494385,
-1.07269,0.500488,
-1.05591,0.495911,
-1.04828,0.489807,
-1.02997,0.492859,
-1.01929,0.498962,
-1.01013,0.495911,
-1.00403,0.492859,
-1.0025,0.488281,
-0.999451,0.489807,
-1.00098,0.495911,
-1.00098,0.502014,
-1.00861,0.495911,
-1.01624,0.488281,
-1.02234,0.492859,
-1.03607,0.495911,
-1.0498,0.498962,
-1.06506,0.500488,
-1.0788,0.486755,
-1.09558,0.492859,
-1.11542,0.498962,
-1.13373,0.502014,
-1.15051,0.500488,
-1.17035,0.491333,
-1.18866,0.494385,
-1.20697,0.492859,
-1.22681,0.498962,
-1.25122,0.494385,
-1.26495,0.489807,
-1.28479,0.489807,
-1.3031,0.492859,
-1.32294,0.495911,
-1.3443,0.494385,
-1.36871,0.488281,
-1.3916,0.491333,
-1.41449,0.494385,
-1.43738,0.500488,
-1.46332,0.495911,
-1.49231,0.488281,
-1.5152,0.491333,
-1.53656,0.494385,
-1.56403,0.498962,
-1.58997,0.495911,
-1.61438,0.488281,
-1.63727,0.489807,
-1.66321,0.492859,
-1.68152,0.502014,
-1.69983,0.495911,
-1.71661,0.485229,
-1.73492,0.488281,
-1.75171,0.492859,
-1.77155,0.498962,
-1.78223,0.492859,
-1.80054,0.486755,
-1.81885,0.489807,
-1.83258,0.489807,
-1.85089,0.50354,
-1.86615,0.494385,
-1.87988,0.488281,
-1.89667,0.492859,
-1.91193,0.491333,
-1.92413,0.494385,
-1.93939,0.491333,
-1.9577,0.488281,
-1.97754,0.489807,
-1.98822,0.494385,
-2.00806,0.492859,
-2.01721,0.492859,
-2.03247,0.485229,
-2.04315,0.489807,
-2.0462,0.491333,
-2.04468,0.489807,
-2.03705,0.489807,
-2.01721,0.488281,
-1.9928,0.488281,
-1.9516,0.492859,
-1.90277,0.494385,
-1.83716,0.489807,
-1.76086,0.485229,
-1.67694,0.486755,
-1.58691,0.492859,
-1.49231,0.494385,
-1.39313,0.491333,
-1.29547,0.485229,
-1.19781,0.486755,
-1.09711,0.491333,
-1.00708,0.494385,
-0.915527,0.494385,
-0.830078,0.485229,
-0.744629,0.489807,
-0.660706,0.492859,
-0.587463,0.494385,
-0.512695,0.491333,
-0.442505,0.488281,
-0.382996,0.488281,
-0.323486,0.489807,
-0.273132,0.495911,
-0.227356,0.492859,
-0.189209,0.488281,
-0.154114,0.486755,
-0.128174,0.489807,
-0.106812,0.494385,
-0.0946045,0.491333,
-0.0823975,0.488281,
-0.0762939,0.488281,
-0.0732422,0.486755,
-0.0793457,0.492859,
-0.0839233,0.488281,
-0.0915527,0.486755,
-0.105286,0.486755,
-0.117493,0.489807,
-0.132751,0.494385,
-0.14801,0.492859,
-0.170898,0.486755,
-0.193787,0.485229,
-0.213623,0.489807,
-0.244141,0.491333,
-0.270081,0.491333,
-0.299072,0.486755,
-0.32959,0.485229,
-0.363159,0.488281,
-0.392151,0.492859,
-0.422668,0.489807,
-0.456238,0.486755,
-0.491333,0.486755,
-0.523376,0.486755,
-0.559998,0.492859,
-0.592041,0.489807,
-0.621033,0.486755,
-0.65918,0.486755,
-0.694275,0.488281,
-0.721741,0.492859,
-0.752258,0.491333,
-0.772095,0.488281,
-0.790405,0.486755,
-0.810242,0.488281,
-0.823975,0.492859,
-0.837708,0.489807,
-0.843811,0.486755,
-0.846863,0.485229,
-0.85144,0.488281,
-0.848389,0.492859,
-0.843811,0.491333,
-0.843811,0.486755,
-0.83313,0.486755,
-0.820923,0.488281,
-0.808716,0.491333,
-0.788879,0.488281,
-0.776672,0.486755,
-0.759888,0.488281,
-0.747681,0.488281,
-0.732422,0.494385,
-0.717163,0.489807,
-0.706482,0.489807,
-0.697327,0.485229,
-0.683594,0.488281,
-0.674438,0.491333,
-0.666809,0.491333,
-0.662231,0.486755,
-0.653076,0.488281,
-0.653076,0.483704,
-0.650024,0.492859,
-0.653076,0.491333,
-0.656128,0.486755,
-0.662231,0.485229,
-0.663757,0.486755,
-0.672913,0.492859,
-0.686646,0.491333,
-0.697327,0.489807,
-0.712585,0.486755,
-0.724792,0.483704,
-0.740051,0.491333,
-0.758362,0.488281,
-0.773621,0.486755,
-0.788879,0.483704,
-0.805664,0.482178,
-0.827026,0.491333,
-0.846863,0.491333,
-0.866699,0.486755,
-0.88501,0.488281,
-0.90332,0.486755,
-0.923157,0.489807,
-0.944519,0.491333,
-0.965881,0.488281,
-0.98877,0.485229,
-1.01013,0.488281,
-1.03455,0.486755,
-1.05896,0.488281,
-1.08643,0.485229,
-1.11694,0.485229,
-1.14288,0.482178,
-1.1673,0.489807,
-1.19171,0.491333,
-1.21765,0.486755,
-1.24512,0.486755,
-1.26648,0.485229,
-1.29089,0.489807,
-1.31378,0.488281,
-1.33972,0.486755,
-1.36108,0.483704,
-1.3855,0.485229,
-1.41144,0.492859,
-1.43433,0.485229,
-1.45874,0.486755,
-1.4801,0.482178,
-1.49536,0.483704,
-1.51672,0.489807,
-1.53198,0.489807,
-1.55334,0.486755,
-1.57013,0.483704,
-1.58844,0.482178,
-1.6098,0.491333,
-1.62811,0.488281,
-1.64337,0.488281,
-1.66473,0.485229,
-1.67847,0.483704,
-1.69678,0.488281,
-1.72119,0.488281,
-1.73492,0.486755,
-1.75476,0.482178,
-1.76849,0.483704,
-1.78223,0.483704,
-1.79749,0.486755,
-1.80817,0.489807,
-1.8158,0.486755,
-1.82037,0.482178,
-1.81427,0.486755,
-1.80054,0.488281,
-1.77307,0.488281,
-1.73187,0.480652,
-1.67847,0.482178,
-1.61438,0.483704,
-1.53809,0.491333,
-1.45416,0.486755,
-1.36414,0.482178,
-1.26953,0.480652,
-1.1795,0.485229,
-1.07727,0.488281,
-0.979614,0.486755,
-0.881958,0.483704,
-0.787354,0.483704,
-0.692749,0.486755,
-0.602722,0.489807,
-0.511169,0.486755,
-0.424194,0.485229,
-0.343323,0.482178,
-0.265503,0.485229,
-0.192261,0.488281,
-0.132751,0.488281,
-0.0671387,0.482178,
-0.0137329,0.483704,
0.0366211,0.489807,
0.0823975,0.489807,
0.125122,0.488281,
0.158691,0.483704,
0.187683,0.485229,
0.212097,0.486755,
0.228882,0.488281,
0.242615,0.485229,
0.247192,0.485229,
0.247192,0.482178,
0.244141,0.489807,
0.236511,0.491333,
0.224304,0.485229,
0.215149,0.486755,
0.198364,0.482178,
0.183105,0.491333,
0.163269,0.492859,
0.143433,0.488281,
0.120544,0.488281,
0.10376,0.482178,
0.0717163,0.491333,
0.0488281,0.489807,
0.0228882,0.488281,
-0.00762939,0.488281,
-0.0366211,0.480652,
-0.0686646,0.485229,
-0.0976563,0.486755,
-0.1297,0.486755,
-0.161743,0.485229,
-0.193787,0.483704,
-0.230408,0.485229,
-0.260925,0.489807,
-0.296021,0.486755,
-0.331116,0.485229,
-0.358582,0.482178,
-0.387573,0.486755,
-0.408936,0.491333,
-0.42572,0.488281,
-0.442505,0.486755,
-0.457764,0.480652,
-0.468445,0.485229,
-0.479126,0.486755,
-0.488281,0.483704,
-0.492859,0.485229,
-0.497437,0.482178,
-0.498962,0.483704,
-0.502014,0.488281,
-0.489807,0.486755,
-0.480652,0.486755,
-0.480652,0.480652,
-0.473022,0.482178,
-0.462341,0.486755,
-0.454712,0.489807,
-0.450134,0.483704,
-0.436401,0.480652,
-0.427246,0.485229,
-0.421143,0.486755,
-0.411987,0.488281,
-0.40741,0.485229,
-0.398254,0.482178,
-0.389099,0.485229,
-0.386047,0.485229,
-0.379944,0.486755,
-0.37384,0.482178,
-0.369263,0.482178,
-0.366211,0.485229,
-0.363159,0.486755,
-0.361633,0.486755,
-0.361633,0.483704,
-0.358582,0.479126,
-0.358582,0.485229,
-0.360107,0.482178,
-0.361633,0.483704,
-0.363159,0.485229,
-0.370789,0.4776,
-0.379944,0.485229,
-0.392151,0.483704,
-0.404358,0.483704,
-0.419617,0.486755,
-0.436401,0.480652,
-0.456238,0.486755,
-0.479126,0.486755,
-0.502014,0.483704,
-0.524902,0.482178,
-0.547791,0.4776,
-0.572205,0.485229,
-0.601196,0.488281,
-0.634766,0.488281,
-0.662231,0.480652,
-0.697327,0.480652,
-0.733948,0.485229,
-0.767517,0.483704,
-0.799561,0.485229,
-0.831604,0.482178,
-0.869751,0.479126,
-0.90332,0.482178,
-0.942993,0.485229,
-0.98114,0.483704,
-1.01776,0.482178,
-1.05286,0.476074,
-1.09711,0.482178,
-1.13831,0.486755,
-1.1795,0.482178,
-1.22375,0.480652,
-1.2619,0.480652,
-1.30157,0.486755,
-1.34277,0.483704,
-1.37329,0.482178,
-1.41602,0.480652,
-1.45111,0.476074,
-1.48621,0.483704,
-1.51978,0.486755,
-1.55182,0.483704,
-1.57928,0.480652,
-1.6098,0.479126,
-1.63727,0.482178,
-1.66626,0.483704,
-1.6922,0.480652,
-1.71814,0.479126,
-1.74103,0.476074,
-1.77155,0.482178,
-1.79596,0.482178,
-1.81427,0.483704,
-1.84021,0.480652,
-1.85852,0.476074,
-1.87531,0.482178,
-1.88599,0.482178,
-1.90277,0.483704,
-1.90887,0.480652,
-1.91803,0.479126,
-1.91956,0.482178,
-1.91803,0.479126,
-1.90277,0.482178,
-1.89667,0.482178,
-1.87531,0.474548,
-1.85089,0.480652,
-1.81427,0.482178,
-1.77307,0.482178,
-1.71509,0.479126,
-1.64642,0.476074,
-1.56708,0.480652,
-1.48621,0.483704,
-1.39923,0.480652,
-1.3092,0.480652,
-1.21918,0.473022,
-1.12,0.483704,
-1.02692,0.485229,
-0.935364,0.479126,
-0.840759,0.479126,
-0.747681,0.474548,
-0.656128,0.480652,
-0.564575,0.479126,
-0.479126,0.482178,
-0.398254,0.479126,
-0.317383,0.476074,
-0.242615,0.479126,
-0.178528,0.482178,
-0.115967,0.479126,
-0.0579834,0.479126,
0.00152588,0.476074,
0.050354,0.479126,
0.0930786,0.480652,
0.132751,0.483704,
0.164795,0.4776,
0.192261,0.474548,
0.215149,0.482178,
0.234985,0.482178,
0.254822,0.480652,
0.263977,0.4776,
0.270081,0.473022,
0.27771,0.479126,
0.280762,0.482178,
0.283813,0.483704,
0.280762,0.476074,
0.273132,0.4776,
0.265503,0.4776,
0.259399,0.479126,
0.247192,0.482178,
0.233459,0.4776,
0.219727,0.473022,
0.20752,0.482178,
0.198364,0.482178,
0.186157,0.482178,
0.172424,0.4776,
0.157166,0.473022,
0.140381,0.480652,
0.125122,0.483704,
0.100708,0.480652,
0.0839233,0.476074,
0.062561,0.474548,
0.0411987,0.482178,
0.0244141,0.4776,
0.0106812,0.480652,
-0.00610352,0.476074,
-0.0213623,0.474548,
-0.038147,0.479126,
-0.0473022,0.4776,
-0.0564575,0.4776,
-0.0656128,0.476074,
-0.0747681,0.474548,
-0.0823975,0.482178,
-0.0869751,0.479126,
-0.0900269,0.4776,
-0.0900269,0.4776,
-0.0869751,0.476074,
-0.0869751,0.479126,
-0.0808716,0.480652,
-0.0778198,0.480652,
-0.0717163,0.471497,
-0.062561,0.476074,
-0.0549316,0.476074,
-0.0457764,0.480652,
-0.0411987,0.479126,
-0.0320435,0.474548,
-0.0198364,0.473022,
-0.0106812,0.479126,
-0.00305176,0.479126,
0.00762939,0.479126,
0.012207,0.476074,
0.00762939,0.479126,
0.00610352,0.479126,
0.00305176,0.480652,
-0.00915527,0.483704,
-0.012207,0.4776,
-0.0274658,0.474548,
-0.0396729,0.480652,
-0.0488281,0.479126,
-0.0610352,0.479126,
-0.0747681,0.473022,
-0.0915527,0.474548,
-0.109863,0.4776,
-0.12207,0.482178,
-0.137329,0.482178,
-0.152588,0.473022,
-0.170898,0.474548,
-0.190735,0.4776,
-0.205994,0.482178,
-0.227356,0.482178,
-0.239563,0.473022,
-0.259399,0.476074,
-0.279236,0.479126,
-0.294495,0.4776,
-0.312805,0.480652,
-0.337219,0.474548,
-0.360107,0.473022,
-0.382996,0.479126,
-0.404358,0.479126,
-0.427246,0.480652,
-0.453186,0.474548,
-0.479126,0.4776,
-0.506592,0.4776,
-0.527954,0.479126,
-0.547791,0.480652,
-0.569153,0.474548,
-0.590515,0.476074,
-0.610352,0.476074,
-0.630188,0.480652,
-0.657654,0.480652,
-0.679016,0.476074,
-0.708008,0.471497,
-0.735474,0.4776,
-0.758362,0.482178,
-0.778198,0.479126,
-0.805664,0.471497,
-0.830078,0.474548,
-0.852966,0.476074,
-0.87738,0.482178,
-0.90332,0.479126,
-0.923157,0.473022,
-0.949097,0.473022,
-0.975037,0.479126,
-0.999451,0.4776,
-1.02386,0.479126,
-1.05286,0.471497,
-1.08185,0.474548,
-1.10779,0.4776,
-1.13831,0.4776,
-1.16119,0.480652,
-1.19324,0.476074,
-1.2207,0.473022,
-1.25122,0.4776,
-1.28174,0.4776,
-1.30615,0.482178,
-1.33209,0.4776,
-1.35651,0.474548,
-1.38397,0.476074,
-1.40839,0.479126,
-1.43433,0.480652,
-1.45874,0.473022,
-1.48163,0.476074,
-1.50452,0.480652,
-1.5274,0.479126,
-1.54419,0.4776,
-1.56555,0.473022,
-1.57776,0.473022,
-1.59454,0.474548,
-1.60675,0.4776,
-1.61438,0.476074,
-1.61438,0.471497,
-1.60828,0.469971,
-1.60217,0.476074,
-1.57928,0.476074,
-1.55029,0.4776,
-1.50757,0.471497,
-1.45416,0.471497,
-1.39771,0.479126,
-1.32751,0.476074,
-1.2558,0.4776,
-1.17493,0.471497,
-1.09406,0.471497,
-1.00861,0.476074,
-0.920105,0.4776,
-0.837708,0.483704,
-0.746155,0.469971,
-0.65918,0.469971,
-0.570679,0.476074,
-0.489807,0.480652,
-0.404358,0.4776,
-0.328064,0.469971,
-0.257874,0.471497,
-0.18158,0.479126,
-0.114441,0.473022,
-0.0534058,0.474548,
0.00915527,0.469971,
0.0656128,0.473022,
0.119019,0.476074,
0.166321,0.473022,
0.213623,0.4776,
0.253296,0.468445,
0.292969,0.468445,
0.32196,0.476074,
0.3479,0.474548,
0.363159,0.476074,
0.379944,0.471497,
0.387573,0.466919,
0.396729,0.4776,
0.405884,0.479126,
0.40741,0.4776,
0.401306,0.468445,
0.395203,0.469971,
0.387573,0.479126,
0.372314,0.474548,
0.358582,0.474548,
0.338745,0.469971,
0.312805,0.466919,
0.292969,0.476074,
0.257874,0.4776,
0.22583,0.474548,
0.192261,0.469971,
0.158691,0.468445,
0.128174,0.4776,
0.0930786,0.476074,
0.0564575,0.4776,
0.0183105,0.469971,
-0.0167847,0.466919,
-0.0610352,0.4776,
-0.0961304,0.476074,
-0.135803,0.473022,
-0.17395,0.468445,
-0.209045,0.466919,
-0.236511,0.474548,
-0.270081,0.4776,
-0.296021,0.474548,
-0.320435,0.466919,
-0.340271,0.466919,
-0.360107,0.474548,
-0.38147,0.476074,
-0.395203,0.474548,
-0.404358,0.468445,
-0.415039,0.466919,
-0.424194,0.474548,
-0.42572,0.471497,
-0.42572,0.474548,
-0.42572,0.469971,
-0.424194,0.466919,
-0.419617,0.476074,
-0.415039,0.4776,
-0.411987,0.474548,
-0.408936,0.468445,
-0.404358,0.466919,
-0.401306,0.474548,
-0.398254,0.476074,
-0.395203,0.473022,
-0.393677,0.468445,
-0.393677,0.462341,
-0.395203,0.473022,
-0.393677,0.4776,
-0.393677,0.473022,
-0.39978,0.468445,
-0.40741,0.466919,
-0.422668,0.473022,
-0.431824,0.473022,
-0.440979,0.474548,
-0.457764,0.462341,
-0.469971,0.462341,
-0.489807,0.474548,
-0.508118,0.473022,
-0.531006,0.469971,
-0.549316,0.468445,
-0.569153,0.465393,
-0.595093,0.476074,
-0.617981,0.474548,
-0.640869,0.474548,
-0.663757,0.471497,
-0.692749,0.466919,
-0.714111,0.474548,
-0.743103,0.476074,
-0.767517,0.474548,
-0.796509,0.466919,
-0.823975,0.462341,
-0.854492,0.473022,
-0.878906,0.4776,
-0.91095,0.474548,
-0.938416,0.471497,
-0.968933,0.469971,
-0.994873,0.479126,
-1.01471,0.4776,
-1.04218,0.473022,
-1.07117,0.468445,
-1.091,0.468445,
-1.11542,0.479126,
-1.13983,0.4776,
-1.16577,0.474548,
-1.19324,0.468445,
-1.21918,0.466919,
-1.24664,0.476074,
-1.26801,0.474548,
-1.28937,0.474548,
-1.31226,0.469971,
-1.33514,0.471497,
-1.35803,0.479126,
-1.38245,0.474548,
-1.41144,0.474548,
-1.4328,0.469971,
-1.45721,0.469971,
-1.48163,0.476074,
-1.50909,0.480652,
-1.53503,0.476074,
-1.55792,0.469971,
-1.58539,0.473022,
-1.60828,0.480652,
-1.63422,0.479126,
-1.66016,0.476074,
-1.68304,0.474548,
-1.70746,0.474548,
-1.7334,0.4776,
-1.74866,0.4776,
-1.77155,0.476074,
-1.79596,0.473022,
-1.81732,0.471497,
-1.83411,0.479126,
-1.85547,0.4776,
-1.87836,0.474548,
-1.90125,0.471497,
-1.92108,0.469971,
-1.93939,0.476074,
-1.9577,0.479126,
-1.98364,0.476074,
-2.00806,0.471497,
-2.034,0.471497,
-2.05841,0.474548,
-2.08282,0.476074,
-2.10724,0.473022,
-2.13623,0.469971,
-2.15759,0.469971,
-2.17743,0.474548,
-2.2049,0.474548,
-2.22473,0.473022,
-2.24457,0.471497,
-2.26135,0.471497,
-2.27966,0.474548,
-2.29187,0.480652,
-2.29034,0.468445,
-2.28577,0.462341,
-2.26746,0.469971,
-2.24457,0.476074,
-2.20642,0.474548,
-2.15759,0.473022,
-2.10266,0.468445,
-2.04163,0.468445,
-1.96991,0.473022,
-1.89819,0.473022,
-1.8158,0.469971,
-1.74255,0.468445,
-1.66016,0.468445,
-1.58539,0.473022,
-1.50146,0.474548,
-1.42517,0.466919,
-1.34735,0.462341,
-1.26953,0.468445,
-1.19476,0.471497,
-1.12305,0.474548,
-1.05286,0.469971,
-0.984192,0.460815,
-0.926208,0.468445,
-0.866699,0.474548,
-0.808716,0.474548,
-0.758362,0.468445,
-0.704956,0.462341,
-0.662231,0.466919,
-0.622559,0.469971,
-0.585938,0.476074,
-0.553894,0.466919,
-0.523376,0.465393,
-0.500488,0.468445,
-0.485229,0.471497,
-0.471497,0.473022,
-0.462341,0.468445,
-0.462341,0.469971,
-0.465393,0.466919,
-0.466919,0.469971,
-0.4776,0.476074,
-0.488281,0.469971,
-0.500488,0.466919,
-0.521851,0.465393,
-0.538635,0.471497,
-0.561523,0.473022,
-0.582886,0.466919,
-0.608826,0.466919,
-0.636292,0.466919,
-0.666809,0.473022,
-0.698853,0.474548,
-0.72937,0.469971,
-0.767517,0.465393,
-0.804138,0.468445,
-0.843811,0.469971,
-0.88501,0.473022,
-0.935364,0.466919,
-0.973511,0.466919,
-1.01471,0.466919,
-1.0498,0.469971,
-1.08185,0.474548,
-1.11694,0.466919,
-1.14746,0.465393,
-1.1795,0.465393,
-1.20239,0.469971,
-1.22681,0.476074,
-1.25275,0.466919,
-1.27411,0.468445,
-1.28632,0.468445,
-1.30463,0.468445,
-1.31531,0.474548,
-1.32141,0.465393,
-1.32599,0.466919,
-1.33057,0.468445,
-1.33209,0.471497,
-1.33057,0.474548,
-1.32446,0.466919,
-1.32599,0.465393,
-1.31989,0.460815,
-1.3092,0.468445,
-1.30157,0.471497,
-1.29547,0.468445,
-1.28632,0.468445,
-1.27869,0.465393,
-1.27106,0.468445,
-1.26953,0.474548,
-1.26495,0.469971,
-1.26801,0.469971,
-1.26801,0.462341,
-1.26495,0.469971,
-1.26495,0.474548,
-1.26953,0.465393,
-1.27563,0.469971,
-1.28021,0.462341,
-1.28937,0.469971,
-1.297,0.474548,
-1.3092,0.469971,
-1.32294,0.465393,
-1.33972,0.465393,
-1.35345,0.471497,
-1.37177,0.476074,
-1.38855,0.471497,
-1.40533,0.466919,
-1.42975,0.462341,
-1.45264,0.468445,
-1.47095,0.473022,
-1.48926,0.466919,
-1.51062,0.462341,
-1.53656,0.465393,
-1.56097,0.468445,
-1.58844,0.474548,
-1.61438,0.469971,
-1.64185,0.462341,
-1.66931,0.465393,
-1.69525,0.468445,
-1.72424,0.476074,
-1.75018,0.468445,
-1.77917,0.462341,
-1.80817,0.462341,
-1.83105,0.469971,
-1.85547,0.4776,
-1.88446,0.465393,
-1.90735,0.466919,
-1.93634,0.466919,
-1.95618,0.468445,
-1.97906,0.469971,
-2.00806,0.468445,
-2.02637,0.465393,
-2.05536,0.465393,
-2.07672,0.471497,
-2.10419,0.476074,
-2.12097,0.468445,
-2.13776,0.468445,
-2.16217,0.462341,
-2.18353,0.468445,
-2.20337,0.471497,
-2.2171,0.466919,
-2.23389,0.466919,
-2.25525,0.465393,
-2.27356,0.468445,
-2.28729,0.474548,
-2.30865,0.468445,
-2.32697,0.466919,
-2.34528,0.462341,
-2.36206,0.468445,
-2.38037,0.473022,
-2.39563,0.466919,
-2.41241,0.468445,
-2.42767,0.462341,
-2.44446,0.473022,
-2.45819,0.474548,
-2.47498,0.466919,
-2.49329,0.465393,
-2.50549,0.465393,
-2.52838,0.468445,
-2.54059,0.476074,
-2.55737,0.466919,
-2.57416,0.462341,
-2.58942,0.462341,
-2.60468,0.471497,
-2.62299,0.473022,
-2.64282,0.465393,
-2.66113,0.466919,
-2.67639,0.465393,
-2.69318,0.466919,
-2.71454,0.471497,
-2.7359,0.469971,
-2.75726,0.465393,
-2.77252,0.45929,
-2.78931,0.468445,
-2.80304,0.473022,
-2.8183,0.468445,
-2.83508,0.465393,
-2.84576,0.466919,
-2.85034,0.471497,
-2.85187,0.471497,
-2.84729,0.468445,
-2.83203,0.468445,
-2.80609,0.465393,
-2.76794,0.466919,
-2.72217,0.474548,
-2.66724,0.468445,
-2.60315,0.465393,
-2.52991,0.462341,
-2.45972,0.468445,
-2.38037,0.473022,
-2.29797,0.465393,
-2.21558,0.468445,
-2.1347,0.469971,
-2.04926,0.468445,
-1.96838,0.473022,
-1.88599,0.468445,
-1.80359,0.466919,
-1.72882,0.462341,
-1.65405,0.471497,
-1.57623,0.474548,
-1.50299,0.468445,
-1.43585,0.466919,
-1.37177,0.465393,
-1.31531,0.471497,
-1.25885,0.474548,
-1.21155,0.466919,
-1.16425,0.466919,
-1.12457,0.465393,
-1.08795,0.468445,
-1.05743,0.473022,
-1.02997,0.465393,
-1.00708,0.469971,
-0.993347,0.462341,
-0.978088,0.473022,
-0.970459,0.473022,
-0.964355,0.465393,
-0.961304,0.468445,
-0.967407,0.466919,
-0.970459,0.469971,
-0.979614,0.473022,
-0.991821,0.466919,
-1.00861,0.466919,
-1.02997,0.465393,
-1.05133,0.473022,
-1.07422,0.476074,
-1.09711,0.465393,
-1.12,0.465393,
-1.14899,0.468445,
-1.17493,0.469971,
-1.20239,0.471497,
-1.23138,0.465393,
-1.26343,0.462341,
-1.30005,0.466919,
-1.33362,0.471497,
-1.37329,0.471497,
-1.40686,0.466919,
-1.4389,0.466919,
-1.47552,0.465393,
-1.50452,0.473022,
-1.54114,0.474548,
-1.57013,0.466919,
-1.60065,0.462341,
-1.62811,0.469971,
-1.65405,0.473022,
-1.66779,0.474548,
-1.68762,0.466919,
-1.70746,0.465393,
-1.72424,0.465393,
-1.73492,0.474548,
-1.74103,0.473022,
-1.74408,0.466919,
-1.74561,0.468445,
-1.74103,0.465393,
-1.74103,0.473022,
-1.73492,0.471497,
-1.72729,0.466919,
-1.72119,0.466919,
-1.71051,0.462341,
-1.6983,0.473022,
-1.68762,0.474548,
-1.67999,0.462341,
-1.66779,0.468445,
-1.66473,0.465393,
-1.65253,0.474548,
-1.64642,0.471497,
-1.6449,0.466919,
-1.6449,0.468445,
-1.64185,0.462341,
-1.64185,0.474548,
-1.64642,0.473022,
-1.64948,0.465393,
-1.65863,0.466919,
-1.66473,0.468445,
-1.67236,0.476074,
-1.67999,0.473022,
-1.69373,0.465393,
-1.69983,0.462341,
-1.71204,0.466919,
-1.73035,0.476074,
-1.74103,0.473022,
-1.75781,0.466919,
-1.76849,0.462341,
-1.78986,0.468445,
-1.80817,0.473022,
-1.8219,0.471497,
-1.84631,0.466919,
-1.8692,0.465393,
-1.89514,0.469971,
-1.91803,0.474548,
-1.94092,0.469971,
-1.96686,0.469971,
-1.99585,0.460815,
-2.02179,0.466919,
-2.04468,0.473022,
-2.0752,0.469971,
-2.10419,0.469971,
-2.13013,0.466919,
-2.15759,0.468445,
-2.18201,0.476074,
-2.211,0.471497,
-2.23389,0.468445,
-2.26288,0.466919,
-2.28577,0.465393,
-2.31323,0.473022,
-2.33917,0.473022,
-2.36053,0.469971,
-2.38495,0.462341,
-2.40479,0.468445,
-2.43683,0.473022,
-2.45972,0.469971,
-2.4826,0.468445,
-2.50549,0.468445,
-2.52533,0.466919,
-2.54669,0.476074,
-2.56653,0.471497,
-2.58636,0.466919,
-2.60925,0.462341,
-2.62909,0.465393,
-2.65198,0.474548,
-2.67181,0.471497,
-2.69623,0.466919,
-2.71759,0.468445,
-2.742,0.466919,
-2.76337,0.473022,
-2.78625,0.473022,
-2.80457,0.465393,
-2.82593,0.466919,
-2.84271,0.466919,
-2.8656,0.474548,
-2.87933,0.469971,
-2.9007,0.468445,
-2.92053,0.462341,
-2.93579,0.466919,
-2.95868,0.471497,
-2.97546,0.471497,
-2.99377,0.466919,
-3.00903,0.465393,
-3.01971,0.466919,
-3.03802,0.474548,
-3.05328,0.471497,
-3.07312,0.466919,
-3.08685,0.460815,
-3.10669,0.460815,
-3.12042,0.474548,
-3.13721,0.468445,
-3.15094,0.465393,
-3.16772,0.465393,
-3.18146,0.468445,
-3.19366,0.474548,
-3.20587,0.469971,
-3.21655,0.466919,
-3.21808,0.469971,
-3.21503,0.468445,
-3.19977,0.473022,
-3.17841,0.469971,
-3.14484,0.469971,
-3.09753,0.466919,
-3.0426,0.465393,
-2.97394,0.471497,
-2.9007,0.473022,
-2.81525,0.466919,
-2.7359,0.468445,
-2.65045,0.466919,
-2.56805,0.473022,
-2.47498,0.471497,
-2.388,0.468445,
-2.29492,0.466919,
-2.20337,0.466919,
-2.11182,0.469971,
-2.02179,0.468445,
-1.93634,0.465393,
-1.84937,0.462341,
-1.76392,0.468445,
-1.68304,0.474548,
-1.60522,0.471497,
-1.5274,0.468445,
-1.45874,0.465393,
-1.39008,0.465393,
-1.32751,0.471497,
-1.27106,0.466919,
-1.22375,0.468445,
-1.17645,0.466919,
-1.1322,0.466919,
-1.09558,0.471497,
-1.06354,0.469971,
-1.03455,0.466919,
-1.00861,0.465393,
-0.991821,0.462341,
-0.975037,0.474548,
-0.965881,0.471497,
-0.956726,0.466919,
-0.956726,0.460815,
-0.958252,0.466919,
-0.965881,0.469971,
-0.973511,0.471497,
-0.985718,0.465393,
-1.00403,0.462341,
-1.01929,0.462341,
-1.0376,0.468445,
-1.05896,0.469971,
-1.08643,0.466919,
-1.11389,0.460815,
-1.14594,0.465393,
-1.17493,0.469971,
-1.20239,0.471497,
-1.23596,0.469971,
-1.26801,0.460815,
-1.29852,0.462341,
-1.33514,0.468445,
-1.37329,0.471497,
-1.41144,0.466919,
-1.44348,0.460815,
-1.47705,0.462341,
-1.51062,0.471497,
-1.54266,0.469971,
-1.5686,0.468445,
-1.60065,0.460815,
-1.62354,0.468445,
-1.64337,0.471497,
-1.66626,0.468445,
-1.68762,0.465393,
-1.70441,0.460815,
-1.71661,0.465393,
-1.72424,0.468445,
-1.73492,0.469971,
-1.73492,0.468445,
-1.73492,0.462341,
-1.72882,0.465393,
-1.73035,0.469971,
-1.72577,0.466919,
-1.72119,0.466919,
-1.71204,0.45929,
-1.70746,0.462341,
-1.6983,0.469971,
-1.69067,0.469971,
-1.67999,0.468445,
-1.67236,0.466919,
-1.66626,0.465393,
-1.66016,0.468445,
-1.65405,0.469971,
-1.64948,0.468445,
-1.64948,0.460815,
-1.64795,0.469971,
-1.64795,0.469971,
-1.64948,0.471497,
-1.64948,0.465393,
-1.65558,0.462341,
-1.65863,0.462341,
-1.66016,0.468445,
-1.66626,0.469971,
-1.68152,0.469971,
-1.69373,0.462341,
-1.70746,0.465393,
-1.72729,0.466919,
-1.74255,0.471497,
-1.76697,0.468445,
-1.78375,0.466919,
-1.80054,0.460815,
-1.8219,0.465393,
-1.84021,0.468445,
-1.86157,0.471497,
-1.88446,0.466919,
-1.90887,0.465393,
-1.93634,0.469971,
-1.96228,0.471497,
-1.98669,0.469971,
-2.01111,0.466919,
-2.03705,0.460815,
-2.06146,0.468445,
-2.08893,0.469971,
-2.11945,0.466919,
-2.14081,0.462341,
-2.16827,0.465393,
-2.19116,0.468445,
-2.21863,0.468445,
-2.24304,0.468445,
-2.27051,0.462341,
-2.2934,0.462341,
-2.32239,0.466919,
-2.34833,0.471497,
-2.37579,0.468445,
-2.40326,0.465393,
-2.43225,0.460815,
-2.45667,0.466919,
-2.48108,0.466919,
-2.50702,0.471497,
-2.52838,0.462341,
-2.5528,0.465393,
-2.57721,0.471497,
-2.60162,0.466919,
-2.62604,0.468445,
-2.64435,0.465393,
-2.67334,0.462341,
-2.69623,0.468445,
-2.72064,0.466919,
-2.74658,0.468445,
-2.76489,0.462341,
-2.79083,0.462341,
-2.81372,0.468445,
-2.83356,0.466919,
-2.8595,0.466919,
-2.87628,0.466919,
-2.89917,0.460815,
-2.91595,0.466919,
-2.93579,0.468445,
-2.95258,0.466919,
-2.97241,0.466919,
-2.99072,0.465393,
-3.01361,0.466919,
-3.03955,0.468445,
-3.05634,0.468445,
-3.07465,0.468445,
-3.09753,0.462341,
-3.11737,0.465393,
-3.1311,0.468445,
-3.14484,0.465393,
-3.15857,0.462341,
-3.17535,0.462341,
-3.19061,0.466919,
-3.20435,0.468445,
-3.2196,0.468445,
-3.23486,0.460815,
-3.24554,0.45929,
-3.25317,0.468445,
-3.26385,0.465393,
-3.26996,0.466919,
-3.26996,0.462341,
-3.26233,0.462341,
-3.2486,0.465393,
-3.2196,0.462341,
-3.17688,0.471497,
-3.12195,0.457764,
-3.05939,0.462341,
-2.99072,0.465393,
-2.9129,0.462341,
-2.83508,0.466919,
-2.75421,0.45929,
-2.66418,0.462341,
-2.57263,0.465393,
-2.47803,0.468445,
-2.38495,0.466919,
-2.29187,0.462341,
-2.19727,0.462341,
-2.10419,0.466919,
-2.01263,0.465393,
-1.91803,0.468445,
-1.828,0.45929,
-1.73798,0.460815,
-1.65405,0.465393,
-1.57013,0.468445,
-1.49384,0.468445,
-1.42059,0.460815,
-1.34888,0.460815,
-1.28479,0.466919,
-1.22528,0.466919,
-1.1673,0.465393,
-1.11542,0.469971,
-1.07269,0.460815,
-1.02997,0.465393,
-0.996399,0.465393,
-0.968933,0.466919,
-0.944519,0.460815,
-0.927734,0.460815,
-0.91095,0.462341,
-0.906372,0.462341,
-0.900269,0.465393,
-0.898743,0.469971,
-0.900269,0.457764,
-0.904846,0.462341,
-0.917053,0.465393,
-0.93689,0.466919,
-0.950623,0.468445,
-0.973511,0.457764,
-0.994873,0.462341,
-1.01624,0.465393,
-1.04065,0.465393,
-1.06354,0.465393,
-1.09406,0.456238,
-1.1261,0.465393,
-1.15967,0.462341,
-1.19324,0.466919,
-1.22528,0.468445,
-1.2619,0.456238,
-1.29852,0.465393,
-1.33514,0.462341,
-1.37329,0.465393,
-1.40839,0.462341,
-1.44348,0.456238,
-1.48163,0.462341,
-1.51062,0.45929,
-1.54266,0.465393,
-1.57166,0.45929,
-1.59912,0.465393,
-1.62048,0.462341,
-1.64185,0.457764,
-1.66168,0.465393,
-1.67542,0.45929,
-1.69067,0.457764,
-1.6983,0.462341,
-1.70746,0.45929,
-1.71356,0.462341,
-1.71509,0.45929,
-1.71814,0.460815,
-1.71509,0.45929,
-1.71204,0.460815,
-1.70746,0.465393,
-1.6983,0.457764,
-1.69067,0.45929,
-1.6861,0.465393,
-1.67847,0.462341,
-1.66779,0.462341,
-1.66016,0.45929,
-1.65863,0.45929,
-1.64642,0.460815,
-1.64337,0.460815,
-1.64032,0.462341,
-1.63727,0.457764,
-1.63574,0.456238,
-1.63574,0.460815,
-1.63269,0.45929,
-1.63879,0.465393,
-1.64185,0.462341,
-1.64795,0.457764,
-1.6571,0.462341,
-1.66626,0.45929,
-1.67694,0.465393,
-1.69067,0.460815,
-1.70135,0.457764,
-1.71509,0.460815,
-1.73035,0.45929,
-1.74561,0.465393,
-1.76239,0.456238,
-1.7746,0.456238,
-1.79749,0.460815,
-1.81274,0.462341,
-1.83716,0.466919,
-1.85852,0.457764,
-1.87988,0.45929,
-1.90277,0.45929,
-1.93481,0.457764,
-1.96228,0.462341,
-1.98669,0.462341,
-2.01111,0.456238,
-2.0401,0.457764,
-2.06451,0.457764,
-2.08893,0.462341,
-2.11487,0.460815,
-2.14081,0.456238,
-2.1637,0.457764,
-2.18811,0.45929,
-2.22015,0.460815,
-2.24915,0.456238,
-2.28271,0.457764,
-2.30713,0.45929,
-2.33917,0.45929,
-2.36664,0.462341,
-2.39105,0.45929,
-2.41547,0.456238,
-2.43988,0.462341,
-2.46582,0.45929,
-2.48871,0.462341,
-2.50854,0.45929,
-2.53296,0.457764,
-2.5589,0.45929,
-2.58179,0.457764,
-2.6062,0.462341,
-2.62299,0.456238,
-2.64435,0.456238,
-2.66113,0.45929,
-2.68555,0.457764,
-2.70844,0.460815,
-2.72827,0.45929,
-2.74353,0.45929,
-2.76794,0.457764,
-2.78625,0.462341,
-2.80609,0.465393,
-2.82593,0.457764,
-2.84729,0.454712,
-2.86865,0.460815,
-2.88696,0.45929,
-2.90527,0.460815,
-2.92511,0.457764,
-2.94342,0.456238,
-2.96478,0.460815,
-2.98309,0.460815,
-3.00446,0.462341,
-3.01819,0.457764,
-3.03955,0.456238,
-3.05634,0.457764,
-3.08228,0.462341,
-3.09601,0.45929,
-3.11432,0.45929,
-3.1311,0.454712,
-3.14636,0.460815,
-3.15857,0.45929,
-3.16925,0.462341,
-3.18451,0.457764,
-3.19366,0.456238,
-3.21198,0.456238,
-3.22113,0.457764,
-3.23334,0.462341,
-3.24097,0.460815,
-3.24249,0.457764,
-3.23944,0.457764,
-3.22571,0.45929,
-3.20435,0.462341,
-3.16925,0.457764,
-3.12347,0.456238,
-3.06549,0.457764,
-2.99988,0.466919,
-2.92511,0.45929,
-2.84576,0.460815,
-2.76337,0.454712,
-2.67181,0.457764,
-2.57721,0.45929,
-2.48108,0.460815,
-2.38037,0.45929,
-2.28271,0.457764,
-2.18201,0.45929,
-2.08435,0.457764,
-1.98669,0.462341,
-1.88904,0.457764,
-1.80054,0.456238,
-1.70593,0.45929,
-1.61896,0.457764,
-1.53198,0.462341,
-1.45111,0.45929,
-1.37482,0.45166,
-1.30463,0.457764,
-1.23444,0.460815,
-1.1734,0.462341,
-1.11389,0.457764,
-1.05896,0.456238,
-1.01166,0.457764,
-0.967407,0.460815,
-0.933838,0.460815,
-0.901794,0.456238,
-0.87738,0.456238,
-0.85907,0.456238,
-0.842285,0.460815,
-0.836182,0.462341,
-0.830078,0.456238,
-0.834656,0.453186,
-0.836182,0.456238,
-0.848389,0.45929,
-0.863647,0.45929,
-0.881958,0.457764,
-0.901794,0.45166,
-0.924683,0.456238,
-0.950623,0.45929,
-0.978088,0.457764,
-1.00555,0.456238,
-1.0376,0.454712,
-1.06812,0.456238,
-1.09711,0.462341,
-1.1322,0.460815,
-1.1673,0.456238,
-1.20697,0.456238,
-1.24512,0.456238,
-1.28784,0.460815,
-1.32446,0.45929,
-1.36261,0.45929,
-1.39923,0.457764,
-1.43738,0.457764,
-1.4801,0.457764,
-1.51825,0.45929,
-1.5564,0.454712,
-1.59149,0.45166,
-1.62354,0.456238,
-1.65405,0.45929,
-1.68304,0.45929,
-1.70593,0.456238,
-1.72729,0.456238,
-1.74408,0.456238,
-1.75934,0.45929,
-1.77612,0.460815,
-1.77765,0.454712,
-1.7807,0.453186,
-1.7807,0.457764,
-1.7807,0.457764,
-1.77917,0.457764,
-1.77765,0.454712,
-1.77002,0.456238,
-1.76544,0.456238,
-1.75781,0.45929,
-1.74866,0.457764,
-1.74103,0.457764,
-1.73798,0.453186,
-1.73035,0.456238,
-1.72272,0.462341,
-1.71661,0.457764,
-1.70898,0.457764,
-1.70898,0.454712,
-1.70288,0.457764,
-1.70288,0.45929,
-1.70441,0.460815,
-1.70441,0.457764,
-1.70898,0.456238,
-1.71356,0.457764,
-1.72424,0.462341,
-1.73035,0.457764,
-1.7395,0.457764,
-1.75476,0.453186,
-1.77155,0.453186,
-1.78986,0.45929,
-1.80664,0.45929,
-1.82648,0.453186,
-1.84784,0.457764,
-1.86157,0.454712,
-1.87683,0.466919,
-1.89667,0.45929,
-1.9165,0.456238,
-1.93787,0.454712,
-1.95923,0.454712,
-1.98059,0.460815,
-2.00348,0.45929,
-2.02332,0.454712,
-2.05231,0.453186,
-2.07214,0.457764,
-2.09503,0.457764,
-2.11639,0.45929,
-2.14233,0.456238,
-2.17133,0.456238,
-2.19421,0.453186,
-2.22321,0.457764,
-2.24457,0.460815,
-2.27051,0.454712,
-2.29492,0.454712,
-2.32697,0.456238,
-2.35291,0.462341,
-2.37732,0.460815,
-2.40173,0.456238,
-2.43378,0.456238,
-2.45972,0.454712,
-2.49329,0.460815,
-2.5177,0.462341,
-2.54669,0.453186,
-2.56958,0.453186,
-2.59247,0.454712,
-2.61688,0.45929,
-2.63977,0.45929,
-2.66113,0.454712,
-2.68555,0.453186,
-2.70996,0.457764,
-2.7359,0.45929,
-2.75726,0.45929,
-2.78015,0.453186,
-2.80151,0.453186,
-2.82288,0.456238,
-2.83966,0.462341,
-2.86407,0.457764,
-2.88544,0.454712,
-2.9068,0.453186,
-2.93121,0.457764,
-2.94952,0.460815,
-2.97089,0.460815,
-2.9892,0.45166,
-3.01056,0.450134,
-3.03192,0.457764,
-3.05023,0.45929,
-3.07007,0.460815,
-3.08533,0.453186,
-3.10822,0.450134,
-3.12195,0.457764,
-3.14026,0.45929,
-3.15704,0.45929,
-3.1723,0.453186,
-3.18909,0.45166,
-3.21045,0.453186,
-3.22266,0.460815,
-3.23944,0.457764,
-3.25928,0.45166,
-3.27606,0.453186,
-3.29742,0.457764,
-3.31421,0.456238,
-3.32794,0.45929,
-3.34167,0.45166,
-3.35388,0.453186,
-3.35846,0.453186,
-3.35846,0.45929,
-3.3493,0.45929,
-3.32947,0.454712,
-3.29742,0.454712,
-3.25623,0.456238,
-3.19672,0.45929,
-3.12805,0.460815,
-3.04718,0.453186,
-2.96326,0.453186,
-2.87476,0.456238,
-2.78168,0.45929,
-2.67944,0.45929,
-2.58331,0.45166,
-2.47803,0.453186,
-2.37579,0.454712,
-2.27509,0.45929,
-2.1759,0.45929,
-2.0752,0.453186,
-1.97601,0.453186,
-1.87683,0.453186,
-1.78375,0.457764,
-1.69525,0.45929,
-1.60675,0.45166,
-1.51978,0.45166,
-1.44196,0.456238,
-1.36414,0.457764,
-1.29242,0.45929,
-1.22375,0.45166,
-1.16119,0.450134,
-1.10168,0.454712,
-1.05286,0.45929,
-1.00861,0.45929,
-0.968933,0.453186,
-0.93689,0.450134,
-0.91095,0.45929,
-0.888062,0.457764,
-0.875854,0.460815,
-0.869751,0.45166,
-0.868225,0.448608,
-0.871277,0.456238,
-0.886536,0.456238,
-0.898743,0.460815,
-0.909424,0.454712,
-0.932312,0.448608,
-0.9552,0.454712,
-0.985718,0.457764,
-1.01471,0.457764,
-1.04675,0.454712,
-1.07727,0.450134,
-1.11237,0.453186,
-1.14899,0.457764,
-1.18713,0.45929,
-1.22681,0.45166,
-1.27563,0.450134,
-1.31836,0.45166,
-1.36414,0.457764,
-1.41144,0.457764,
-1.45416,0.45166,
-1.50146,0.453186,
-1.55029,0.456238,
-1.59454,0.460815,
-1.63879,0.460815,
-1.67389,0.453186,
-1.71356,0.453186,
-1.75018,0.454712,
-1.78375,0.457764,
-1.81732,0.456238,
-1.84784,0.453186,
-1.87225,0.45166,
-1.89972,0.454712,
-1.91345,0.457764,
-1.93329,0.453186,
-1.93939,0.453186,
-1.9516,0.454712,
-1.95313,0.454712,
-1.9516,0.45929,
-1.95007,0.457764,
-1.94702,0.454712,
-1.94244,0.450134,
-1.93787,0.457764,
-1.92871,0.460815,
-1.92413,0.454712,
-1.9165,0.453186,
-1.90887,0.453186,
-1.89667,0.456238,
-1.87988,0.456238,
-1.86768,0.456238,
-1.85852,0.456238,
-1.84784,0.453186,
-1.83563,0.453186,
-1.82953,0.457764,
-1.8219,0.457764,
-1.81732,0.454712,
-1.81732,0.453186,
-1.81122,0.456238,
-1.80969,0.454712,
-1.81427,0.457764,
-1.82037,0.454712,
-1.82495,0.450134,
-1.83563,0.457764,
-1.84326,0.457764,
-1.85547,0.457764,
-1.87073,0.454712,
-1.88599,0.453186,
-1.90277,0.457764,
-1.92108,0.45929,
-1.93634,0.456238,
-1.95465,0.454712,
-1.97296,0.45166,
-1.99585,0.456238,
-2.01874,0.45929,
-2.04163,0.453186,
-2.07062,0.453186,
-2.09503,0.450134,
-2.12097,0.456238,
-2.15149,0.457764,
-2.18048,0.456238,
-2.21558,0.45166,
-2.25067,0.448608,
-2.28119,0.456238,
-2.31628,0.462341,
-2.3468,0.456238,
-2.37885,0.453186,
-2.40936,0.45166,
-2.43683,0.454712,
-2.46887,0.456238,
-2.49481,0.454712,
-2.52533,0.453186,
-2.55432,0.45166,
-2.58636,0.456238,
-2.6123,0.457764,
-2.6413,0.454712,
-2.66876,0.457764,
-2.70233,0.45166,
-2.72675,0.457764,
-2.75574,0.457764,
-2.7832,0.456238,
-2.80304,0.45166,
-2.83051,0.45166,
-2.85645,0.456238,
-2.87476,0.454712,
-2.90375,0.454712,
-2.92511,0.453186,
-2.948,0.450134,
-2.96936,0.457764,
-2.9892,0.457764,
-3.01208,0.456238,
-3.03497,0.45166,
-3.05634,0.45166,
-3.07922,0.456238,
-3.10211,0.457764,
-3.12042,0.454712,
-3.13721,0.456238,
-3.15704,0.45166,
-3.17535,0.456238,
-3.19366,0.456238,
-3.20892,0.453186,
-3.22418,0.456238,
-3.24402,0.45166,
-3.25928,0.456238,
-3.27606,0.456238,
-3.29132,0.457764,
-3.30658,0.454712,
-3.32794,0.45166,
-3.3493,0.456238,
-3.37067,0.457764,
-3.38745,0.457764,
-3.40881,0.454712,
-3.42255,0.445557,
-3.43933,0.453186,
-3.45306,0.457764,
-3.46527,0.456238,
-3.47748,0.456238,
-3.48816,0.447083,
-3.49274,0.454712,
-3.49121,0.45929,
-3.47748,0.454712,
-3.45612,0.454712,
-3.42255,0.448608,
-3.37372,0.456238,
-3.31421,0.45929,
-3.24097,0.457764,
-3.15857,0.454712,
-3.07465,0.447083,
-2.97852,0.454712,
-2.88544,0.457764,
-2.78778,0.456238,
-2.6886,0.45166,
-2.58636,0.448608,
-2.48566,0.454712,
-2.3819,0.456238,
-2.28424,0.456238,
-2.17896,0.456238,
-2.07672,0.447083,
-1.97754,0.456238,
-1.87836,0.454712,
-1.78223,0.457764,
-1.6922,0.456238,
-1.60828,0.450134,
-1.52893,0.454712,
-1.45874,0.456238,
-1.38855,0.454712,
-1.32446,0.453186,
-1.25885,0.447083,
-1.20544,0.456238,
-1.15356,0.454712,
-1.10779,0.456238,
-1.07269,0.456238,
-1.03912,0.448608,
-1.01166,0.456238,
-0.991821,0.456238,
-0.979614,0.454712,
-0.973511,0.454712,
-0.967407,0.447083,
-0.965881,0.453186,
-0.976563,0.454712,
-0.985718,0.454712,
-0.999451,0.453186,
-1.02081,0.444031,
-1.04828,0.454712,
-1.07727,0.456238,
-1.11084,0.457764,
-1.14594,0.453186,
-1.18256,0.445557,
-1.2207,0.454712,
-1.26038,0.460815,
-1.30157,0.454712,
-1.34583,0.453186,
-1.39465,0.445557,
-1.44348,0.454712,
-1.49994,0.457764,
-1.5564,0.456238,
-1.60828,0.45166,
-1.66626,0.445557,
-1.71661,0.454712,
-1.76697,0.456238,
-1.81274,0.454712,
-1.86157,0.454712,
-1.90277,0.447083,
-1.9455,0.453186,
-1.98212,0.457764,
-2.01416,0.453186,
-2.04468,0.450134,
-2.06757,0.445557,
-2.08588,0.453186,
-2.10266,0.456238,
-2.11487,0.453186,
-2.11945,0.454712,
-2.1225,0.444031,
-2.12097,0.45166,
-2.11945,0.456238,
-2.11334,0.453186,
-2.10266,0.453186,
-2.09656,0.445557,
-2.08588,0.453186,
-2.07214,0.454712,
-2.05841,0.454712,
-2.04773,0.454712,
-2.034,0.445557,
-2.01874,0.450134,
-2.00043,0.457764,
-1.98669,0.454712,
-1.98059,0.454712,
-1.96991,0.444031,
-1.95923,0.45166,
-1.9516,0.453186,
-1.94855,0.457764,
-1.94092,0.453186,
-1.93939,0.448608,
-1.94092,0.454712,
-1.93939,0.453186,
-1.93634,0.454712,
-1.9455,0.453186,
-1.95007,0.450134,
-1.9577,0.45166,
-1.97144,0.457764,
-1.98212,0.457764,
-1.9928,0.450134,
-2.00348,0.445557,
-2.02026,0.45166,
-2.03857,0.454712,
-2.05383,0.454712,
-2.07672,0.448608,
-2.10114,0.444031,
-2.1225,0.45166,
-2.14691,0.453186,
-2.17133,0.453186,
-2.19574,0.45166,
-2.22473,0.448608,
-2.24762,0.45166,
-2.27509,0.453186,
-2.2995,0.454712,
-2.32544,0.45166,
-2.34833,0.442505,
-2.37579,0.453186,
-2.40021,0.453186,
-2.43073,0.45166,
-2.45819,0.448608,
-2.48871,0.444031,
-2.51465,0.45166,
-2.54211,0.45166,
-2.56805,0.45166,
-2.59094,0.453186,
-2.61688,0.444031,
-2.63977,0.448608,
-2.66571,0.453186,
-2.69318,0.454712,
-2.72064,0.45166,
-2.74506,0.444031,
-2.77405,0.45166,
-2.79999,0.45166,
-2.82593,0.45166,
-2.84882,0.45166,
-2.87018,0.445557,
-2.89154,0.453186,
-2.91443,0.450134,
-2.93732,0.448608,
-2.95563,0.447083,
-2.97852,0.444031,
-2.99835,0.453186,
-3.01666,0.45166,
-3.03955,0.45166,
-3.05634,0.448608,
-3.0777,0.444031,
-3.09753,0.453186,
-3.1189,0.454712,
-3.14178,0.448608,
-3.15857,0.447083,
-3.17688,0.447083,
-3.19672,0.450134,
-3.21655,0.45166,
-3.23944,0.450134,
-3.25775,0.453186,
-3.28064,0.447083,
-3.29895,0.453186,
-3.31879,0.453186,
-3.3371,0.448608,
-3.35541,0.450134,
-3.37067,0.444031,
-3.38745,0.454712,
-3.40118,0.454712,
-3.41339,0.454712,
-3.41949,0.450134,
-3.42407,0.442505,
-3.41949,0.45166,
-3.41644,0.456238,
-3.39508,0.448608,
-3.36304,0.448608,
-3.31268,0.445557,
-3.25012,0.45166,
-3.18146,0.454712,
-3.10516,0.45166,
-3.01361,0.450134,
-2.91901,0.440979,
-2.82745,0.450134,
-2.72675,0.453186,
-2.62604,0.450134,
-2.52228,0.445557,
-2.41547,0.445557,
-2.31018,0.453186,
-2.2049,0.454712,
-2.10266,0.45166,
-1.9989,0.450134,
-1.90125,0.444031,
-1.80054,0.450134,
-1.70288,0.45166,
-1.6098,0.450134,
-1.52283,0.445557,
-1.43585,0.447083,
-1.35651,0.445557,
-1.28479,0.454712,
-1.21765,0.450134,
-1.15509,0.442505,
-1.10321,0.445557,
-1.0498,0.450134,
-1.0025,0.448608,
-0.959778,0.447083,
-0.930786,0.447083,
-0.904846,0.445557,
-0.883484,0.450134,
-0.871277,0.453186,
-0.868225,0.447083,
-0.869751,0.444031,
-0.874329,0.442505,
-0.883484,0.447083,
-0.892639,0.453186,
-0.909424,0.448608,
-0.927734,0.440979,
-0.956726,0.442505,
-0.984192,0.447083,
-1.01624,0.453186,
-1.05133,0.448608,
-1.091,0.445557,
-1.13373,0.445557,
-1.18256,0.447083,
-1.23138,0.45166,
-1.28174,0.450134,
-1.32904,0.440979,
-1.38397,0.442505,
-1.4328,0.45166,
-1.48621,0.45166,
-1.54114,0.450134,
-1.59454,0.444031,
-1.6449,0.444031,
-1.69525,0.445557,
-1.74561,0.448608,
-1.79138,0.448608,
-1.83105,0.444031,
-1.87378,0.442505,
-1.90887,0.447083,
-1.94092,0.450134,
-1.96991,0.448608,
-1.9928,0.442505,
-2.01263,0.448608,
-2.02789,0.444031,
-2.04163,0.448608,
-2.04926,0.450134,
-2.04926,0.445557,
-2.05078,0.444031,
-2.05078,0.450134,
-2.04468,0.450134,
-2.03552,0.450134,
-2.02026,0.442505,
-2.01111,0.445557,
-1.9928,0.447083,
-1.98212,0.450134,
-1.96533,0.447083,
-1.94855,0.442505,
-1.93481,0.445557,
-1.93024,0.448608,
-1.91956,0.450134,
-1.91345,0.448608,
-1.90735,0.439453,
-1.90277,0.447083,
-1.89819,0.448608,
-1.89819,0.448608,
-1.89056,0.448608,
-1.89056,0.442505,
-1.89056,0.445557,
-1.89056,0.450134,
-1.89972,0.45166,
-1.9043,0.45166,
-1.91803,0.442505,
-1.93329,0.447083,
-1.94702,0.450134,
-1.96533,0.450134,
-1.98212,0.450134,
-1.9989,0.440979,
-2.02026,0.442505,
-2.03857,0.447083,
-2.05841,0.448608,
-2.08282,0.450134,
-2.10419,0.439453,
-2.13013,0.440979,
-2.15759,0.450134,
-2.18048,0.45166,
-2.211,0.445557,
-2.23999,0.440979,
-2.26288,0.442505,
-2.29187,0.445557,
-2.32086,0.450134,
-2.34833,0.448608,
-2.37427,0.440979,
-2.39868,0.442505,
-2.42767,0.447083,
-2.45972,0.448608,
-2.48413,0.445557,
-2.51465,0.439453,
-2.54059,0.444031,
-2.57111,0.447083,
-2.59399,0.450134,
-2.62756,0.447083,
-2.65808,0.444031,
-2.68707,0.444031,
-2.70996,0.448608,
-2.73743,0.448608,
-2.76489,0.45166,
-2.78931,0.442505,
-2.81372,0.442505,
-2.83661,0.445557,
-2.86255,0.450134,
-2.88239,0.445557,
-2.9129,0.440979,
-2.93579,0.444031,
-2.95868,0.447083,
-2.98004,0.447083,
-3.0014,0.448608,
-3.02124,0.447083,
-3.04565,0.442505,
-3.06702,0.445557,
-3.0899,0.447083,
-3.11279,0.442505,
-3.13263,0.447083,
-3.15247,0.440979,
-3.17688,0.444031,
-3.19214,0.445557,
-3.21045,0.445557,
-3.23334,0.445557,
-3.25165,0.444031,
-3.26996,0.447083,
-3.28522,0.448608,
-3.30505,0.445557,
-3.32336,0.442505,
-3.3371,0.445557,
-3.3493,0.445557,
-3.37067,0.45166,
-3.37677,0.445557,
-3.37982,0.444031,
-3.38135,0.444031,
-3.37067,0.447083,
-3.35083,0.447083,
-3.32184,0.448608,
-3.27759,0.444031,
-3.21808,0.445557,
-3.14178,0.445557,
-3.05328,0.45166,
-2.96021,0.448608,
-2.85645,0.445557,
-2.75269,0.444031,
-2.64282,0.447083,
-2.53601,0.450134,
-2.42157,0.447083,
-2.31018,0.445557,
-2.19421,0.444031,
-2.0813,0.447083,
-1.96991,0.45166,
-1.86005,0.448608,
-1.74713,0.445557,
-1.64185,0.442505,
-1.53656,0.447083,
-1.43585,0.450134,
-1.33514,0.445557,
-1.23749,0.442505,
-1.14899,0.442505,
-1.06049,0.447083,
-0.98114,0.450134,
-0.90332,0.447083,
-0.828552,0.444031,
-0.764465,0.442505,
-0.71106,0.440979,
-0.663757,0.447083,
-0.62561,0.442505,
-0.595093,0.442505,
-0.569153,0.444031,
-0.55542,0.444031,
-0.541687,0.45166,
-0.534058,0.447083,
-0.535583,0.442505,
-0.541687,0.445557,
-0.552368,0.445557,
-0.569153,0.448608,
-0.590515,0.445557,
-0.611877,0.445557,
-0.639343,0.442505,
-0.669861,0.447083,
-0.704956,0.453186,
-0.740051,0.445557,
-0.778198,0.442505,
-0.814819,0.444031,
-0.852966,0.439453,
-0.898743,0.447083,
-0.946045,0.445557,
-0.98877,0.442505,
-1.03912,0.442505,
-1.08948,0.442505,
-1.13983,0.445557,
-1.18866,0.445557,
-1.23291,0.442505,
-1.28021,0.440979,
-1.32294,0.444031,
-1.37024,0.447083,
-1.41296,0.445557,
-1.44958,0.444031,
-1.48163,0.440979,
-1.51215,0.442505,
-1.54419,0.450134,
-1.56708,0.448608,
-1.59454,0.442505,
-1.6098,0.442505,
-1.63116,0.442505,
-1.63574,0.450134,
-1.64948,0.445557,
-1.66016,0.445557,
-1.66626,0.439453,
-1.66626,0.442505,
-1.66168,0.447083,
-1.66321,0.444031,
-1.6571,0.442505,
-1.65253,0.444031,
-1.64948,0.442505,
-1.63879,0.447083,
-1.63422,0.445557,
-1.62659,0.445557,
-1.61896,0.444031,
-1.61285,0.439453,
-1.60675,0.445557,
-1.60065,0.445557,
-1.5976,0.444031,
-1.58691,0.440979,
-1.58081,0.440979,
-1.57776,0.447083,
-1.57928,0.444031,
-1.58386,0.439453,
-1.58997,0.444031,
-1.59454,0.440979,
-1.6037,0.447083,
-1.60828,0.447083,
-1.62048,0.445557,
-1.63269,0.440979,
-1.64185,0.439453,
-1.66016,0.450134,
-1.67694,0.448608,
-1.69525,0.442505,
-1.71661,0.444031,
-1.73645,0.439453,
-1.75934,0.450134,
-1.78223,0.445557,
-1.80969,0.444031,
-1.83716,0.445557,
-1.8631,0.440979,
-1.88751,0.448608,
-1.91345,0.448608,
-1.94397,0.445557,
-1.97144,0.444031,
-1.99585,0.442505,
-2.02484,0.444031,
-2.04773,0.447083,
-2.07672,0.444031,
-2.10571,0.442505,
-2.1286,0.440979,
-2.15759,0.444031,
-2.18506,0.448608,
-2.211,0.447083,
-2.23846,0.444031,
-2.2644,0.442505,
-2.29187,0.447083,
-2.31476,0.444031,
-2.34375,0.444031,
-2.37122,0.440979,
-2.39868,0.439453,
-2.43073,0.444031,
-2.45819,0.447083,
-2.48718,0.448608,
-2.51617,0.444031,
-2.54364,0.440979,
-2.57568,0.448608,
-2.60468,0.445557,
-2.62756,0.447083,
-2.6535,0.440979,
-2.67487,0.440979,
-2.69928,0.444031,
-2.72064,0.447083,
-2.74353,0.444031,
-2.76947,0.444031,
-2.79846,0.440979,
-2.82135,0.444031,
-2.84119,0.445557,
-2.86713,0.447083,
-2.89612,0.444031,
-2.92053,0.439453,
-2.94495,0.447083,
-2.96631,0.447083,
-2.98615,0.442505,
-3.00751,0.444031,
-3.02734,0.442505,
-3.05023,0.445557,
-3.07159,0.445557,
-3.09296,0.447083,
-3.11584,0.444031,
-3.1311,0.437927,
-3.14941,0.448608,
-3.1662,0.447083,
-3.17535,0.444031,
-3.18451,0.444031,
-3.17993,0.440979,
-3.16772,0.447083,
-3.14178,0.444031,
-3.10516,0.445557,
-3.05023,0.445557,
-2.98309,0.442505,
-2.90833,0.447083,
-2.82593,0.445557,
-2.72675,0.445557,
-2.62909,0.442505,
-2.5238,0.437927,
-2.41394,0.442505,
-2.3056,0.444031,
-2.19269,0.445557,
-2.08435,0.445557,
-1.97144,0.442505,
-1.85547,0.442505,
-1.74561,0.445557,
-1.63422,0.444031,
-1.52435,0.442505,
-1.41754,0.440979,
-1.31378,0.444031,
-1.2085,0.445557,
-1.11542,0.444031,
-1.02386,0.444031,
-0.933838,0.439453,
-0.849915,0.442505,
-0.769043,0.447083,
-0.701904,0.445557,
-0.639343,0.444031,
-0.579834,0.440979,
-0.535583,0.442505,
-0.491333,0.445557,
-0.462341,0.440979,
-0.437927,0.444031,
-0.422668,0.442505,
-0.410461,0.442505,
-0.410461,0.447083,
-0.421143,0.447083,
-0.422668,0.445557,
-0.442505,0.442505,
-0.463867,0.442505,
-0.480652,0.445557,
-0.512695,0.442505,
-0.540161,0.442505,
-0.572205,0.437927,
-0.610352,0.440979,
-0.645447,0.447083,
-0.691223,0.442505,
-0.730896,0.445557,
-0.772095,0.440979,
-0.819397,0.440979,
-0.866699,0.445557,
-0.915527,0.444031,
-0.967407,0.442505,
-1.01624,0.440979,
-1.06812,0.445557,
-1.11389,0.445557,
-1.16119,0.445557,
-1.2085,0.445557,
-1.25732,0.444031,
-1.30463,0.445557,
-1.3504,0.440979,
-1.3916,0.442505,
-1.42822,0.442505,
-1.46637,0.440979,
-1.49841,0.445557,
-1.52283,0.444031,
-1.54419,0.445557,
-1.56555,0.444031,
-1.57928,0.439453,
-1.59454,0.447083,
-1.60065,0.445557,
-1.60828,0.447083,
-1.60828,0.444031,
-1.6098,0.439453,
-1.6037,0.447083,
-1.60217,0.445557,
-1.59149,0.445557,
-1.58539,0.440979,
-1.57471,0.442505,
-1.56403,0.445557,
-1.55792,0.447083,
-1.54572,0.444031,
-1.53961,0.442505,
-1.52893,0.437927,
-1.5213,0.445557,
-1.5152,0.450134,
-1.50909,0.444031,
-1.50757,0.444031,
-1.50604,0.439453,
-1.50604,0.448608,
-1.50757,0.445557,
-1.51062,0.445557,
-1.51672,0.447083,
-1.51672,0.442505,
-1.5274,0.445557,
-1.53656,0.445557,
-1.54877,0.444031,
-1.56403,0.444031,
-1.57623,0.440979,
-1.59607,0.447083,
-1.6098,0.444031,
-1.63116,0.448608,
-1.65253,0.445557,
-1.66931,0.440979,
-1.6922,0.447083,
-1.71051,0.447083,
-1.74103,0.444031,
-1.76392,0.442505,
-1.78528,0.442505,
-1.81427,0.444031,
-1.84021,0.445557,
-1.8692,0.442505,
-1.89514,0.445557,
-1.92719,0.442505,
-1.95618,0.442505,
-1.98669,0.444031,
-2.01874,0.440979,
-2.04773,0.444031,
-2.0813,0.440979,
-2.10724,0.445557,
-2.1347,0.445557,
-2.16217,0.445557,
-2.18811,0.445557,
-2.21863,0.439453,
-2.25067,0.447083,
-2.28119,0.447083,
-2.31476,0.442505,
-2.3468,0.442505,
-2.38037,0.440979,
-2.40326,0.444031,
-2.43073,0.444031,
-2.45972,0.445557,
-2.49023,0.442505,
-2.52228,0.440979,
-2.54822,0.445557,
-2.57111,0.447083,
-2.59247,0.445557,
-2.62146,0.442505,
-2.64282,0.439453,
-2.67334,0.444031,
-2.69775,0.448608,
-2.72064,0.445557,
-2.74353,0.442505,
-2.76337,0.440979,
-2.7832,0.447083,
-2.80762,0.444031,
-2.82898,0.448608,
-2.84424,0.444031,
-2.86713,0.437927,
-2.88544,0.444031,
-2.90833,0.444031,
-2.93121,0.442505,
-2.94952,0.440979,
-2.97089,0.440979,
-2.99072,0.447083,
-3.01208,0.444031,
-3.0365,0.442505,
-3.05634,0.440979,
-3.07617,0.439453,
-3.09143,0.444031,
-3.10974,0.445557,
-3.12347,0.442505,
-3.13721,0.442505,
-3.14026,0.437927,
-3.13263,0.444031,
-3.11432,0.445557,
-3.08685,0.444031,
-3.04413,0.444031,
-2.98615,0.437927,
-2.91901,0.445557,
-2.83661,0.447083,
-2.74658,0.445557,
-2.65656,0.440979,
-2.55127,0.439453,
-2.44751,0.445557,
-2.34375,0.444031,
-2.23083,0.445557,
-2.11487,0.440979,
-2.00348,0.444031,
-1.88446,0.445557,
-1.7746,0.445557,
-1.66168,0.442505,
-1.55487,0.440979,
-1.45111,0.439453,
-1.34583,0.444031,
-1.24664,0.444031,
-1.14594,0.445557,
-1.05438,0.440979,
-0.970459,0.440979,
-0.888062,0.444031,
-0.811768,0.444031,
-0.738525,0.444031,
-0.674438,0.442505,
-0.617981,0.437927,
-0.569153,0.445557,
-0.52948,0.444031,
-0.492859,0.445557,
-0.469971,0.440979,
-0.444031,0.439453,
-0.428772,0.447083,
-0.416565,0.445557,
-0.422668,0.442505,
-0.428772,0.439453,
-0.437927,0.436401,
-0.454712,0.444031,
-0.471497,0.447083,
-0.498962,0.442505,
-0.524902,0.437927,
-0.556946,0.437927,
-0.588989,0.444031,
-0.622559,0.442505,
-0.662231,0.444031,
-0.70343,0.439453,
-0.746155,0.440979,
-0.788879,0.440979,
-0.834656,0.444031,
-0.883484,0.442505,
-0.927734,0.437927,
-0.98114,0.437927,
-1.02692,0.444031,
-1.08185,0.444031,
-1.12762,0.447083,
-1.17798,0.437927,
-1.22528,0.439453,
-1.27411,0.442505,
-1.31531,0.444031,
-1.35651,0.442505,
-1.39618,0.439453,
-1.42822,0.436401,
-1.46179,0.444031,
-1.49078,0.442505,
-1.50909,0.445557,
-1.5274,0.439453,
-1.54877,0.437927,
-1.5564,0.444031,
-1.56708,0.444031,
-1.57013,0.444031,
-1.57013,0.442505,
-1.5686,0.439453,
-1.56403,0.440979,
-1.55487,0.442505,
-1.54266,0.447083,
-1.53351,0.440979,
-1.51978,0.439453,
-1.50909,0.440979,
-1.49994,0.445557,
-1.48468,0.445557,
-1.47247,0.440979,
-1.46332,0.439453,
-1.45111,0.444031,
-1.43738,0.442505,
-1.43127,0.445557,
-1.42212,0.437927,
-1.40839,0.442505,
-1.40533,0.445557,
-1.40228,0.447083,
-1.40228,0.442505,
-1.40381,0.437927,
-1.40686,0.439453,
-1.41754,0.445557,
-1.42517,0.445557,
-1.44043,0.445557,
-1.45721,0.440979,
-1.47552,0.439453,
-1.49536,0.445557,
-1.51215,0.444031,
-1.53198,0.447083,
-1.55487,0.437927,
-1.57623,0.440979,
-1.6037,0.444031,
-1.62659,0.440979,
-1.64795,0.445557,
-1.67389,0.439453,
-1.69983,0.436401,
-1.72729,0.439453,
-1.75629,0.444031,
-1.7868,0.444031,
-1.81427,0.439453,
-1.84631,0.439453,
-1.87988,0.442505,
-1.90887,0.440979,
-1.94092,0.444031,
-1.97449,0.437927,
-2.00958,0.434875,
-2.04163,0.442505,
-2.0752,0.444031,
-2.10419,0.447083,
-2.13318,0.437927,
-2.15912,0.439453,
-2.19116,0.440979,
-2.21863,0.442505,
-2.24457,0.444031,
-2.27661,0.436401,
-2.30103,0.434875,
-2.32849,0.440979,
-2.35748,0.444031,
-2.38342,0.444031,
-2.41394,0.437927,
-2.43378,0.436401,
-2.46582,0.442505,
-2.49329,0.442505,
-2.51923,0.442505,
-2.54669,0.434875,
-2.56958,0.437927,
-2.59552,0.442505,
-2.6123,0.442505,
-2.63672,0.442505,
-2.66266,0.437927,
-2.68707,0.437927,
-2.70996,0.442505,
-2.73132,0.440979,
-2.75726,0.442505,
-2.78015,0.437927,
-2.80151,0.436401,
-2.82593,0.440979,
-2.84424,0.439453,
-2.86713,0.440979,
-2.88696,0.437927,
-2.90985,0.437927,
-2.93274,0.445557,
-2.95563,0.442505,
-2.97852,0.442505,
-3.0014,0.436401,
-3.01971,0.43335,
-3.03955,0.442505,
-3.06244,0.440979,
-3.07465,0.439453,
-3.08685,0.436401,
-3.09906,0.434875,
-3.10211,0.444031,
-3.09753,0.440979,
-3.0838,0.442505,
-3.05481,0.436401,
-3.01514,0.43335,
-2.96021,0.444031,
-2.89459,0.440979,
-2.81372,0.439453,
-2.73132,0.434875,
-2.6413,0.436401,
-2.54211,0.442505,
-2.44293,0.440979,
-2.33612,0.440979,
-2.22931,0.436401,
-2.1225,0.436401,
-2.01111,0.444031,
-1.89819,0.442505,
-1.78986,0.444031,
-1.67694,0.436401,
-1.57013,0.434875,
-1.46637,0.444031,
-1.36719,0.444031,
-1.27106,0.440979,
-1.17645,0.436401,
-1.08337,0.434875,
-0.999451,0.440979,
-0.91095,0.440979,
-0.840759,0.440979,
-0.772095,0.436401,
-0.709534,0.436401,
-0.653076,0.442505,
-0.602722,0.440979,
-0.564575,0.440979,
-0.527954,0.437927,
-0.498962,0.43335,
-0.483704,0.440979,
-0.473022,0.439453,
-0.469971,0.442505,
-0.474548,0.43335,
-0.485229,0.434875,
-0.502014,0.440979,
-0.524902,0.442505,
-0.543213,0.442505,
-0.57373,0.436401,
-0.6073,0.434875,
-0.637817,0.439453,
-0.675964,0.442505,
-0.721741,0.436401,
-0.761414,0.431824,
-0.80719,0.434875,
-0.852966,0.442505,
-0.898743,0.442505,
-0.949097,0.436401,
-0.999451,0.436401,
-1.05286,0.43335,
-1.10321,0.439453,
-1.15509,0.442505,
-1.20697,0.440979,
-1.25427,0.434875,
-1.30157,0.436401,
-1.35498,0.440979,
-1.40381,0.442505,
-1.45111,0.440979,
-1.49078,0.436401,
-1.52435,0.43335,
-1.55792,0.440979,
-1.58539,0.442505,
-1.61133,0.439453,
-1.62811,0.437927,
-1.6449,0.431824,
-1.6571,0.440979,
-1.66168,0.442505,
-1.66473,0.439453,
-1.66779,0.43335,
-1.66321,0.436401,
-1.65863,0.442505,
-1.6449,0.440979,
-1.63422,0.439453,
-1.62354,0.43335,
-1.6098,0.43335,
-1.58997,0.439453,
-1.57318,0.439453,
-1.5564,0.439453,
-1.53809,0.43335,
-1.52435,0.434875,
-1.50757,0.440979,
-1.49689,0.442505,
-1.47705,0.437927,
-1.46637,0.434875,
-1.45111,0.434875,
-1.44348,0.439453,
-1.43738,0.437927,
-1.44043,0.436401,
-1.43585,0.43335,
-1.43433,0.436401,
-1.4389,0.442505,
-1.44806,0.440979,
-1.45416,0.437927,
-1.46484,0.431824,
-1.48163,0.43335,
-1.49384,0.439453,
-1.51215,0.440979,
-1.52893,0.437927,
-1.54877,0.436401,
-1.57013,0.434875,
-1.59607,0.442505,
-1.62201,0.439453,
-1.63727,0.439453,
-1.66931,0.43335,
-1.69067,0.436401,
-1.72424,0.439453,
-1.75018,0.442505,
-1.77765,0.436401,
-1.80664,0.431824,
-1.83258,0.436401,
-1.8631,0.436401,
-1.88904,0.442505,
-1.9165,0.436401,
-1.9455,0.436401,
-1.97144,0.436401,
-1.99585,0.440979,
-2.02332,0.439453,
-2.04926,0.434875,
-2.0752,0.436401,
-2.10419,0.434875,
-2.1286,0.442505,
-2.16217,0.439453,
-2.18811,0.437927,
-2.2171,0.43335,
-2.24609,0.434875,
-2.27203,0.437927,
-2.2995,0.444031,
-2.32544,0.436401,
-2.35901,0.43335,
-2.38342,0.434875,
-2.41241,0.436401,
-2.43835,0.444031,
-2.46277,0.436401,
-2.48871,0.431824,
-2.50854,0.431824,
-2.53143,0.437927,
-2.55127,0.440979,
-2.57263,0.43335,
-2.59552,0.431824,
-2.61536,0.434875,
-2.63214,0.436401,
-2.65656,0.440979,
-2.67639,0.434875,
-2.6947,0.428772,
-2.71912,0.43335,
-2.73285,0.436401,
-2.75269,0.439453,
-2.77405,0.43335,
-2.79846,0.43335,
-2.82135,0.43335,
-2.83813,0.437927,
-2.86255,0.439453,
-2.88086,0.43335,
-2.89917,0.436401,
-2.9129,0.431824,
-2.92816,0.436401,
-2.94342,0.442505,
-2.95563,0.437927,
-2.96631,0.428772,
-2.97394,0.43335,
-2.96631,0.440979,
-2.94495,0.437927,
-2.91595,0.434875,
-2.87323,0.436401,
-2.81525,0.434875,
-2.74506,0.437927,
-2.67181,0.440979,
-2.58636,0.436401,
-2.49786,0.43335,
-2.40173,0.431824,
-2.30103,0.436401,
-2.19574,0.437927,
-2.09045,0.43335,
-1.98212,0.431824,
-1.8692,0.431824,
-1.75476,0.439453,
-1.64032,0.442505,
-1.52893,0.43335,
-1.42365,0.43335,
-1.31683,0.434875,
-1.2146,0.434875,
-1.11542,0.439453,
-1.01776,0.439453,
-0.930786,0.428772,
-0.842285,0.43335,
-0.762939,0.436401,
-0.691223,0.439453,
-0.62561,0.437927,
-0.569153,0.431824,
-0.518799,0.431824,
-0.480652,0.436401,
-0.445557,0.440979,
-0.411987,0.43335,
-0.395203,0.431824,
-0.38147,0.43335,
-0.367737,0.436401,
-0.366211,0.440979,
-0.369263,0.436401,
-0.375366,0.43335,
-0.390625,0.428772,
-0.404358,0.437927,
-0.427246,0.440979,
-0.454712,0.436401,
-0.480652,0.43335,
-0.520325,0.427246,
-0.556946,0.434875,
-0.59967,0.439453,
-0.642395,0.436401,
-0.68512,0.431824,
-0.730896,0.428772,
-0.779724,0.436401,
-0.830078,0.440979,
-0.878906,0.434875,
-0.935364,0.43335,
-0.984192,0.427246,
-1.03912,0.436401,
-1.08795,0.439453,
-1.14288,0.43335,
-1.19324,0.431824,
-1.24512,0.427246,
-1.29089,0.436401,
-1.33667,0.442505,
-1.37329,0.437927,
-1.41296,0.43335,
-1.44043,0.427246,
-1.47095,0.439453,
-1.49689,0.440979,
-1.51825,0.434875,
-1.53656,0.428772,
-1.54877,0.43335,
-1.55334,0.431824,
-1.55792,0.440979,
-1.55792,0.43335,
-1.55792,0.431824,
-1.55182,0.428772,
-1.54419,0.436401,
-1.54114,0.440979,
-1.53198,0.43335,
-1.5274,0.428772,
-1.51978,0.427246,
-1.51062,0.434875,
-1.49689,0.440979,
-1.48773,0.431824,
-1.474,0.434875,
-1.46484,0.431824,
-1.45569,0.434875,
-1.44348,0.440979,
-1.43738,0.43335,
-1.43127,0.428772,
-1.4267,0.427246,
-1.42822,0.434875,
-1.42517,0.440979,
-1.43127,0.436401,
-1.43433,0.427246,
-1.44043,0.431824,
-1.44958,0.436401,
-1.46027,0.440979,
-1.47095,0.434875,
-1.4801,0.43335,
-1.49994,0.431824,
-1.51825,0.43335,
-1.53503,0.440979,
-1.55487,0.43335,
-1.57471,0.431824,
-1.60217,0.428772,
-1.62659,0.43335,
-1.64948,0.436401,
-1.67847,0.431824,
-1.70593,0.431824,
-1.73492,0.428772,
-1.76697,0.436401,
-1.79749,0.439453,
-1.82648,0.434875,
-1.85394,0.431824,
-1.89056,0.431824,
-1.92261,0.43335,
-1.9516,0.439453,
-1.98212,0.439453,
-2.01416,0.428772,
-2.04773,0.427246,
-2.07977,0.434875,
-2.10724,0.436401,
-2.14233,0.43335,
-2.17133,0.43335,
-2.19727,0.428772,
-2.22778,0.434875,
-2.25525,0.436401,
-2.28271,0.431824,
-2.31171,0.431824,
-2.33612,0.431824,
-2.36359,0.440979,
-2.39258,0.437927,
-2.42004,0.434875,
-2.44293,0.431824,
-2.46582,0.42572,
-2.49023,0.436401,
-2.51923,0.439453,
-2.54364,0.43335,
-2.56653,0.43335,
-2.59094,0.431824,
-2.60925,0.436401,
-2.62909,0.436401,
-2.6535,0.434875,
-2.67487,0.428772,
-2.69928,0.428772,
-2.71912,0.436401,
-2.73895,0.436401,
-2.75574,0.431824,
-2.7771,0.43335,
-2.79388,0.427246,
-2.80914,0.436401,
-2.82898,0.437927,
-2.84882,0.428772,
-2.86865,0.434875,
-2.89154,0.428772,
-2.90833,0.43335,
-2.92511,0.439453,
-2.94342,0.43335,
-2.95868,0.428772,
-2.97699,0.427246,
-2.9892,0.436401,
-2.99988,0.437927,
-3.00293,0.43335,
-2.9953,0.431824,
-2.97699,0.427246,
-2.94647,0.437927,
-2.90527,0.439453,
-2.84424,0.431824,
-2.77405,0.431824,
-2.69775,0.43335,
-2.60773,0.439453,
-2.50854,0.437927,
-2.40479,0.434875,
-2.29492,0.43335,
-2.18353,0.431824,
-2.06604,0.439453,
-1.94397,0.439453,
-1.82495,0.424194,
-1.6983,0.43335,
-1.57318,0.43335,
-1.45416,0.436401,
-1.33209,0.437927,
-1.2207,0.43335,
-1.10321,0.431824,
-0.994873,0.431824,
-0.886536,0.439453,
-0.787354,0.437927,
-0.691223,0.43335,
-0.596619,0.431824,
-0.511169,0.43335,
-0.436401,0.439453,
-0.363159,0.436401,
-0.297546,0.43335,
-0.238037,0.434875,
-0.193787,0.428772,
-0.154114,0.437927,
-0.119019,0.436401,
-0.0930786,0.431824,
-0.0747681,0.43335,
-0.0640869,0.43335,
-0.0595093,0.439453,
-0.0610352,0.437927,
-0.0732422,0.436401,
-0.0839233,0.428772,
-0.0991821,0.43335,
-0.123596,0.442505,
-0.14801,0.437927,
-0.17395,0.43335,
-0.201416,0.431824,
-0.233459,0.434875,
-0.267029,0.440979,
-0.302124,0.437927,
-0.337219,0.431824,
-0.379944,0.428772,
-0.422668,0.436401,
-0.466919,0.437927,
-0.508118,0.437927,
-0.556946,0.43335,
-0.6073,0.43335,
-0.656128,0.434875,
-0.706482,0.439453,
-0.759888,0.434875,
-0.805664,0.436401,
-0.852966,0.428772,
-0.900269,0.431824,
-0.946045,0.440979,
-0.984192,0.437927,
-1.02386,0.43335,
-1.05591,0.43335,
-1.08337,0.434875,
-1.11084,0.440979,
-1.13831,0.439453,
-1.15814,0.43335,
-1.17493,0.428772,
-1.18408,0.431824,
-1.19324,0.442505,
-1.19324,0.436401,
-1.19629,0.431824,
-1.19629,0.434875,
-1.18866,0.42572,
-1.18103,0.440979,
-1.17493,0.437927,
-1.1734,0.431824,
-1.16119,0.431824,
-1.15051,0.428772,
-1.14288,0.440979,
-1.13068,0.440979,
-1.12305,0.434875,
-1.10779,0.43335,
-1.09863,0.428772,
-1.091,0.442505,
-1.0849,0.434875,
-1.08337,0.43335,
-1.08032,0.43335,
-1.08032,0.428772,
-1.0849,0.439453,
-1.08948,0.436401,
-1.09406,0.437927,
-1.10168,0.428772,
-1.10931,0.431824,
-1.12305,0.437927,
-1.13068,0.436401,
-1.14899,0.43335,
-1.1673,0.428772,
-1.18256,0.43335,
-1.20697,0.439453,
-1.22223,0.437927,
-1.24817,0.43335,
-1.27411,0.431824,
-1.30005,0.434875,
-1.33057,0.440979,
-1.35651,0.437927,
-1.38702,0.437927,
-1.41754,0.431824,
-1.45111,0.431824,
-1.4801,0.440979,
-1.50909,0.437927,
-1.53961,0.428772,
-1.57013,0.431824,
-1.60065,0.436401,
-1.63116,0.439453,
-1.66473,0.439453,
-1.6922,0.43335,
-1.72424,0.434875,
-1.75476,0.43335,
-1.78528,0.436401,
-1.8158,0.439453,
-1.84021,0.43335,
-1.87531,0.434875,
-1.90735,0.434875,
-1.93481,0.439453,
-1.96228,0.437927,
-1.98517,0.434875,
-2.01569,0.431824,
-2.0462,0.434875,
-2.0752,0.437927,
-2.10114,0.436401,
-2.12555,0.434875,
-2.14844,0.427246,
-2.17743,0.431824,
-2.20337,0.439453,
-2.23083,0.434875,
-2.25525,0.43335,
-2.27814,0.428772,
-2.2995,0.43335,
-2.32239,0.440979,
-2.3407,0.436401,
-2.36664,0.43335,
-2.388,0.431824,
-2.41394,0.431824,
-2.4353,0.436401,
-2.45667,0.439453,
-2.47955,0.431824,
-2.50092,0.431824,
-2.52838,0.43335,
-2.54974,0.434875,
-2.56958,0.437927,
-2.59094,0.431824,
-2.6123,0.427246,
-2.63519,0.428772,
-2.65656,0.436401,
-2.67639,0.437927,
-2.69318,0.43335,
-2.71149,0.431824,
-2.72064,0.431824,
-2.73743,0.434875,
-2.74353,0.434875,
-2.75269,0.43335,
-2.74811,0.424194,
-2.7359,0.431824,
-2.71149,0.436401,
-2.67792,0.43335,
-2.63214,0.431824,
-2.56653,0.427246,
-2.49634,0.434875,
-2.42004,0.436401,
-2.33002,0.436401,
-2.23846,0.434875,
-2.13623,0.427246,
-2.02789,0.431824,
-1.91956,0.437927,
-1.80511,0.434875,
-1.68915,0.434875,
-1.57166,0.424194,
-1.45569,0.431824,
-1.33514,0.436401,
-1.22375,0.434875,
-1.10779,0.43335,
-0.994873,0.431824,
-0.88501,0.427246,
-0.779724,0.437927,
-0.679016,0.436401,
-0.585938,0.436401,
-0.495911,0.428772,
-0.410461,0.431824,
-0.335693,0.437927,
-0.263977,0.439453,
-0.202942,0.431824,
-0.151062,0.428772,
-0.100708,0.431824,
-0.062561,0.434875,
-0.0289917,0.436401,
-0.00915527,0.436401,
0.00762939,0.431824,
0.0198364,0.428772,
0.0244141,0.436401,
0.0259399,0.43335,
0.0152588,0.434875,
0.00152588,0.431824,
-0.0198364,0.431824,
-0.0366211,0.43335,
-0.0640869,0.43335,
-0.0961304,0.43335,
-0.131226,0.428772,
-0.164795,0.428772,
-0.19989,0.43335,
-0.238037,0.436401,
-0.280762,0.436401,
-0.320435,0.428772,
-0.367737,0.428772,
-0.411987,0.437927,
-0.460815,0.434875,
-0.509644,0.434875,
-0.556946,0.428772,
-0.6073,0.431824,
-0.660706,0.434875,
-0.712585,0.436401,
-0.761414,0.434875,
-0.80719,0.428772,
-0.848389,0.427246,
-0.891113,0.436401,
-0.930786,0.437927,
-0.965881,0.436401,
-0.994873,0.43335,
-1.02234,0.428772,
-1.0498,0.434875,
-1.07422,0.436401,
-1.09406,0.437927,
-1.11237,0.431824,
-1.12152,0.427246,
-1.1322,0.431824,
-1.13678,0.437927,
-1.14441,0.434875,
-1.14288,0.43335,
-1.13983,0.427246,
-1.13831,0.436401,
-1.12915,0.431824,
-1.12457,0.43335,
-1.12,0.42572,
-1.11542,0.428772,
-1.10779,0.434875,
-1.09863,0.43335,
-1.09406,0.434875,
-1.0849,0.427246,
-1.0788,0.428772,
-1.07422,0.431824,
-1.06964,0.431824,
-1.06964,0.43335,
-1.06506,0.43335,
-1.06354,0.424194,
-1.05896,0.431824,
-1.06201,0.431824,
-1.06964,0.436401,
-1.0788,0.431824,
-1.08795,0.427246,
-1.09863,0.434875,
-1.11237,0.43335,
-1.12762,0.43335,
-1.14746,0.43335,
-1.1673,0.427246,
-1.19476,0.431824,
-1.21613,0.434875,
-1.24817,0.43335,
-1.27563,0.43335,
-1.30615,0.428772,
-1.3382,0.43335,
-1.36719,0.434875,
-1.39771,0.431824,
-1.4267,0.42572,
-1.46484,0.431824,
-1.49841,0.43335,
-1.52893,0.431824,
-1.5625,0.439453,
-1.59454,0.427246,
-1.62354,0.42572,
-1.6571,0.431824,
-1.6861,0.431824,
-1.71509,0.436401,
-1.74713,0.427246,
-1.77765,0.428772,
-1.81122,0.434875,
-1.84631,0.43335,
-1.87836,0.434875,
-1.91345,0.427246,
-1.9455,0.431824,
-1.97906,0.427246,
-2.00958,0.431824,
-2.04163,0.434875,
-2.07062,0.428772,
-2.10876,0.428772,
-2.13623,0.431824,
-2.17133,0.428772,
-2.2049,0.43335,
-2.23694,0.42572,
-2.2644,0.431824,
-2.30103,0.428772,
-2.33002,0.428772,
-2.35748,0.431824,
-2.38342,0.428772,
-2.41089,0.427246,
-2.43378,0.43335,
-2.45667,0.431824,
-2.48108,0.43335,
-2.50397,0.436401,
-2.52228,0.42572,
-2.54059,0.43335,
-2.56348,0.43335,
-2.58179,0.43335,
-2.60162,0.43335,
-2.62299,0.42572,
-2.6413,0.43335,
-2.65808,0.43335,
-2.67639,0.43335,
-2.69318,0.43335,
-2.70996,0.424194,
-2.72827,0.431824,
-2.74353,0.428772,
-2.76184,0.434875,
-2.78168,0.43335,
-2.79846,0.42572,
-2.81219,0.431824,
-2.82898,0.428772,
-2.84882,0.427246,
-2.86255,0.431824,
-2.88086,0.427246,
-2.89459,0.427246,
-2.90527,0.428772,
-2.91443,0.431824,
-2.91595,0.427246,
-2.91138,0.424194,
-2.90375,0.431824,
-2.87933,0.427246,
-2.84424,0.43335,
-2.79236,0.427246,
-2.73438,0.42572,
-2.66571,0.431824,
-2.58636,0.428772,
-2.49786,0.43335,
-2.40173,0.424194,
-2.30255,0.427246,
-2.19879,0.42572,
-2.09198,0.42572,
-1.97754,0.431824,
-1.86615,0.427246,
-1.75018,0.427246,
-1.63422,0.427246,
-1.51672,0.428772,
-1.40076,0.43335,
-1.28632,0.428772,
-1.17493,0.42572,
-1.06506,0.427246,
-0.961304,0.427246,
-0.85907,0.428772,
-0.765991,0.427246,
-0.674438,0.42572,
-0.592041,0.427246,
-0.517273,0.42572,
-0.448608,0.43335,
-0.387573,0.431824,
-0.334167,0.42572,
-0.285339,0.428772,
-0.25177,0.431824,
-0.22583,0.428772,
-0.202942,0.427246,
-0.187683,0.424194,
-0.184631,0.431824,
-0.18158,0.427246,
-0.187683,0.431824,
-0.195313,0.421143,
-0.212097,0.424194,
-0.233459,0.427246,
-0.256348,0.42572,
-0.27771,0.43335,
-0.311279,0.427246,
-0.341797,0.424194,
-0.37384,0.427246,
-0.411987,0.427246,
-0.448608,0.43335,
-0.489807,0.428772,
-0.527954,0.428772,
-0.570679,0.427246,
-0.617981,0.42572,
-0.665283,0.431824,
-0.715637,0.42572,
-0.761414,0.424194,
-0.80719,0.42572,
-0.856018,0.428772,
-0.904846,0.428772,
-0.949097,0.427246,
-0.98877,0.42572,
-1.02997,0.427246,
-1.07422,0.428772,
-1.10626,0.427246,
-1.14136,0.424194,
-1.1673,0.422668,
-1.19324,0.42572,
-1.21155,0.424194,
-1.22986,0.42572,
-1.24969,0.428772,
-1.25885,0.421143,
-1.27106,0.427246,
-1.27716,0.427246,
-1.28021,0.428772,
-1.27869,0.424194,
-1.27716,0.421143,
-1.27563,0.42572,
-1.26495,0.42572,
-1.2558,0.427246,
-1.24512,0.422668,
-1.23291,0.422668,
-1.22223,0.427246,
-1.2146,0.427246,
-1.20239,0.428772,
-1.19476,0.422668,
-1.18408,0.424194,
-1.17798,0.42572,
-1.17188,0.427246,
-1.17035,0.427246,
-1.16577,0.42572,
-1.16577,0.422668,
-1.17035,0.42572,
-1.1734,0.42572,
-1.17645,0.427246,
-1.18256,0.422668,
-1.19171,0.421143,
-1.19781,0.424194,
-1.21307,0.427246,
-1.22833,0.427246,
-1.24359,0.42572,
-1.26343,0.424194,
-1.28326,0.424194,
-1.30157,0.428772,
-1.32599,0.431824,
-1.35193,0.422668,
-1.38397,0.421143,
-1.40839,0.424194,
-1.43585,0.427246,
-1.46637,0.428772,
-1.49384,0.42572,
-1.5213,0.421143,
-1.55792,0.42572,
-1.59454,0.431824,
-1.63116,0.427246,
-1.66931,0.427246,
-1.70898,0.421143,
-1.74103,0.424194,
-1.77307,0.427246,
-1.81122,0.427246,
-1.84479,0.422668,
-1.87836,0.421143,
-1.91498,0.427246,
-1.94855,0.427246,
-1.98212,0.42572,
-2.01263,0.424194,
-2.04315,0.418091,
-2.07672,0.42572,
-2.10876,0.427246,
-2.13623,0.42572,
-2.1637,0.421143,
-2.19574,0.424194,
-2.22626,0.422668,
-2.25372,0.427246,
-2.28424,0.428772,
-2.31323,0.424194,
-2.33917,0.418091,
-2.36206,0.422668,
-2.388,0.427246,
-2.41699,0.427246,
-2.43835,0.424194,
-2.46582,0.419617,
-2.48566,0.422668,
-2.50702,0.428772,
-2.53296,0.42572,
-2.55432,0.42572,
-2.57263,0.422668,
-2.59399,0.42572,
-2.60773,0.428772,
-2.62604,0.428772,
-2.64282,0.427246,
-2.65656,0.421143,
-2.67181,0.424194,
-2.69318,0.431824,
-2.70844,0.42572,
-2.72522,0.424194,
-2.74353,0.421143,
-2.76031,0.421143,
-2.77863,0.427246,
-2.79541,0.427246,
-2.80914,0.422668,
-2.82288,0.422668,
-2.83966,0.422668,
-2.85187,0.427246,
-2.86713,0.427246,
-2.88696,0.424194,
-2.90375,0.418091,
-2.92511,0.421143,
-2.94189,0.42572,
-2.96173,0.427246,
-2.97546,0.422668,
-2.99683,0.421143,
-3.01208,0.424194,
-3.02734,0.42572,
-3.03955,0.42572,
-3.04565,0.422668,
-3.06396,0.422668,
-3.07617,0.422668,
-3.08228,0.42572,
-3.08838,0.42572,
-3.0899,0.422668,
-3.0777,0.421143,
-3.05634,0.424194,
-3.01819,0.428772,
-2.96631,0.424194,
-2.90375,0.424194,
-2.83508,0.422668,
-2.75269,0.421143,
-2.67029,0.427246,
-2.57416,0.424194,
-2.47955,0.421143,
-2.37579,0.424194,
-2.2644,0.424194,
-2.15759,0.42572,
-2.0462,0.424194,
-1.93787,0.424194,
-1.82495,0.419617,
-1.70898,0.421143,
-1.59454,0.427246,
-1.48621,0.424194,
-1.37939,0.421143,
-1.27106,0.422668,
-1.17493,0.421143,
-1.08185,0.42572,
-0.993347,0.428772,
-0.909424,0.422668,
-0.831604,0.422668,
-0.761414,0.422668,
-0.700378,0.42572,
-0.643921,0.42572,
-0.59967,0.421143,
-0.561523,0.421143,
-0.52948,0.42572,
-0.505066,0.42572,
-0.492859,0.424194,
-0.485229,0.422668,
-0.479126,0.419617,
-0.476074,0.422668,
-0.486755,0.431824,
-0.498962,0.42572,
-0.514221,0.424194,
-0.535583,0.419617,
-0.559998,0.422668,
-0.58136,0.427246,
-0.611877,0.428772,
-0.637817,0.422668,
-0.668335,0.421143,
-0.70343,0.424194,
-0.741577,0.42572,
-0.784302,0.427246,
-0.820923,0.422668,
-0.866699,0.419617,
-0.907898,0.422668,
-0.950623,0.42572,
-0.994873,0.427246,
-1.0437,0.418091,
-1.08643,0.418091,
-1.13373,0.42572,
-1.17645,0.427246,
-1.2207,0.42572,
-1.2619,0.421143,
-1.30463,0.418091,
-1.34583,0.421143,
-1.37787,0.42572,
-1.40533,0.42572,
-1.4328,0.421143,
-1.45569,0.421143,
-1.47247,0.422668,
-1.48773,0.42572,
-1.49231,0.42572,
-1.49994,0.419617,
-1.50604,0.418091,
-1.50452,0.422668,
-1.50604,0.42572,
-1.50452,0.427246,
-1.50146,0.419617,
-1.49536,0.421143,
-1.49231,0.422668,
-1.47705,0.42572,
-1.4679,0.42572,
-1.45569,0.418091,
-1.44958,0.419617,
-1.4389,0.421143,
-1.42212,0.427246,
-1.40839,0.427246,
-1.39923,0.416565,
-1.39008,0.418091,
-1.37939,0.421143,
-1.37329,0.427246,
-1.36719,0.424194,
-1.36261,0.419617,
-1.36261,0.418091,
-1.36566,0.421143,
-1.36871,0.42572,
-1.37329,0.42572,
-1.38397,0.422668,
-1.39313,0.421143,
-1.40686,0.422668,
-1.42212,0.424194,
-1.43127,0.42572,
-1.44958,0.424194,
-1.47095,0.416565,
-1.48926,0.421143,
-1.5152,0.427246,
-1.54114,0.427246,
-1.5686,0.421143,
-1.5976,0.418091,
-1.62811,0.422668,
-1.66016,0.428772,
-1.69373,0.428772,
-1.72882,0.419617,
-1.76086,0.416565,
-1.79291,0.424194,
-1.82648,0.428772,
-1.85852,0.42572,
-1.88904,0.416565,
-1.92871,0.418091,
-1.95618,0.424194,
-1.98975,0.42572,
-2.02026,0.427246,
-2.05078,0.418091,
-2.08588,0.415039,
-2.11639,0.421143,
-2.14844,0.42572,
-2.18201,0.424194,
-2.211,0.418091,
-2.24304,0.418091,
-2.27203,0.422668,
-2.29797,0.424194,
-2.32697,0.424194,
-2.35443,0.421143,
-2.38342,0.416565,
-2.41089,0.419617,
-2.43225,0.427246,
-2.45819,0.421143,
-2.48108,0.416565,
-2.50549,0.419617,
-2.52838,0.421143,
-2.55432,0.424194,
-2.57416,0.424194,
-2.6001,0.419617,
-2.61993,0.421143,
-2.64435,0.419617,
-2.66571,0.42572,
-2.69165,0.42572,
-2.70844,0.419617,
-2.7359,0.421143,
-2.75269,0.421143,
-2.771,0.431824,
-2.79236,0.424194,
-2.80457,0.418091,
-2.82135,0.418091,
-2.83661,0.421143,
-2.85492,0.427246,
-2.8717,0.424194,
-2.88391,0.421143,
-2.90375,0.418091,
-2.91901,0.421143,
-2.93732,0.42572,
-2.95258,0.42572,
-2.96936,0.422668,
-2.98462,0.418091,
-3.00293,0.424194,
-3.01514,0.42572,
-3.03192,0.427246,
-3.05023,0.419617,
-3.06854,0.419617,
-3.08075,0.42572,
-3.09906,0.424194,
-3.11584,0.424194,
-3.13416,0.421143,
-3.15094,0.413513,
-3.1662,0.422668,
-3.17688,0.428772,
-3.18298,0.422668,
-3.18909,0.419617,
-3.18604,0.416565,
-3.18146,0.421143,
-3.1662,0.42572,
-3.13568,0.422668,
-3.09601,0.419617,
-3.03802,0.418091,
-2.97089,0.421143,
-2.89459,0.42572,
-2.81219,0.421143,
-2.71912,0.419617,
-2.61993,0.419617,
-2.51617,0.42572,
-2.40479,0.42572,
-2.29034,0.424194,
-2.18048,0.418091,
-2.07062,0.415039,
-1.95618,0.424194,
-1.83868,0.42572,
-1.72729,0.424194,
-1.61285,0.418091,
-1.49994,0.416565,
-1.39618,0.422668,
-1.29242,0.42572,
-1.19171,0.424194,
-1.091,0.422668,
-1.0025,0.418091,
-0.917053,0.424194,
-0.840759,0.42572,
-0.767517,0.422668,
-0.71106,0.42572,
-0.657654,0.416565,
-0.613403,0.42572,
-0.57373,0.424194,
-0.547791,0.421143,
-0.524902,0.422668,
-0.505066,0.415039,
-0.494385,0.424194,
-0.488281,0.427246,
-0.489807,0.424194,
-0.497437,0.422668,
-0.511169,0.419617,
-0.531006,0.422668,
-0.558472,0.427246,
-0.58136,0.422668,
-0.614929,0.421143,
-0.646973,0.421143,
-0.686646,0.424194,
-0.726318,0.424194,
-0.765991,0.424194,
-0.810242,0.422668,
-0.849915,0.415039,
-0.895691,0.424194,
-0.938416,0.42572,
-0.987244,0.421143,
-1.03912,0.422668,
-1.09406,0.416565,
-1.14899,0.419617,
-1.20239,0.42572,
-1.25427,0.42572,
-1.30463,0.424194,
-1.35498,0.418091,
-1.40381,0.421143,
-1.44806,0.422668,
-1.48468,0.42572,
-1.52283,0.422668,
-1.55792,0.418091,
-1.58997,0.422668,
-1.6098,0.42572,
-1.63269,0.421143,
-1.64795,0.419617,
-1.66321,0.418091,
-1.66626,0.421143,
-1.66931,0.42572,
-1.67236,0.422668,
-1.67389,0.422668,
-1.66931,0.418091,
-1.66931,0.422668,
-1.65863,0.42572,
-1.64642,0.424194,
-1.64185,0.418091,
-1.63116,0.416565,
-1.62048,0.421143,
-1.6098,0.428772,
-1.5976,0.42572,
-1.57928,0.421143,
-1.57471,0.415039,
-1.57166,0.42572,
-1.5625,0.42572,
-1.55334,0.427246,
-1.55182,0.424194,
-1.54572,0.418091,
-1.54266,0.42572,
-1.54266,0.42572,
-1.55029,0.42572,
-1.5564,0.422668,
-1.56403,0.413513,
-1.57776,0.424194,
-1.58691,0.428772,
-1.60065,0.424194,
-1.61438,0.42572,
-1.63116,0.415039,
-1.65253,0.422668,
-1.67236,0.42572,
-1.69373,0.422668,
-1.72119,0.422668,
-1.74408,0.413513,
-1.77307,0.422668,
-1.79901,0.424194,
-1.828,0.421143,
-1.86005,0.422668,
-1.88904,0.413513,
-1.91803,0.422668,
-1.95618,0.424194,
-1.98975,0.42572,
-2.01569,0.422668,
-2.05536,0.415039,
-2.0874,0.421143,
-2.12097,0.424194,
-2.15149,0.422668,
-2.18353,0.422668,
-2.21558,0.416565,
-2.24915,0.422668,
-2.28271,0.424194,
-2.31628,0.422668,
-2.34833,0.421143,
-2.3819,0.415039,
-2.41699,0.421143,
-2.45056,0.42572,
-2.48566,0.42572,
-2.51617,0.418091,
-2.54669,0.413513,
-2.57721,0.424194,
-2.6062,0.424194,
-2.63824,0.421143,
-2.67029,0.419617,
-2.6947,0.415039,
-2.72369,0.422668,
-2.75421,0.424194,
-2.7771,0.422668,
-2.79846,0.419617,
-2.8244,0.411987,
-2.84729,0.421143,
-2.86713,0.422668,
-2.88544,0.421143,
-2.90375,0.421143,
-2.92358,0.415039,
-2.94037,0.422668,
-2.95563,0.422668,
-2.97546,0.422668,
-2.99683,0.421143,
-3.01208,0.415039,
-3.0304,0.421143,
-3.04871,0.422668,
-3.06854,0.424194,
-3.08228,0.424194,
-3.10211,0.415039,
-3.11584,0.419617,
-3.13416,0.424194,
-3.14941,0.422668,
-3.16772,0.418091,
-3.18146,0.416565,
-3.19672,0.422668,
-3.2135,0.422668,
-3.23334,0.422668,
-3.24554,0.424194,
-3.26233,0.415039,
-3.28064,0.419617,
-3.29285,0.424194,
-3.30658,0.422668,
-3.31573,0.418091,
-3.33252,0.410461,
-3.33862,0.418091,
-3.35541,0.421143,
-3.36456,0.421143,
-3.37524,0.421143,
-3.3844,0.416565,
-3.38745,0.421143,
-3.38135,0.421143,
-3.36456,0.424194,
-3.3371,0.422668,
-3.29285,0.410461,
-3.23792,0.419617,
-3.16162,0.422668,
-3.08075,0.42572,
-2.98767,0.418091,
-2.89001,0.413513,
-2.77863,0.421143,
-2.66724,0.421143,
-2.55432,0.421143,
-2.43225,0.419617,
-2.31628,0.413513,
-2.19727,0.419617,
-2.0752,0.419617,
-1.9577,0.421143,
-1.83716,0.419617,
-1.71814,0.413513,
-1.60065,0.419617,
-1.48773,0.421143,
-1.37329,0.422668,
-1.26801,0.419617,
-1.17035,0.413513,
-1.07422,0.422668,
-0.984192,0.421143,
-0.90332,0.424194,
-0.828552,0.419617,
-0.761414,0.415039,
-0.70343,0.419617,
-0.650024,0.422668,
-0.608826,0.419617,
-0.567627,0.416565,
-0.537109,0.416565,
-0.514221,0.419617,
-0.495911,0.421143,
-0.485229,0.422668,
-0.480652,0.418091,
-0.480652,0.413513,
-0.495911,0.42572,
-0.505066,0.421143,
-0.517273,0.419617,
-0.538635,0.419617,
-0.559998,0.411987,
-0.590515,0.422668,
-0.610352,0.422668,
-0.639343,0.419617,
-0.668335,0.416565,
-0.70343,0.413513,
-0.740051,0.419617,
-0.78125,0.419617,
-0.814819,0.418091,
-0.856018,0.416565,
-0.891113,0.410461,
-0.93689,0.424194,
-0.978088,0.418091,
-1.02234,0.418091,
-1.06506,0.411987,
-1.11237,0.411987,
-1.15356,0.419617,
-1.19781,0.422668,
-1.24359,0.419617,
-1.28479,0.415039,
-1.32141,0.416565,
-1.35498,0.416565,
-1.38397,0.422668,
-1.41144,0.418091,
-1.43585,0.411987,
-1.45721,0.411987,
-1.47705,0.416565,
-1.49536,0.418091,
-1.50757,0.416565,
-1.51672,0.415039,
-1.5274,0.408936,
-1.53503,0.418091,
-1.54114,0.421143,
-1.53961,0.416565,
-1.53961,0.413513,
-1.53656,0.413513,
-1.52893,0.416565,
-1.52283,0.422668,
-1.51215,0.416565,
-1.50604,0.410461,
-1.49231,0.413513,
-1.49078,0.415039,
-1.48468,0.418091,
-1.47552,0.421143,
-1.46637,0.415039,
-1.46027,0.411987,
-1.45569,0.415039,
-1.45111,0.419617,
-1.44958,0.415039,
-1.44653,0.410461,
-1.45111,0.415039,
-1.45416,0.416565,
-1.46179,0.416565,
-1.4679,0.418091,
-1.4801,0.413513,
-1.49078,0.413513,
-1.50299,0.418091,
-1.51978,0.418091,
-1.53656,0.416565,
-1.55945,0.411987,
-1.58081,0.413513,
-1.6037,0.416565,
-1.63116,0.418091,
-1.66168,0.421143,
-1.69067,0.408936,
-1.72272,0.415039,
-1.75781,0.416565,
-1.79291,0.422668,
-1.82648,0.421143,
-1.85547,0.411987,
-1.89056,0.411987,
-1.92719,0.415039,
-1.95923,0.421143,
-1.99585,0.418091,
-2.03094,0.408936,
-2.06757,0.411987,
-2.10419,0.418091,
-2.14081,0.421143,
-2.17285,0.418091,
-2.20795,0.411987,
-2.24152,0.413513,
-2.27814,0.418091,
-2.30713,0.421143,
-2.3407,0.418091,
-2.36664,0.410461,
-2.39868,0.411987,
-2.42767,0.415039,
-2.45667,0.418091,
-2.49329,0.416565,
-2.5238,0.408936,
-2.55127,0.413513,
-2.57568,0.416565,
-2.60468,0.418091,
-2.63062,0.413513,
-2.66113,0.408936,
-2.6886,0.416565,
-2.70844,0.413513,
-2.73285,0.419617,
-2.75879,0.415039,
-2.7832,0.411987,
-2.79846,0.413513,
-2.82288,0.415039,
-2.84271,0.415039,
-2.86255,0.415039,
-2.88239,0.413513,
-2.90527,0.411987,
-2.92664,0.418091,
-2.93732,0.416565,
-2.95563,0.415039,
-2.97241,0.411987,
-2.98462,0.408936,
-3.00293,0.416565,
-3.01666,0.418091,
-3.03497,0.415039,
-3.04871,0.413513,
-3.07159,0.408936,
-3.08838,0.415039,
-3.10822,0.419617,
-3.12195,0.419617,
-3.14178,0.411987,
-3.15704,0.411987,
-3.1723,0.416565,
-3.18604,0.418091,
-3.20282,0.415039,
-3.2196,0.411987,
-3.23029,0.411987,
-3.2486,0.415039,
-3.26538,0.421143,
-3.28217,0.413513,
-3.29742,0.413513,
-3.30811,0.411987,
-3.32336,0.415039,
-3.34015,0.419617,
-3.35083,0.416565,
-3.35693,0.413513,
-3.35693,0.413513,
-3.35236,0.416565,
-3.33252,0.418091,
-3.302,0.415039,
-3.25317,0.413513,
-3.19672,0.410461,
-3.12347,0.416565,
-3.0426,0.419617,
-2.95258,0.416565,
-2.85034,0.410461,
-2.74811,0.411987,
-2.63977,0.413513,
-2.52991,0.416565,
-2.41241,0.415039,
-2.2995,0.411987,
-2.18353,0.410461,
-2.06604,0.410461,
-1.9516,0.416565,
-1.83258,0.411987,
-1.72272,0.411987,
-1.60828,0.411987,
-1.49994,0.416565,
-1.39313,0.418091,
-1.28937,0.415039,
-1.19324,0.413513,
-1.10321,0.410461,
-1.01318,0.413513,
-0.938416,0.418091,
-0.869751,0.413513,
-0.804138,0.413513,
-0.752258,0.410461,
-0.709534,0.413513,
-0.669861,0.419617,
-0.643921,0.415039,
-0.616455,0.411987,
-0.593567,0.410461,
-0.587463,0.411987,
-0.585938,0.416565,
-0.585938,0.413513,
-0.590515,0.410461,
-0.602722,0.410461,
-0.622559,0.413513,
-0.642395,0.419617,
-0.668335,0.413513,
-0.695801,0.416565,
-0.730896,0.410461,
-0.75531,0.415039,
-0.790405,0.418091,
-0.827026,0.415039,
-0.863647,0.415039,
-0.900269,0.411987,
-0.938416,0.410461,
-0.982666,0.421143,
-1.02081,0.418091,
-1.06201,0.416565,
-1.11237,0.411987,
-1.15662,0.410461,
-1.2085,0.421143,
-1.25732,0.415039,
-1.30157,0.413513,
-1.3443,0.413513,
-1.39008,0.408936,
-1.43127,0.416565,
-1.47095,0.415039,
-1.50757,0.415039,
-1.54266,0.411987,
-1.5686,0.40741,
-1.59454,0.416565,
-1.61438,0.413513,
-1.63422,0.413513,
-1.64795,0.415039,
-1.66016,0.410461,
-1.66779,0.415039,
-1.67236,0.418091,
-1.67236,0.415039,
-1.67236,0.413513,
-1.66779,0.410461,
-1.66626,0.416565,
-1.66016,0.416565,
-1.65253,0.415039,
-1.64185,0.413513,
-1.63574,0.410461,
-1.62506,0.413513,
-1.61743,0.415039,
-1.59912,0.415039,
-1.58997,0.410461,
-1.58691,0.410461,
-1.58081,0.415039,
-1.57471,0.416565,
-1.5686,0.413513,
-1.5686,0.411987,
-1.56708,0.408936,
-1.56403,0.415039,
-1.57013,0.416565,
-1.57013,0.415039,
-1.58081,0.410461,
-1.58691,0.410461,
-1.59454,0.418091,
-1.6098,0.410461,
-1.61896,0.413513,
-1.63574,0.415039,
-1.64795,0.411987,
-1.66626,0.416565,
-1.69067,0.415039,
-1.70593,0.415039,
-1.73187,0.410461,
-1.75781,0.415039,
-1.7807,0.416565,
-1.80969,0.413513,
-1.83716,0.415039,
-1.8692,0.411987,
-1.89667,0.410461,
-1.93481,0.418091,
-1.96991,0.413513,
-2.00653,0.411987,
-2.03705,0.410461,
-2.07062,0.410461,
-2.10571,0.415039,
-2.14386,0.416565,
-2.17896,0.411987,
-2.21405,0.413513,
-2.2522,0.408936,
-2.28577,0.413513,
-2.32086,0.415039,
-2.35748,0.415039,
-2.39258,0.413513,
-2.42462,0.410461,
-2.46277,0.410461,
-2.49786,0.416565,
-2.52838,0.415039,
-2.5589,0.411987,
-2.58942,0.410461,
-2.62146,0.408936,
-2.65045,0.415039,
-2.68402,0.411987,
-2.70844,0.411987,
-2.73743,0.411987,
-2.76337,0.411987,
-2.78778,0.415039,
-2.81372,0.415039,
-2.83661,0.413513,
-2.86102,0.410461,
-2.88086,0.413513,
-2.90222,0.415039,
-2.92816,0.415039,
-2.948,0.410461,
-2.96783,0.408936,
-2.98462,0.410461,
-2.99835,0.418091,
-3.01666,0.415039,
-3.03345,0.416565,
-3.04871,0.408936,
-3.06396,0.418091,
-3.07922,0.415039,
-3.09906,0.415039,
-3.11279,0.411987,
-3.12805,0.410461,
-3.14331,0.418091,
-3.1601,0.416565,
-3.17688,0.415039,
-3.19061,0.413513,
-3.21045,0.410461,
-3.22571,0.415039,
-3.24249,0.411987,
-3.2608,0.413513,
-3.27301,0.413513,
-3.28522,0.411987,
-3.29742,0.415039,
-3.31268,0.416565,
-3.32947,0.418091,
-3.34778,0.415039,
-3.36609,0.410461,
-3.38287,0.419617,
-3.40271,0.415039,
-3.41797,0.415039,
-3.43475,0.413513,
-3.45001,0.410461,
-3.46222,0.413513,
-3.47443,0.418091,
-3.48053,0.413513,
-3.47748,0.413513,
-3.46375,0.413513,
-3.44543,0.413513,
-3.41034,0.415039,
-3.35846,0.415039,
-3.2959,0.415039,
-3.22418,0.410461,
-3.14026,0.411987,
-3.0426,0.415039,
-2.94189,0.416565,
-2.83508,0.413513,
-2.73285,0.411987,
-2.62604,0.415039,
-2.5116,0.413513,
-2.39716,0.411987,
-2.28882,0.413513,
-2.17743,0.408936,
-2.06757,0.415039,
-1.9577,0.415039,
-1.85089,0.413513,
-1.74255,0.410461,
-1.64185,0.410461,
-1.54266,0.415039,
-1.45111,0.415039,
-1.36414,0.415039,
-1.28174,0.413513,
-1.20544,0.410461,
-1.12915,0.411987,
-1.06812,0.415039,
-1.00708,0.413513,
-0.953674,0.410461,
-0.907898,0.408936,
-0.872803,0.419617,
-0.839233,0.416565,
-0.816345,0.415039,
-0.802612,0.415039,
-0.790405,0.408936,
-0.790405,0.416565,
-0.796509,0.416565,
-0.811768,0.415039,
-0.828552,0.413513,
-0.849915,0.408936,
-0.87738,0.413513,
-0.907898,0.418091,
-0.944519,0.411987,
-0.973511,0.411987,
-1.01471,0.410461,
-1.05591,0.415039,
-1.09711,0.418091,
-1.14288,0.415039,
-1.18713,0.411987,
-1.23138,0.410461,
-1.28021,0.416565,
-1.32599,0.416565,
-1.37024,0.415039,
-1.42365,0.411987,
-1.47247,0.408936,
-1.52435,0.415039,
-1.57166,0.413513,
-1.62201,0.415039,
-1.67084,0.410461,
-1.71509,0.408936,
-1.75934,0.416565,
-1.80054,0.415039,
-1.83563,0.415039,
-1.86615,0.411987,
-1.89362,0.410461,
-1.91345,0.413513,
-1.93024,0.416565,
-1.93939,0.411987,
-1.94397,0.411987,
-1.9455,0.40741,
-1.94702,0.416565,
-1.94397,0.416565,
-1.93634,0.416565,
-1.93024,0.411987,
-1.9165,0.408936,
-1.90277,0.410461,
-1.88904,0.415039,
-1.87378,0.413513,
-1.85547,0.408936,
-1.84174,0.408936,
-1.82953,0.413513,
-1.80817,0.413513,
-1.79901,0.413513,
-1.78528,0.411987,
-1.77307,0.410461,
-1.76697,0.411987,
-1.76086,0.416565,
-1.75629,0.411987,
-1.75171,0.408936,
-1.74713,0.40741,
-1.74713,0.411987,
-1.75171,0.415039,
-1.75781,0.415039,
-1.76239,0.404358,
-1.77002,0.411987,
-1.77917,0.413513,
-1.79443,0.418091,
-1.80664,0.416565,
-1.82953,0.408936,
-1.84784,0.40741,
-1.86462,0.413513,
-1.88446,0.415039,
-1.9104,0.413513,
-1.93634,0.40741,
-1.96381,0.408936,
-1.9928,0.411987,
-2.02332,0.416565,
-2.05231,0.415039,
-2.08588,0.408936,
-2.11792,0.40741,
-2.15149,0.413513,
-2.18506,0.415039,
-2.22015,0.416565,
-2.25983,0.405884,
-2.29492,0.410461,
-2.33307,0.411987,
-2.37427,0.416565,
-2.41241,0.415039,
-2.44904,0.405884,
-2.48413,0.410461,
-2.5177,0.411987,
-2.55585,0.415039,
-2.58636,0.415039,
-2.61993,0.410461,
-2.65198,0.40741,
-2.68402,0.411987,
-2.70996,0.413513,
-2.7359,0.415039,
-2.76337,0.408936,
-2.79083,0.408936,
-2.8183,0.411987,
-2.84729,0.415039,
-2.87628,0.411987,
-2.90375,0.410461,
-2.92816,0.410461,
-2.95563,0.411987,
-2.97852,0.413513,
-3.00446,0.416565,
-3.01971,0.410461,
-3.04413,0.408936,
-3.06396,0.413513,
-3.08533,0.415039,
-3.10364,0.411987,
-3.125,0.410461,
-3.14636,0.40741,
-3.16467,0.413513,
-3.18451,0.411987,
-3.20435,0.415039,
-3.2196,0.410461,
-3.24097,0.408936,
-3.25775,0.415039,
-3.27301,0.413513,
-3.28827,0.410461,
-3.31116,0.411987,
-3.32489,0.410461,
-3.34778,0.415039,
-3.36456,0.415039,
-3.3783,0.413513,
-3.39355,0.405884,
-3.40576,0.408936,
-3.42102,0.413513,
-3.43475,0.415039,
-3.45154,0.416565,
-3.46375,0.40741,
-3.48358,0.405884,
-3.49884,0.415039,
-3.51563,0.411987,
-3.53394,0.415039,
-3.54919,0.408936,
-3.56293,0.40741,
-3.57361,0.411987,
-3.59192,0.415039,
-3.59802,0.411987,
-3.60565,0.408936,
-3.6087,0.40741,
-3.59955,0.415039,
-3.58429,0.413513,
-3.55225,0.415039,
-3.49884,0.40741,
-3.44086,0.408936,
-3.36304,0.415039,
-3.27759,0.413513,
-3.17535,0.415039,
-3.07007,0.404358,
-2.95258,0.408936,
-2.83356,0.411987,
-2.71149,0.413513,
-2.59094,0.411987,
-2.46429,0.410461,
-2.34222,0.40741,
-2.21863,0.411987,
-2.09656,0.416565,
-1.97906,0.415039,
-1.86157,0.40741,
-1.75018,0.40741,
-1.63879,0.416565,
-1.52893,0.410461,
-1.42517,0.410461,
-1.32446,0.404358,
-1.23749,0.405884,
-1.15051,0.415039,
-1.06812,0.416565,
-0.999451,0.410461,
-0.930786,0.405884,
-0.872803,0.405884,
-0.822449,0.415039,
-0.776672,0.410461,
-0.744629,0.410461,
-0.720215,0.40741,
-0.695801,0.404358,
-0.682068,0.415039,
-0.67749,0.411987,
-0.680542,0.411987,
-0.683594,0.405884,
-0.698853,0.405884,
-0.712585,0.413513,
-0.732422,0.413513,
-0.759888,0.413513,
-0.787354,0.404358,
-0.817871,0.404358,
-0.856018,0.415039,
-0.892639,0.410461,
-0.933838,0.410461,
-0.971985,0.40741,
-1.01013,0.402832,
-1.05286,0.413513,
-1.09558,0.411987,
-1.14136,0.410461,
-1.18408,0.405884,
-1.23138,0.401306,
-1.28021,0.415039,
-1.32751,0.415039,
-1.37482,0.410461,
-1.4267,0.40741,
-1.47095,0.40741,
-1.5152,0.413513,
-1.56097,0.411987,
-1.5976,0.411987,
-1.63727,0.405884,
-1.67084,0.40741,
-1.70288,0.418091,
-1.73035,0.413513,
-1.75018,0.411987,
-1.77155,0.404358,
-1.78375,0.402832,
-1.79596,0.415039,
-1.80359,0.415039,
-1.80664,0.411987,
-1.81122,0.404358,
-1.81427,0.405884,
-1.80969,0.411987,
-1.80511,0.413513,
-1.80054,0.410461,
-1.79291,0.405884,
-1.7807,0.405884,
-1.77002,0.415039,
-1.75629,0.413513,
-1.74103,0.410461,
-1.72882,0.40741,
-1.71356,0.408936,
-1.69525,0.413513,
-1.6861,0.413513,
-1.67542,0.411987,
-1.66626,0.405884,
-1.65863,0.40741,
-1.65405,0.411987,
-1.64948,0.410461,
-1.64642,0.410461,
-1.64948,0.404358,
-1.65405,0.405884,
-1.66321,0.411987,
-1.67389,0.410461,
-1.68915,0.408936,
-1.70135,0.404358,
-1.71509,0.402832,
-1.73187,0.413513,
-1.75171,0.411987,
-1.77002,0.410461,
-1.79901,0.405884,
-1.82495,0.40741,
-1.85242,0.411987,
-1.88141,0.415039,
-1.91498,0.40741,
-1.95007,0.401306,
-1.98517,0.404358,
-2.02332,0.410461,
-2.05536,0.413513,
-2.09351,0.40741,
-2.13013,0.402832,
-2.16827,0.405884,
-2.20337,0.413513,
-2.24304,0.413513,
-2.27814,0.40741,
-2.31323,0.404358,
-2.34833,0.40741,
-2.38495,0.410461,
-2.41547,0.411987,
-2.45209,0.408936,
-2.48413,0.405884,
-2.5177,0.405884,
-2.54974,0.411987,
-2.58789,0.413513,
-2.61688,0.404358,
-2.65198,0.40741,
-2.68707,0.404358,
-2.71454,0.411987,
-2.74811,0.411987,
-2.77405,0.408936,
-2.80762,0.404358,
-2.83813,0.404358,
-2.86713,0.408936,
-2.89459,0.410461,
-2.91748,0.405884,
-2.94037,0.402832,
-2.96631,0.404358,
-2.9892,0.413513,
-3.01514,0.408936,
-3.03497,0.40741,
-3.05328,0.402832,
-3.07159,0.40741,
-3.09143,0.405884,
-3.10822,0.411987,
-3.12653,0.405884,
-3.14331,0.404358,
-3.15552,0.404358,
-3.17383,0.408936,
-3.18451,0.410461,
-3.19977,0.405884,
-3.2135,0.404358,
-3.22418,0.408936,
-3.23944,0.410461,
-3.25012,0.410461,
-3.26233,0.405884,
-3.27606,0.402832,
-3.28674,0.405884,
-3.302,0.410461,
-3.31421,0.411987,
-3.32947,0.404358,
-3.34167,0.402832,
-3.35846,0.404358,
-3.37067,0.408936,
-3.38287,0.410461,
-3.39813,0.405884,
-3.41187,0.402832,
-3.4317,0.404358,
-3.44543,0.40741,
-3.46222,0.411987,
-3.46985,0.408936,
-3.48511,0.404358,
-3.49579,0.402832,
-3.50342,0.408936,
-3.5141,0.411987,
-3.5141,0.404358,
-3.50952,0.401306,
-3.49884,0.405884,
-3.47595,0.410461,
-3.43323,0.411987,
-3.37982,0.408936,
-3.30963,0.404358,
-3.22266,0.404358,
-3.12653,0.40741,
-3.02734,0.411987,
-2.9129,0.404358,
-2.79694,0.404358,
-2.67792,0.401306,
-2.55585,0.405884,
-2.43683,0.411987,
-2.31934,0.404358,
-2.19421,0.404358,
-2.0752,0.405884,
-1.9577,0.40741,
-1.83868,0.410461,
-1.72272,0.405884,
-1.60675,0.404358,
-1.50146,0.405884,
-1.39618,0.404358,
-1.297,0.410461,
-1.19781,0.405884,
-1.11389,0.402832,
-1.02997,0.402832,
-0.958252,0.40741,
-0.891113,0.408936,
-0.828552,0.405884,
-0.773621,0.402832,
-0.724792,0.396729,
-0.689697,0.408936,
-0.650024,0.410461,
-0.628662,0.402832,
-0.613403,0.404358,
-0.59967,0.39978,
-0.598145,0.40741,
-0.601196,0.410461,
-0.6073,0.402832,
-0.624084,0.404358,
-0.639343,0.39978,
-0.665283,0.40741,
-0.689697,0.411987,
-0.715637,0.402832,
-0.750732,0.402832,
-0.785828,0.396729,
-0.817871,0.40741,
-0.852966,0.413513,
-0.892639,0.405884,
-0.938416,0.401306,
-0.979614,0.402832,
-1.02844,0.410461,
-1.07422,0.410461,
-1.12152,0.405884,
-1.1673,0.404358,
-1.2146,0.402832,
-1.25885,0.405884,
-1.30463,0.408936,
-1.35193,0.404358,
-1.39923,0.402832,
-1.44043,0.402832,
-1.48773,0.405884,
-1.53046,0.411987,
-1.56708,0.40741,
-1.60522,0.396729,
-1.63574,0.39978,
-1.66626,0.404358,
-1.68915,0.410461,
-1.70898,0.408936,
-1.72424,0.401306,
-1.73645,0.39978,
-1.74408,0.408936,
-1.74713,0.408936,
-1.74866,0.405884,
-1.75171,0.404358,
-1.74561,0.402832,
-1.73645,0.40741,
-1.72729,0.411987,
-1.71661,0.404358,
-1.70441,0.402832,
-1.69678,0.401306,
-1.69067,0.40741,
-1.67236,0.410461,
-1.66779,0.40741,
-1.65558,0.402832,
-1.64337,0.404358,
-1.64032,0.405884,
-1.63116,0.411987,
-1.62964,0.404358,
-1.62506,0.402832,
-1.62354,0.39978,
-1.62354,0.40741,
-1.62201,0.410461,
-1.62659,0.40741,
-1.63574,0.401306,
-1.64185,0.396729,
-1.65405,0.40741,
-1.66321,0.408936,
-1.67847,0.405884,
-1.69525,0.401306,
-1.71204,0.401306,
-1.7334,0.404358,
-1.75171,0.411987,
-1.7746,0.404358,
-1.80511,0.404358,
-1.83411,0.401306,
-1.8631,0.405884,
-1.88446,0.408936,
-1.9165,0.40741,
-1.94855,0.39978,
-1.98517,0.404358,
-2.02484,0.404358,
-2.06757,0.413513,
-2.10876,0.40741,
-2.14996,0.39978,
-2.18964,0.401306,
-2.22626,0.40741,
-2.26593,0.410461,
-2.30255,0.404358,
-2.33917,0.404358,
-2.37732,0.404358,
-2.41394,0.405884,
-2.44751,0.408936,
-2.4826,0.405884,
-2.5177,0.402832,
-2.54974,0.401306,
-2.58179,0.40741,
-2.6123,0.408936,
-2.63977,0.404358,
-2.66876,0.405884,
-2.69623,0.39978,
-2.72369,0.410461,
-2.74811,0.405884,
-2.77863,0.402832,
-2.80609,0.405884,
-2.83203,0.402832,
-2.85645,0.405884,
-2.88544,0.408936,
-2.9068,0.402832,
-2.93121,0.405884,
-2.95563,0.402832,
-2.98004,0.405884,
-2.99988,0.413513,
-3.01819,0.404358,
-3.03955,0.402832,
-3.05939,0.402832,
-3.08228,0.40741,
-3.10059,0.408936,
-3.12042,0.402832,
-3.14178,0.404358,
-3.15857,0.404358,
-3.17383,0.408936,
-3.19061,0.410461,
-3.20587,0.404358,
-3.22266,0.39978,
-3.23944,0.404358,
-3.25775,0.40741,
-3.27606,0.411987,
-3.28827,0.402832,
-3.30505,0.401306,
-3.31879,0.402832,
-3.33252,0.408936,
-3.35388,0.410461,
-3.36761,0.402832,
-3.38593,0.401306,
-3.40118,0.402832,
-3.42102,0.410461,
-3.43475,0.408936,
-3.45154,0.404358,
-3.46527,0.401306,
-3.48358,0.404358,
-3.50037,0.408936,
-3.5141,0.40741,
-3.53088,0.402832,
-3.55377,0.404358,
-3.57056,0.405884,
-3.58582,0.410461,
-3.59497,0.411987,
-3.59497,0.404358,
-3.5965,0.404358,
-3.58582,0.401306,
-3.56598,0.40741,
-3.53241,0.40741,
-3.479,0.405884,
-3.41797,0.404358,
-3.3432,0.401306,
-3.25317,0.408936,
-3.14789,0.408936,
-3.03955,0.404358,
-2.92816,0.401306,
-2.80609,0.405884,
-2.69012,0.408936,
-2.56653,0.411987,
-2.44598,0.405884,
-2.31934,0.402832,
-2.19879,0.402832,
-2.07672,0.411987,
-1.9577,0.411987,
-1.84479,0.40741,
-1.73035,0.405884,
-1.62201,0.404358,
-1.5213,0.408936,
-1.42059,0.40741,
-1.32751,0.404358,
-1.24359,0.402832,
-1.16272,0.402832,
-1.09253,0.408936,
-1.02844,0.408936,
-0.971985,0.404358,
-0.924683,0.402832,
-0.88501,0.402832,
-0.846863,0.410461,
-0.819397,0.404358,
-0.801086,0.40741,
-0.784302,0.404358,
-0.779724,0.404358,
-0.778198,0.411987,
-0.784302,0.40741,
-0.794983,0.404358,
-0.804138,0.404358,
-0.820923,0.402832,
-0.840759,0.408936,
-0.866699,0.40741,
-0.897217,0.405884,
-0.932312,0.404358,
-0.970459,0.404358,
-1.00861,0.411987,
-1.04523,0.410461,
-1.08795,0.408936,
-1.12915,0.402832,
-1.17493,0.404358,
-1.22223,0.413513,
-1.26648,0.408936,
-1.31683,0.40741,
-1.36414,0.404358,
-1.41754,0.402832,
-1.46484,0.411987,
-1.5152,0.40741,
-1.56708,0.404358,
-1.61133,0.402832,
-1.66168,0.404358,
-1.70441,0.411987,
-1.74561,0.405884,
-1.78223,0.405884,
-1.81732,0.39978,
-1.84784,0.405884,
-1.87225,0.411987,
-1.89362,0.40741,
-1.91193,0.405884,
-1.92871,0.402832,
-1.93939,0.402832,
-1.94397,0.410461,
-1.94397,0.408936,
-1.93939,0.404358,
-1.93329,0.404358,
-1.92413,0.404358,
-1.91345,0.408936,
-1.90125,0.410461,
-1.88751,0.404358,
-1.87531,0.402832,
-1.86462,0.402832,
-1.84937,0.411987,
-1.83563,0.411987,
-1.82495,0.404358,
-1.80817,0.405884,
-1.80054,0.404358,
-1.7868,0.411987,
-1.7746,0.408936,
-1.76697,0.402832,
-1.75629,0.404358,
-1.74713,0.401306,
-1.74103,0.410461,
-1.73798,0.40741,
-1.74255,0.40741,
-1.74255,0.404358,
-1.74866,0.404358,
-1.75781,0.413513,
-1.77155,0.408936,
-1.78375,0.404358,
-1.79901,0.40741,
-1.8158,0.405884,
-1.83258,0.410461,
-1.85547,0.408936,
-1.87988,0.40741,
-1.90582,0.401306,
-1.93176,0.404358,
-1.9577,0.405884,
-1.98822,0.405884,
-2.02026,0.405884,
-2.0462,0.404358,
-2.07672,0.402832,
-2.11029,0.40741,
-2.14233,0.40741,
-2.17438,0.405884,
-2.20947,0.402832,
-2.24457,0.404358,
-2.27966,0.408936,
-2.31476,0.40741,
-2.35138,0.405884,
-2.3819,0.405884,
-2.42004,0.404358,
-2.45361,0.408936,
-2.48566,0.40741,
-2.51923,0.404358,
-2.55585,0.39978,
-2.59399,0.405884,
-2.62451,0.408936,
-2.6535,0.40741,
-2.69165,0.40741,
-2.72217,0.401306,
-2.75421,0.402832,
-2.78168,0.405884,
-2.81219,0.408936,
-2.84119,0.404358,
-2.87018,0.402832,
-2.89764,0.402832,
-2.92511,0.408936,
-2.94952,0.40741,
