-2.76337,0.498962,
-2.771,0.498962,
-2.78168,0.509644,
-2.79236,0.502014,
-2.79846,0.506592,
-2.80762,0.502014,
-2.8183,0.500488,
-2.83051,0.508118,
-2.84119,0.506592,
-2.85187,0.50354,
-2.8656,0.500488,
-2.87628,0.500488,
-2.89001,0.509644,
-2.89917,0.508118,
-2.91138,0.505066,
-2.91901,0.506592,
-2.92511,0.495911,
-2.93274,0.508118,
-2.94189,0.505066,
-2.948,0.505066,
-2.95258,0.502014,
-2.95868,0.502014,
-2.96478,0.505066,
-2.96478,0.506592,
-2.96631,0.506592,
-2.96631,0.500488,
-2.95868,0.502014,
-2.95105,0.505066,
-2.94037,0.506592,
-2.92511,0.506592,
-2.90985,0.502014,
-2.87933,0.502014,
-2.8595,0.509644,
-2.83203,0.506592,
-2.80151,0.505066,
-2.76794,0.502014,
-2.73132,0.500488,
-2.69623,0.50354,
-2.65503,0.506592,
-2.61536,0.50354,
-2.57568,0.505066,
-2.53906,0.500488,
-2.49939,0.509644,
-2.46124,0.505066,
-2.42767,0.505066,
-2.3941,0.502014,
-2.36053,0.498962,
-2.33154,0.508118,
-2.2995,0.505066,
-2.27203,0.505066,
-2.24609,0.50354,
-2.22015,0.498962,
-2.19574,0.508118,
-2.17438,0.508118,
-2.15912,0.50354,
-2.14539,0.50354,
-2.12708,0.498962,
-2.11792,0.508118,
-2.10876,0.506592,
-2.09961,0.506592,
-2.08893,0.50354,
-2.08282,0.502014,
-2.0752,0.506592,
-2.07367,0.508118,
-2.07367,0.505066,
-2.07062,0.500488,
-2.07214,0.498962,
-2.07062,0.506592,
-2.07214,0.50354,
-2.0752,0.505066,
-2.0752,0.50354,
-2.07367,0.500488,
-2.07825,0.505066,
-2.08282,0.508118,
-2.0874,0.50354,
-2.08893,0.50354,
-2.09198,0.500488,
-2.09198,0.506592,
-2.09656,0.506592,
-2.10266,0.505066,
-2.10571,0.500488,
-2.11334,0.498962,
-2.11792,0.506592,
-2.12097,0.506592,
-2.12097,0.50354,
-2.13318,0.50354,
-2.1347,0.502014,
-2.13776,0.509644,
-2.13776,0.505066,
-2.14233,0.506592,
-2.14081,0.50354,
-2.14539,0.495911,
-2.14996,0.505066,
-2.14996,0.506592,
-2.15759,0.505066,
-2.15607,0.500488,
-2.15759,0.502014,
-2.15759,0.506592,
-2.16217,0.505066,
-2.15912,0.506592,
-2.15912,0.502014,
-2.15607,0.498962,
-2.15454,0.50354,
-2.14844,0.50354,
-2.14386,0.505066,
-2.14386,0.50354,
-2.14233,0.500488,
-2.13776,0.505066,
-2.1347,0.506592,
-2.1286,0.50354,
-2.13318,0.498962,
-2.1286,0.502014,
-2.1347,0.50354,
-2.1347,0.50354,
-2.13623,0.506592,
-2.13776,0.50354,
-2.14539,0.495911,
-2.14844,0.506592,
-2.15302,0.506592,
-2.1637,0.50354,
-2.16827,0.500488,
-2.1759,0.498962,
-2.18506,0.506592,
-2.18964,0.506592,
-2.20184,0.505066,
-2.20642,0.502014,
-2.21252,0.495911,
-2.22321,0.505066,
-2.23694,0.506592,
-2.24457,0.506592,
-2.2583,0.502014,
-2.26593,0.50354,
-2.27966,0.506592,
-2.28729,0.506592,
-2.30103,0.502014,
-2.31476,0.498962,
-2.32849,0.500488,
-2.34222,0.509644,
-2.35596,0.508118,
-2.36359,0.506592,
-2.37427,0.500488,
-2.38495,0.498962,
-2.39716,0.506592,
-2.40631,0.506592,
-2.42462,0.505066,
-2.43683,0.502014,
-2.44904,0.500488,
-2.46429,0.506592,
-2.47498,0.505066,
-2.48718,0.506592,
-2.50092,0.500488,
-2.5116,0.500488,
-2.52075,0.506592,
-2.52838,0.508118,
-2.53906,0.506592,
-2.55127,0.500488,
-2.56348,0.500488,
-2.57721,0.506592,
-2.58484,0.506592,
-2.6001,0.505066,
-2.61078,0.502014,
-2.62604,0.502014,
-2.63367,0.506592,
-2.64587,0.502014,
-2.65808,0.505066,
-2.66571,0.502014,
-2.67639,0.498962,
-2.68555,0.506592,
-2.69165,0.502014,
-2.70081,0.505066,
-2.70844,0.50354,
-2.71912,0.500488,
-2.72522,0.506592,
-2.73132,0.506592,
-2.742,0.505066,
-2.74963,0.498962,
-2.76794,0.502014,
-2.77863,0.508118,
-2.79388,0.505066,
-2.80914,0.508118,
-2.8183,0.502014,
-2.83356,0.502014,
-2.84882,0.505066,
-2.85797,0.506592,
-2.86713,0.505066,
-2.87781,0.502014,
-2.88391,0.498962,
-2.89459,0.506592,
-2.9007,0.506592,
-2.90833,0.509644,
-2.91443,0.502014,
-2.91748,0.500488,
-2.91595,0.505066,
-2.91138,0.506592,
-2.89764,0.506592,
-2.89001,0.502014,
-2.86865,0.498962,
-2.84882,0.506592,
-2.82593,0.508118,
-2.79694,0.505066,
-2.77252,0.505066,
-2.74048,0.50354,
-2.70691,0.508118,
-2.67029,0.508118,
-2.63672,0.506592,
-2.59857,0.505066,
-2.55432,0.498962,
-2.51617,0.506592,
-2.47803,0.505066,
-2.43683,0.508118,
-2.39716,0.498962,
-2.36206,0.500488,
-2.32086,0.509644,
-2.27966,0.505066,
-2.24304,0.506592,
-2.21252,0.502014,
-2.1759,0.502014,
-2.14386,0.505066,
-2.11945,0.505066,
-2.09351,0.506592,
-2.0752,0.50354,
-2.05383,0.502014,
-2.0401,0.508118,
-2.02484,0.505066,
-2.00958,0.505066,
-2.00348,0.50354,
-1.9989,0.50354,
-1.99585,0.506592,
-1.98517,0.505066,
-1.98364,0.506592,
-1.98212,0.502014,
-1.98364,0.500488,
-1.98059,0.508118,
-1.98517,0.508118,
-1.98822,0.508118,
-1.9928,0.498962,
-2.00348,0.50354,
-2.01263,0.508118,
-2.02332,0.505066,
-2.03552,0.50354,
-2.04468,0.495911,
-2.05536,0.502014,
-2.06757,0.506592,
-2.08282,0.508118,
-2.09351,0.508118,
-2.11029,0.500488,
-2.13013,0.50354,
-2.14233,0.506592,
-2.15454,0.505066,
-2.16827,0.506592,
-2.18353,0.500488,
-2.19116,0.502014,
-2.20184,0.508118,
-2.21252,0.508118,
-2.22015,0.506592,
-2.22931,0.498962,
-2.23236,0.498962,
-2.24152,0.508118,
-2.24609,0.506592,
-2.2522,0.506592,
-2.25677,0.498962,
-2.25525,0.498962,
-2.25677,0.508118,
-2.2522,0.508118,
-2.25372,0.506592,
-2.2522,0.502014,
-2.25372,0.502014,
-2.24609,0.509644,
-2.24457,0.50354,
-2.23846,0.508118,
-2.22931,0.505066,
-2.22473,0.502014,
-2.22168,0.509644,
-2.22321,0.506592,
-2.22168,0.508118,
-2.22015,0.495911,
-2.21863,0.498962,
-2.21558,0.511169,
-2.21558,0.505066,
-2.21405,0.509644,
-2.21558,0.505066,
-2.21405,0.502014,
-2.21863,0.506592,
-2.22168,0.505066,
-2.22473,0.508118,
-2.22931,0.500488,
-2.23846,0.498962,
-2.24152,0.506592,
-2.24762,0.506592,
-2.25525,0.505066,
-2.25677,0.502014,
-2.2644,0.495911,
-2.27661,0.508118,
-2.28271,0.50354,
-2.28882,0.506592,
-2.29797,0.498962,
-2.31018,0.498962,
-2.31934,0.506592,
-2.33002,0.508118,
-2.3407,0.505066,
-2.35443,0.495911,
-2.36664,0.502014,
-2.37885,0.505066,
-2.388,0.50354,
-2.39716,0.505066,
-2.40631,0.500488,
-2.42004,0.500488,
-2.42767,0.508118,
-2.43988,0.506592,
-2.45361,0.506592,
-2.46887,0.505066,
-2.48108,0.498962,
-2.49786,0.508118,
-2.51465,0.505066,
-2.53296,0.505066,
-2.54822,0.498962,
-2.56348,0.498962,
-2.57721,0.508118,
-2.59399,0.50354,
-2.60925,0.506592,
-2.62146,0.502014,
-2.63214,0.498962,
-2.64587,0.508118,
-2.66266,0.50354,
-2.67944,0.505066,
-2.69318,0.494385,
-2.70691,0.495911,
-2.72217,0.505066,
-2.73743,0.502014,
-2.75269,0.505066,
-2.76794,0.498962,
-2.7771,0.500488,
-2.78931,0.508118,
-2.79846,0.502014,
-2.80609,0.508118,
-2.81219,0.495911,
-2.82288,0.502014,
-2.83203,0.505066,
-2.83661,0.50354,
-2.84729,0.508118,
-2.85645,0.498962,
-2.86255,0.50354,
-2.87476,0.506592,
-2.88544,0.508118,
-2.89459,0.505066,
-2.9007,0.498962,
-2.90985,0.492859,
-2.91748,0.505066,
-2.92969,0.502014,
-2.94037,0.50354,
-2.948,0.495911,
-2.95105,0.500488,
-2.95868,0.50354,
-2.96631,0.50354,
-2.97089,0.508118,
-2.97852,0.495911,
-2.98615,0.495911,
-2.99072,0.505066,
-2.9892,0.505066,
-2.99377,0.506592,
-2.9892,0.494385,
-2.99683,0.494385,
-2.98767,0.506592,
-2.97852,0.505066,
-2.97089,0.50354,
-2.95868,0.494385,
-2.94037,0.494385,
-2.91595,0.505066,
-2.89459,0.502014,
-2.86713,0.50354,
-2.83813,0.498962,
-2.81067,0.495911,
-2.78168,0.505066,
-2.74506,0.505066,
-2.70996,0.50354,
-2.67334,0.494385,
-2.63824,0.495911,
-2.59552,0.50354,
-2.5589,0.502014,
-2.51923,0.505066,
-2.48413,0.500488,
-2.44446,0.495911,
-2.40936,0.50354,
-2.37122,0.502014,
-2.33612,0.50354,
-2.29492,0.498962,
-2.25983,0.494385,
-2.22931,0.50354,
-2.20337,0.502014,
-2.18201,0.50354,
-2.15607,0.500488,
-2.13013,0.500488,
-2.11639,0.502014,
-2.09961,0.50354,
-2.08435,0.502014,
-2.07977,0.492859,
-2.06604,0.491333,
-2.06451,0.505066,
-2.05688,0.502014,
-2.06146,0.50354,
-2.06757,0.494385,
-2.07367,0.498962,
-2.08282,0.502014,
-2.0874,0.506592,
-2.09198,0.50354,
-2.09961,0.495911,
-2.10724,0.492859,
-2.11029,0.50354,
-2.1225,0.502014,
-2.13318,0.502014,
-2.14691,0.495911,
-2.15302,0.494385,
-2.1698,0.505066,
-2.18048,0.502014,
-2.18964,0.505066,
-2.2049,0.494385,
-2.2171,0.494385,
-2.23083,0.502014,
-2.24457,0.502014,
-2.26135,0.498962,
-2.27966,0.494385,
-2.28424,0.494385,
-2.29034,0.50354,
-2.29797,0.50354,
-2.30713,0.498962,
-2.31628,0.491333,
-2.32239,0.495911,
-2.33307,0.50354,
-2.3407,0.502014,
-2.34833,0.50354,
-2.35138,0.495911,
-2.34833,0.494385,
-2.35138,0.502014,
-2.34985,0.50354,
-2.35138,0.498962,
-2.35443,0.489807,
-2.35291,0.492859,
-2.35138,0.500488,
-2.34985,0.498962,
-2.3468,0.502014,
-2.34222,0.494385,
-2.3407,0.498962,
-2.3407,0.502014,
-2.33612,0.502014,
-2.33459,0.500488,
-2.33612,0.492859,
-2.33002,0.495911,
-2.32697,0.500488,
-2.32239,0.50354,
-2.32544,0.502014,
-2.32239,0.498962,
-2.32239,0.492859,
-2.31934,0.505066,
-2.31781,0.500488,
-2.31323,0.502014,
-2.31934,0.498962,
-2.31934,0.498962,
-2.32544,0.50354,
-2.33307,0.50354,
-2.33612,0.50354,
-2.3407,0.492859,
-2.3468,0.495911,
-2.35138,0.502014,
-2.35901,0.505066,
-2.36664,0.502014,
-2.37427,0.492859,
-2.38495,0.495911,
-2.39563,0.502014,
-2.40173,0.498962,
-2.41241,0.500488,
-2.42157,0.491333,
-2.43073,0.495911,
-2.44446,0.500488,
-2.45209,0.50354,
-2.46429,0.500488,
-2.47803,0.494385,
-2.49329,0.494385,
-2.50244,0.500488,
-2.51465,0.505066,
-2.52533,0.495911,
-2.53296,0.491333,
-2.54364,0.494385,
-2.5528,0.506592,
-2.565,0.509644,
-2.57263,0.494385,
-2.58026,0.491333,
-2.58636,0.495911,
-2.59857,0.50354,
-2.60468,0.505066,
-2.61536,0.498962,
-2.63062,0.492859,
-2.63977,0.494385,
-2.65656,0.502014,
-2.67029,0.50354,
-2.68555,0.498962,
-2.69623,0.492859,
-2.70844,0.494385,
-2.72217,0.502014,
-2.73285,0.50354,
-2.74506,0.498962,
-2.75421,0.492859,
-2.76947,0.495911,
-2.77252,0.502014,
-2.78015,0.505066,
-2.78931,0.494385,
-2.79999,0.494385,
-2.80457,0.494385,
-2.81677,0.495911,
-2.82745,0.505066,
-2.83661,0.495911,
-2.84729,0.495911,
-2.86102,0.495911,
-2.8717,0.502014,
-2.87933,0.506592,
-2.89001,0.495911,
-2.89612,0.495911,
-2.9068,0.492859,
-2.90985,0.500488,
-2.91901,0.50354,
-2.92969,0.498962,
-2.93732,0.492859,
-2.94952,0.494385,
-2.96173,0.498962,
-2.96631,0.505066,
-2.97241,0.492859,
-2.98157,0.494385,
-2.99377,0.492859,
-2.99988,0.500488,
-3.00751,0.505066,
-3.01056,0.498962,
-3.01361,0.495911,
-3.01056,0.494385,
-3.00903,0.498962,
-3.00293,0.506592,
-2.99072,0.500488,
-2.97546,0.491333,
-2.9541,0.495911,
-2.93274,0.502014,
-2.90222,0.508118,
-2.87476,0.495911,
-2.84424,0.489807,
-2.80762,0.494385,
-2.77252,0.505066,
-2.7359,0.508118,
-2.70081,0.500488,
-2.66571,0.492859,
-2.63062,0.494385,
-2.59552,0.498962,
-2.55432,0.508118,
-2.52075,0.495911,
-2.48566,0.494385,
-2.45056,0.491333,
-2.41547,0.498962,
-2.38495,0.505066,
-2.35291,0.502014,
-2.31781,0.498962,
-2.29187,0.494385,
-2.2644,0.498962,
-2.23694,0.505066,
-2.21558,0.502014,
-2.19574,0.498962,
-2.17896,0.494385,
-2.1698,0.500488,
-2.15759,0.50354,
-2.14844,0.495911,
-2.14081,0.495911,
-2.13623,0.495911,
-2.13013,0.500488,
-2.13013,0.506592,
-2.1347,0.498962,
-2.13776,0.498962,
-2.14233,0.495911,
-2.15149,0.500488,
-2.1637,0.505066,
-2.17438,0.498962,
-2.18964,0.494385,
-2.20337,0.494385,
-2.20795,0.500488,
-2.22321,0.506592,
-2.24304,0.50354,
-2.25677,0.494385,
-2.27509,0.495911,
-2.29034,0.498962,
-2.30865,0.506592,
-2.32697,0.500488,
-2.34375,0.494385,
-2.36053,0.495911,
-2.37885,0.498962,
-2.39716,0.509644,
-2.41241,0.495911,
-2.4292,0.498962,
-2.43988,0.492859,
-2.45667,0.500488,
-2.46735,0.509644,
-2.47955,0.50354,
-2.48566,0.492859,
-2.49176,0.500488,
-2.49481,0.498962,
-2.50092,0.511169,
-2.50854,0.50354,
-2.5116,0.494385,
-2.5177,0.494385,
-2.51617,0.502014,
-2.51617,0.509644,
-2.52075,0.502014,
-2.51923,0.492859,
-2.51923,0.495911,
-2.52075,0.502014,
-2.51923,0.514221,
-2.51923,0.500488,
-2.51465,0.498962,
-2.51617,0.498962,
-2.5116,0.50354,
-2.50702,0.509644,
-2.50702,0.494385,
-2.50702,0.495911,
-2.50092,0.495911,
-2.50092,0.50354,
-2.49786,0.505066,
-2.49634,0.50354,
-2.49786,0.500488,
-2.49634,0.494385,
-2.49634,0.502014,
-2.49481,0.511169,
-2.49786,0.502014,
-2.49939,0.498962,
-2.50244,0.498962,
-2.50397,0.502014,
-2.50854,0.508118,
-2.5116,0.502014,
-2.51465,0.500488,
-2.5177,0.498962,
-2.52228,0.498962,
-2.52686,0.506592,
-2.53296,0.50354,
-2.53906,0.495911,
-2.54364,0.502014,
-2.54669,0.498962,
-2.55585,0.508118,
-2.5589,0.50354,
-2.565,0.500488,
-2.57263,0.498962,
-2.57721,0.505066,
-2.58789,0.509644,
-2.59857,0.498962,
-2.61078,0.500488,
-2.62299,0.502014,
-2.63519,0.506592,
-2.64282,0.512695,
-2.65198,0.502014,
-2.66571,0.498962,
-2.68097,0.500488,
-2.69318,0.50354,
-2.70386,0.509644,
-2.71149,0.500488,
-2.72217,0.500488,
-2.73132,0.502014,
-2.74353,0.506592,
-2.75421,0.508118,
-2.76489,0.505066,
-2.77252,0.502014,
-2.78778,0.498962,
-2.80151,0.505066,
-2.81372,0.509644,
-2.82745,0.502014,
-2.83966,0.502014,
-2.85187,0.498962,
-2.86713,0.509644,
-2.88239,0.511169,
-2.89307,0.502014,
-2.90985,0.50354,
-2.92816,0.500488,
-2.94037,0.506592,
-2.95258,0.509644,
-2.96631,0.50354,
-2.98157,0.505066,
-2.99377,0.502014,
-3.01056,0.508118,
-3.02277,0.509644,
-3.03345,0.508118,
-3.04413,0.505066,
-3.05481,0.50354,
-3.06702,0.508118,
-3.07617,0.511169,
-3.08228,0.506592,
-3.09143,0.50354,
-3.10059,0.50354,
-3.10669,0.508118,
-3.11432,0.508118,
-3.12347,0.505066,
-3.13263,0.509644,
-3.13873,0.50354,
-3.14484,0.509644,
-3.15399,0.512695,
-3.15857,0.50354,
-3.15857,0.506592,
-3.16467,0.506592,
-3.16467,0.511169,
-3.1601,0.509644,
-3.15094,0.505066,
-3.14178,0.505066,
-3.1311,0.502014,
-3.11737,0.512695,
-3.09906,0.512695,
-3.07617,0.505066,
-3.04413,0.505066,
-3.01208,0.508118,
-2.97699,0.511169,
-2.93732,0.515747,
-2.9068,0.505066,
-2.86407,0.502014,
-2.8244,0.505066,
-2.78168,0.508118,
-2.73895,0.515747,
-2.70081,0.502014,
-2.66113,0.505066,
-2.63062,0.506592,
-2.59247,0.511169,
-2.5528,0.515747,
-2.52228,0.505066,
-2.48566,0.50354,
-2.45514,0.506592,
-2.4231,0.508118,
-2.39716,0.515747,
-2.37579,0.505066,
-2.35138,0.508118,
-2.32697,0.506592,
-2.31171,0.511169,
-2.29645,0.512695,
-2.28424,0.500488,
-2.27814,0.505066,
-2.27203,0.50354,
-2.27051,0.511169,
-2.26593,0.512695,
-2.26593,0.506592,
-2.2644,0.505066,
-2.26746,0.505066,
-2.27203,0.515747,
-2.27661,0.511169,
-2.27814,0.506592,
-2.28729,0.508118,
-2.29187,0.50354,
-2.30103,0.512695,
-2.31018,0.512695,
-2.31934,0.506592,
-2.32849,0.505066,
-2.33917,0.509644,
-2.35138,0.514221,
-2.36053,0.512695,
-2.36969,0.50354,
-2.37885,0.506592,
-2.3941,0.506592,
-2.41089,0.511169,
-2.41699,0.511169,
-2.42615,0.505066,
-2.43683,0.508118,
-2.44293,0.508118,
-2.45209,0.517273,
-2.45819,0.512695,
-2.46582,0.506592,
-2.47192,0.506592,
-2.48566,0.506592,
-2.49634,0.514221,
-2.50549,0.515747,
-2.5116,0.506592,
-2.51617,0.509644,
-2.52228,0.508118,
-2.53296,0.514221,
-2.53448,0.514221,
-2.53754,0.505066,
-2.53906,0.508118,
-2.54059,0.508118,
-2.54364,0.515747,
-2.54669,0.518799,
-2.54669,0.506592,
-2.54974,0.509644,
-2.54211,0.508118,
-2.54364,0.515747,
-2.54822,0.514221,
-2.54669,0.511169,
-2.5528,0.509644,
-2.54822,0.514221,
-2.5528,0.518799,
-2.54669,0.515747,
-2.54364,0.509644,
-2.54059,0.509644,
-2.53754,0.508118,
-2.53754,0.515747,
-2.53143,0.514221,
-2.52991,0.511169,
-2.52991,0.511169,
-2.53143,0.509644,
-2.53448,0.518799,
-2.53601,0.512695,
-2.54059,0.509644,
-2.54059,0.511169,
-2.54211,0.509644,
-2.54364,0.515747,
-2.54822,0.515747,
-2.55432,0.509644,
-2.55737,0.511169,
-2.56042,0.508118,
-2.56653,0.517273,
-2.57568,0.514221,
-2.58484,0.511169,
-2.58942,0.508118,
-2.59552,0.511169,
-2.60315,0.517273,
-2.6123,0.514221,
-2.62146,0.508118,
-2.63214,0.511169,
-2.63977,0.509644,
-2.64893,0.517273,
-2.65808,0.515747,
-2.67029,0.509644,
-2.67944,0.512695,
-2.69165,0.509644,
-2.70233,0.517273,
-2.71149,0.512695,
-2.72217,0.509644,
-2.73132,0.511169,
-2.74048,0.509644,
-2.74811,0.520325,
-2.75574,0.515747,
-2.76337,0.508118,
-2.77405,0.509644,
-2.78168,0.512695,
-2.79541,0.521851,
-2.80304,0.515747,
-2.81219,0.509644,
-2.82135,0.508118,
-2.82898,0.511169,
-2.83966,0.518799,
-2.84882,0.515747,
-2.85645,0.508118,
-2.86255,0.508118,
-2.8717,0.511169,
-2.87781,0.520325,
-2.88544,0.514221,
-2.89154,0.512695,
-2.89917,0.508118,
-2.9068,0.511169,
-2.91138,0.520325,
-2.91901,0.518799,
-2.92816,0.511169,
-2.93732,0.508118,
-2.95105,0.511169,
-2.96326,0.520325,
-2.97699,0.518799,
-2.98767,0.512695,
-3.0014,0.508118,
-3.00751,0.509644,
-3.01666,0.517273,
-3.02277,0.514221,
-3.0304,0.509644,
-3.0426,0.506592,
-3.04871,0.512695,
-3.05634,0.521851,
-3.06549,0.515747,
-3.07159,0.512695,
-3.07617,0.511169,
-3.08228,0.509644,
-3.0838,0.520325,
-3.08838,0.517273,
-3.08533,0.509644,
-3.08075,0.509644,
-3.07159,0.512695,
-3.05939,0.520325,
-3.04718,0.514221,
-3.02887,0.514221,
-3.00751,0.515747,
-2.98004,0.511169,
-2.9541,0.520325,
-2.92511,0.515747,
-2.89459,0.512695,
-2.8595,0.511169,
-2.82593,0.511169,
-2.79541,0.520325,
-2.76184,0.515747,
-2.72522,0.512695,
-2.69012,0.509644,
-2.6535,0.509644,
-2.61688,0.517273,
-2.58636,0.518799,
-2.55127,0.509644,
-2.52228,0.511169,
-2.49329,0.511169,
-2.46582,0.520325,
-2.44446,0.518799,
-2.4231,0.509644,
-2.39868,0.514221,
-2.38037,0.517273,
-2.36816,0.520325,
-2.35748,0.514221,
-2.3468,0.512695,
-2.34375,0.512695,
-2.33459,0.514221,
-2.33002,0.518799,
-2.33154,0.515747,
-2.33154,0.512695,
-2.33307,0.514221,
-2.33307,0.512695,
-2.33612,0.518799,
-2.34222,0.517273,
-2.35138,0.512695,
-2.35443,0.514221,
-2.35596,0.511169,
-2.36359,0.518799,
-2.36664,0.518799,
-2.37427,0.514221,
-2.38647,0.514221,
-2.39258,0.511169,
-2.40021,0.520325,
-2.40631,0.515747,
-2.41852,0.512695,
-2.42462,0.515747,
-2.43225,0.512695,
-2.44904,0.518799,
-2.45514,0.517273,
-2.46887,0.514221,
-2.4826,0.514221,
-2.48871,0.511169,
-2.49786,0.521851,
-2.49939,0.515747,
-2.50702,0.511169,
-2.51617,0.512695,
-2.5238,0.512695,
-2.53143,0.517273,
-2.53601,0.515747,
-2.53906,0.511169,
-2.54211,0.514221,
-2.54974,0.514221,
-2.54822,0.517273,
-2.54669,0.517273,
-2.54364,0.514221,
-2.54669,0.509644,
-2.54669,0.512695,
-2.54974,0.517273,
-2.54974,0.518799,
-2.54822,0.514221,
-2.54364,0.512695,
-2.54059,0.509644,
-2.54059,0.517273,
-2.53601,0.515747,
-2.53601,0.512695,
-2.53296,0.514221,
-2.53601,0.509644,
-2.53601,0.518799,
-2.53448,0.517273,
-2.53448,0.514221,
-2.53448,0.511169,
-2.53143,0.511169,
-2.53296,0.518799,
-2.53143,0.517273,
-2.53448,0.512695,
-2.53906,0.512695,
-2.54364,0.511169,
-2.53906,0.517273,
-2.53906,0.518799,
-2.54059,0.512695,
-2.54822,0.511169,
-2.5528,0.509644,
-2.55737,0.518799,
-2.56348,0.515747,
-2.57111,0.514221,
-2.57721,0.514221,
-2.58484,0.509644,
-2.59247,0.520325,
-2.59705,0.517273,
-2.60468,0.515747,
-2.60925,0.514221,
-2.62146,0.511169,
-2.63062,0.515747,
-2.63977,0.520325,
-2.65045,0.514221,
-2.66113,0.508118,
-2.66571,0.514221,
-2.67639,0.520325,
-2.6886,0.515747,
-2.69623,0.515747,
-2.70233,0.511169,
-2.71301,0.514221,
-2.72217,0.520325,
-2.72827,0.515747,
-2.73895,0.515747,
-2.74811,0.514221,
-2.76031,0.511169,
-2.771,0.517273,
-2.77863,0.517273,
-2.78778,0.515747,
-2.79541,0.512695,
-2.80304,0.511169,
-2.80914,0.518799,
-2.82288,0.517273,
-2.83051,0.517273,
-2.83966,0.509644,
-2.84576,0.511169,
-2.85797,0.518799,
-2.87323,0.518799,
-2.88086,0.515747,
-2.89459,0.509644,
-2.9068,0.508118,
-2.91595,0.518799,
-2.91901,0.517273,
-2.92816,0.514221,
-2.93884,0.511169,
-2.94495,0.511169,
-2.94952,0.515747,
-2.95563,0.518799,
-2.96478,0.515747,
-2.97241,0.511169,
-2.97546,0.514221,
-2.98309,0.514221,
-2.99072,0.517273,
-2.99835,0.515747,
-3.00446,0.511169,
-3.01514,0.512695,
-3.02429,0.517273,
-3.0304,0.520325,
-3.03345,0.515747,
-3.03955,0.512695,
-3.04871,0.509644,
-3.05634,0.515747,
-3.06396,0.514221,
-3.06549,0.514221,
-3.06854,0.514221,
-3.06854,0.508118,
-3.06854,0.518799,
-3.06396,0.517273,
-3.05939,0.517273,
-3.04871,0.512695,
-3.03497,0.511169,
-3.01819,0.517273,
-2.99988,0.512695,
-2.97546,0.514221,
-2.948,0.509644,
-2.91595,0.512695,
-2.88239,0.517273,
-2.85797,0.515747,
-2.82135,0.517273,
-2.79083,0.512695,
-2.75879,0.511169,
-2.72827,0.515747,
-2.6947,0.517273,
-2.66571,0.517273,
-2.63977,0.512695,
-2.61078,0.511169,
-2.58789,0.517273,
-2.56195,0.518799,
-2.53906,0.517273,
-2.51312,0.511169,
-2.49023,0.512695,
-2.46582,0.517273,
-2.44904,0.518799,
-2.43073,0.518799,
-2.42157,0.511169,
-2.40479,0.509644,
-2.40021,0.518799,
-2.3941,0.517273,
-2.38953,0.518799,
-2.38495,0.512695,
-2.38342,0.509644,
-2.38647,0.515747,
-2.388,0.512695,
-2.38647,0.514221,
-2.39105,0.512695,
-2.39258,0.508118,
-2.3941,0.517273,
-2.40173,0.517273,
-2.41241,0.517273,
-2.42004,0.511169,
-2.42615,0.509644,
-2.4353,0.518799,
-2.45056,0.515747,
-2.46124,0.515747,
-2.47192,0.509644,
-2.48566,0.506592,
-2.49481,0.517273,
-2.50702,0.517273,
-2.5177,0.520325,
-2.52838,0.509644,
-2.54364,0.508118,
-2.55737,0.512695,
-2.57263,0.515747,
-2.58331,0.517273,
-2.59705,0.512695,
-2.60773,0.509644,
-2.61841,0.515747,
-2.62604,0.514221,
-2.63214,0.517273,
-2.63672,0.509644,
-2.64587,0.508118,
-2.65198,0.511169,
-2.6535,0.514221,
-2.65198,0.518799,
-2.65656,0.512695,
-2.65961,0.506592,
-2.66266,0.514221,
-2.66724,0.515747,
-2.66113,0.518799,
-2.65808,0.511169,
-2.65656,0.511169,
-2.65198,0.512695,
-2.64587,0.512695,
-2.6413,0.515747,
-2.63672,0.511169,
-2.62909,0.512695,
-2.61993,0.514221,
-2.6123,0.512695,
-2.6062,0.514221,
-2.59857,0.512695,
-2.59094,0.509644,
-2.58789,0.511169,
-2.58179,0.515747,
-2.57111,0.515747,
-2.56958,0.508118,
-2.56805,0.509644,
-2.565,0.515747,
-2.56348,0.512695,
-2.56958,0.515747,
-2.56653,0.511169,
-2.56805,0.508118,
-2.56805,0.514221,
-2.57416,0.514221,
-2.58331,0.515747,
-2.58484,0.506592,
-2.58942,0.505066,
-2.59705,0.511169,
-2.6062,0.514221,
-2.61078,0.515747,
-2.61688,0.508118,
-2.62299,0.508118,
-2.62909,0.514221,
-2.63519,0.512695,
-2.6413,0.515747,
-2.64893,0.508118,
-2.65656,0.508118,
-2.66571,0.509644,
-2.67487,0.512695,
-2.68402,0.515747,
-2.69012,0.509644,
-2.70081,0.505066,
-2.70691,0.512695,
-2.71759,0.511169,
-2.72522,0.517273,
-2.7298,0.508118,
-2.73895,0.506592,
-2.74963,0.512695,
-2.76184,0.509644,
-2.77252,0.515747,
-2.78015,0.509644,
-2.79083,0.505066,
-2.80762,0.509644,
-2.81525,0.511169,
-2.82288,0.512695,
-2.83356,0.509644,
-2.84119,0.506592,
-2.84882,0.514221,
-2.85187,0.508118,
-2.86407,0.512695,
-2.8717,0.509644,
-2.87933,0.506592,
-2.88391,0.509644,
-2.89154,0.514221,
-2.90375,0.512695,
-2.90985,0.508118,
-2.92053,0.508118,
-2.92816,0.512695,
-2.93732,0.511169,
-2.94647,0.511169,
-2.95563,0.509644,
-2.96478,0.505066,
-2.97546,0.511169,
-2.98615,0.511169,
-2.9953,0.514221,
-3.00446,0.509644,
-3.01208,0.509644,
-3.01971,0.511169,
-3.03192,0.511169,
-3.03802,0.512695,
-3.04413,0.512695,
-3.05023,0.506592,
-3.05634,0.514221,
-3.06702,0.511169,
-3.07007,0.511169,
-3.07312,0.508118,
-3.0777,0.508118,
-3.07922,0.508118,
-3.0777,0.509644,
-3.0777,0.514221,
-3.07312,0.511169,
-3.06702,0.506592,
-3.05328,0.512695,
-3.04413,0.511169,
-3.02734,0.512695,
-3.00446,0.508118,
-2.98157,0.506592,
-2.96021,0.511169,
-2.93121,0.506592,
-2.90222,0.511169,
-2.8656,0.512695,
-2.82745,0.506592,
-2.79694,0.511169,
-2.76031,0.506592,
-2.7298,0.514221,
-2.6886,0.508118,
-2.65656,0.506592,
-2.62604,0.509644,
-2.59552,0.511169,
-2.56653,0.512695,
-2.53906,0.508118,
-2.51465,0.50354,
-2.48718,0.506592,
-2.46124,0.505066,
-2.43988,0.511169,
-2.42004,0.509644,
-2.39716,0.506592,
-2.37885,0.509644,
-2.36664,0.508118,
-2.34985,0.512695,
-2.33002,0.508118,
-2.32239,0.506592,
-2.31018,0.509644,
-2.30865,0.506592,
-2.29797,0.511169,
-2.2995,0.50354,
-2.29645,0.506592,
-2.29645,0.505066,
-2.29797,0.508118,
-2.2995,0.509644,
-2.3056,0.50354,
-2.3056,0.505066,
-2.31323,0.506592,
-2.31781,0.509644,
-2.32239,0.509644,
-2.32391,0.50354,
-2.33002,0.506592,
-2.33612,0.508118,
-2.33917,0.509644,
-2.3468,0.509644,
-2.35138,0.502014,
-2.35748,0.505066,
-2.36664,0.508118,
-2.36816,0.506592,
-2.38037,0.508118,
-2.38495,0.505066,
-2.38953,0.502014,
-2.39563,0.505066,
-2.3941,0.509644,
-2.40173,0.512695,
-2.40936,0.506592,
-2.41241,0.505066,
-2.41699,0.506592,
-2.42004,0.505066,
-2.42615,0.511169,
-2.42767,0.502014,
-2.4292,0.506592,
-2.42767,0.508118,
-2.42615,0.505066,
-2.4292,0.511169,
-2.42767,0.50354,
-2.42462,0.508118,
-2.4231,0.508118,
-2.41547,0.508118,
-2.40936,0.509644,
-2.40631,0.50354,
-2.39868,0.506592,
-2.3941,0.508118,
-2.39258,0.506592,
-2.38647,0.508118,
-2.38037,0.505066,
-2.37885,0.50354,
-2.37427,0.508118,
-2.37122,0.505066,
-2.36664,0.512695,
-2.36664,0.506592,
-2.36206,0.502014,
-2.35596,0.50354,
-2.35596,0.506592,
-2.35138,0.511169,
-2.34833,0.505066,
-2.34833,0.506592,
-2.34375,0.506592,
-2.34528,0.506592,
-2.34222,0.509644,
-2.3468,0.505066,
-2.34985,0.502014,
-2.34985,0.505066,
-2.35291,0.505066,
-2.35596,0.512695,
-2.36359,0.506592,
-2.36664,0.502014,
-2.37427,0.506592,
-2.38342,0.506592,
-2.388,0.509644,
-2.39716,0.505066,
-2.40173,0.505066,
-2.41089,0.508118,
-2.42004,0.508118,
-2.4292,0.512695,
-2.43835,0.505066,
-2.44904,0.50354,
-2.45667,0.505066,
-2.46887,0.505066,
-2.4704,0.511169,
-2.48108,0.505066,
-2.48718,0.50354,
-2.49329,0.506592,
-2.49939,0.505066,
-2.51312,0.506592,
-2.52533,0.50354,
-2.53296,0.502014,
-2.54364,0.50354,
-2.5528,0.505066,
-2.56348,0.506592,
-2.57263,0.50354,
-2.58026,0.50354,
-2.58942,0.506592,
-2.59399,0.506592,
-2.60162,0.509644,
-2.61078,0.50354,
-2.62146,0.50354,
-2.62604,0.508118,
-2.63214,0.508118,
-2.64282,0.509644,
-2.65503,0.505066,
-2.66571,0.505066,
-2.67639,0.50354,
-2.69012,0.506592,
-2.70233,0.509644,
-2.70996,0.505066,
-2.72369,0.50354,
-2.73438,0.506592,
-2.73895,0.506592,
-2.742,0.508118,
-2.74963,0.502014,
-2.76337,0.505066,
-2.771,0.506592,
-2.77863,0.506592,
-2.78625,0.506592,
-2.79236,0.505066,
-2.79999,0.502014,
-2.80762,0.506592,
-2.81525,0.506592,
-2.82288,0.506592,
-2.82135,0.500488,
-2.82745,0.506592,
-2.82898,0.508118,
-2.82898,0.506592,
-2.83051,0.506592,
-2.82745,0.506592,
-2.8244,0.502014,
-2.81525,0.508118,
-2.80914,0.506592,
-2.79541,0.509644,
-2.77863,0.502014,
-2.76184,0.502014,
-2.73895,0.50354,
-2.71454,0.508118,
-2.68707,0.505066,
-2.65656,0.502014,
-2.62909,0.502014,
-2.59552,0.506592,
-2.56042,0.508118,
-2.52533,0.509644,
-2.48413,0.506592,
-2.44598,0.500488,
-2.41089,0.502014,
-2.37122,0.508118,
-2.33459,0.506592,
-2.29645,0.50354,
-2.25983,0.502014,
-2.22168,0.502014,
-2.19269,0.506592,
-2.15912,0.508118,
-2.13013,0.50354,
-2.10724,0.500488,
-2.0752,0.50354,
-2.05231,0.505066,
-2.03094,0.506592,
-2.00958,0.498962,
-1.99127,0.502014,
-1.97296,0.50354,
-1.95618,0.508118,
-1.94397,0.502014,
-1.93481,0.502014,
-1.92261,0.502014,
-1.9165,0.502014,
-1.9104,0.508118,
-1.90582,0.506592,
-1.90125,0.500488,
-1.89819,0.502014,
-1.90277,0.505066,
-1.89819,0.505066,
-1.9043,0.505066,
-1.90735,0.50354,
-1.91193,0.500488,
-1.91345,0.505066,
-1.92108,0.502014,
-1.93024,0.50354,
-1.93329,0.502014,
-1.93939,0.50354,
-1.9455,0.505066,
-1.95618,0.506592,
-1.96686,0.505066,
-1.97296,0.498962,
-1.97906,0.502014,
-1.98364,0.506592,
-1.99738,0.505066,
-2.005,0.50354,
-2.01416,0.502014,
-2.02484,0.498962,
-2.03705,0.502014,
-2.04315,0.508118,
-2.05231,0.505066,
-2.05841,0.500488,
-2.06909,0.500488,
-2.0752,0.500488,
-2.08435,0.508118,
-2.0874,0.506592,
-2.09503,0.500488,
-2.10114,0.495911,
-2.10266,0.50354,
-2.10266,0.50354,
-2.10266,0.502014,
-2.10114,0.50354,
-2.09503,0.500488,
-2.08893,0.502014,
-2.0874,0.508118,
-2.0874,0.506592,
-2.08435,0.502014,
-2.07825,0.502014,
-2.0752,0.50354,
-2.07214,0.506592,
-2.06451,0.506592,
-2.05231,0.500488,
-2.04926,0.502014,
-2.0401,0.495911,
-2.03705,0.508118,
-2.034,0.506592,
-2.02637,0.502014,
-2.02332,0.502014,
-2.02179,0.50354,
-2.02026,0.505066,
-2.02179,0.506592,
-2.01721,0.498962,
-2.02026,0.502014,
-2.02179,0.495911,
-2.02637,0.506592,
-2.02789,0.502014,
-2.03552,0.495911,
-2.034,0.502014,
-2.03705,0.495911,
-2.04315,0.506592,
-2.0462,0.505066,
-2.05078,0.500488,
-2.05688,0.502014,
-2.06604,0.505066,
-2.07367,0.505066,
-2.07977,0.505066,
-2.0874,0.502014,
-2.09961,0.500488,
-2.10571,0.498962,
-2.11487,0.502014,
-2.1225,0.50354,
-2.1347,0.498962,
-2.14081,0.502014,
-2.14844,0.495911,
-2.15759,0.502014,
-2.16522,0.500488,
-2.1759,0.495911,
-2.17896,0.494385,
-2.18658,0.498962,
-2.19574,0.506592,
-2.20642,0.50354,
-2.21252,0.498962,
-2.22473,0.495911,
-2.23846,0.500488,
-2.24915,0.508118,
-2.26135,0.502014,
-2.27203,0.498962,
-2.28729,0.500488,
-2.30255,0.500488,
-2.31628,0.508118,
-2.33002,0.502014,
-2.3407,0.498962,
-2.35291,0.500488,
-2.36359,0.498962,
-2.36816,0.50354,
-2.38037,0.50354,
-2.39258,0.498962,
-2.40173,0.500488,
-2.41394,0.495911,
-2.42462,0.50354,
-2.43683,0.502014,
-2.44904,0.498962,
-2.46429,0.502014,
-2.48108,0.494385,
-2.49329,0.50354,
-2.50092,0.502014,
-2.51465,0.498962,
-2.52533,0.495911,
-2.53448,0.498962,
-2.54669,0.506592,
-2.56195,0.500488,
-2.57111,0.495911,
-2.58331,0.495911,
-2.59094,0.494385,
-2.59857,0.50354,
-2.60773,0.500488,
-2.61993,0.494385,
-2.61841,0.500488,
-2.62146,0.500488,
-2.62299,0.506592,
-2.61536,0.50354,
-2.60468,0.495911,
-2.59094,0.498962,
-2.57568,0.500488,
-2.56195,0.50354,
-2.53754,0.506592,
-2.51465,0.494385,
-2.48413,0.502014,
-2.45361,0.500488,
-2.42615,0.506592,
-2.38647,0.500488,
-2.35138,0.494385,
-2.31171,0.495911,
-2.27051,0.498962,
-2.22626,0.505066,
-2.18658,0.505066,
-2.13928,0.498962,
-2.09503,0.500488,
-2.05231,0.498962,
-2.00958,0.502014,
-1.96991,0.50354,
-1.92719,0.494385,
-1.88599,0.494385,
-1.85089,0.495911,
-1.81122,0.502014,
-1.7807,0.50354,
-1.75018,0.498962,
-1.72272,0.498962,
-1.69525,0.500488,
-1.67389,0.505066,
-1.64642,0.502014,
-1.62506,0.495911,
-1.60522,0.495911,
-1.59149,0.502014,
-1.57623,0.505066,
-1.56555,0.502014,
-1.5564,0.498962,
-1.55182,0.495911,
-1.55029,0.498962,
-1.54419,0.505066,
-1.54572,0.502014,
-1.55182,0.495911,
-1.5564,0.498962,
-1.5625,0.498962,
-1.57013,0.50354,
-1.57928,0.50354,
-1.5976,0.492859,
-1.6037,0.498962,
-1.61743,0.495911,
-1.63116,0.505066,
-1.64642,0.50354,
-1.66321,0.495911,
-1.67847,0.500488,
-1.69525,0.498962,
-1.71051,0.50354,
-1.72729,0.502014,
-1.74408,0.495911,
-1.75934,0.502014,
-1.77612,0.495911,
-1.78986,0.50354,
-1.80359,0.502014,
-1.81122,0.494385,
-1.82495,0.498962,
-1.83258,0.494385,
-1.84174,0.50354,
-1.84631,0.50354,
-1.85089,0.495911,
-1.85852,0.500488,
-1.86005,0.495911,
-1.8631,0.50354,
-1.86615,0.500488,
-1.86768,0.494385,
-1.86768,0.500488,
-1.86462,0.495911,
-1.86157,0.505066,
-1.85547,0.50354,
-1.85394,0.500488,
-1.84784,0.500488,
-1.84174,0.495911,
-1.84021,0.50354,
-1.83258,0.50354,
-1.82953,0.498962,
-1.82953,0.494385,
-1.82495,0.498962,
-1.82495,0.50354,
-1.8219,0.50354,
-1.82495,0.500488,
-1.82037,0.495911,
-1.81885,0.495911,
-1.82037,0.505066,
-1.82648,0.502014,
-1.82953,0.498962,
-1.83716,0.495911,
-1.84174,0.500488,
-1.84479,0.505066,
-1.85089,0.502014,
-1.85547,0.494385,
-1.86005,0.498962,
-1.86462,0.495911,
-1.87073,0.505066,
-1.87836,0.502014,
-1.88599,0.500488,
-1.89667,0.492859,
-1.90887,0.500488,
-1.9165,0.50354,
-1.92261,0.502014,
-1.93329,0.498962,
-1.94244,0.495911,
-1.9516,0.494385,
-1.9577,0.505066,
-1.97449,0.50354,
-1.98669,0.492859,
-2.00043,0.498962,
-2.01569,0.495911,
-2.03247,0.505066,
-2.04315,0.50354,
-2.05383,0.498962,
-2.06604,0.494385,
-2.0752,0.495911,
-2.0874,0.505066,
-2.09656,0.502014,
-2.11334,0.500488,
-2.12708,0.494385,
-2.14539,0.495911,
-2.15454,0.500488,
-2.1637,0.500488,
-2.17285,0.495911,
-2.18658,0.495911,
-2.19421,0.500488,
-2.20337,0.505066,
-2.21558,0.502014,
-2.22626,0.500488,
-2.23846,0.492859,
-2.24762,0.500488,
-2.26135,0.502014,
-2.26746,0.500488,
-2.27814,0.495911,
-2.29034,0.495911,
-2.3056,0.498962,
-2.32086,0.50354,
-2.33154,0.498962,
-2.3407,0.498962,
-2.35291,0.494385,
-2.36816,0.494385,
-2.38037,0.505066,
-2.39105,0.500488,
-2.40631,0.495911,
-2.42157,0.495911,
-2.43683,0.500488,
-2.44904,0.506592,
-2.45972,0.500488,
-2.47955,0.498962,
-2.49176,0.495911,
-2.50092,0.502014,
-2.51617,0.506592,
-2.5177,0.498962,
-2.52228,0.500488,
-2.53296,0.495911,
-2.53296,0.495911,
-2.52991,0.505066,
-2.5238,0.498962,
-2.51312,0.500488,
-2.49481,0.494385,
-2.47192,0.500488,
-2.45056,0.50354,
-2.42157,0.500488,
-2.39258,0.498962,
-2.35901,0.495911,
-2.32086,0.498962,
-2.27356,0.50354,
-2.23389,0.502014,
-2.19269,0.498962,
-2.15149,0.492859,
-2.10419,0.494385,
-2.05383,0.50354,
-2.01111,0.495911,
-1.95923,0.494385,
-1.91345,0.491333,
-1.86615,0.502014,
-1.82037,0.50354,
-1.77765,0.498962,
-1.73645,0.495911,
-1.6983,0.494385,
-1.66473,0.502014,
-1.62964,0.505066,
-1.5976,0.502014,
-1.56555,0.500488,
-1.53351,0.491333,
-1.50604,0.498962,
-1.48621,0.502014,
-1.4679,0.500488,
-1.44653,0.495911,
-1.42975,0.494385,
-1.41449,0.500488,
-1.40381,0.495911,
-1.39618,0.498962,
-1.39313,0.500488,
-1.3916,0.491333,
-1.38855,0.498962,
-1.39313,0.500488,
-1.39771,0.500488,
-1.40076,0.498962,
-1.40686,0.494385,
-1.41602,0.498962,
-1.42365,0.502014,
-1.4328,0.502014,
-1.44653,0.495911,
-1.45874,0.489807,
-1.47705,0.500488,
-1.49689,0.502014,
-1.51825,0.498962,
-1.53809,0.500488,
-1.56097,0.492859,
-1.58386,0.498962,
-1.61133,0.500488,
-1.63422,0.500488,
-1.65863,0.498962,
-1.67847,0.494385,
-1.70441,0.498962,
-1.72424,0.502014,
-1.7395,0.500488,
-1.75476,0.494385,
-1.76849,0.491333,
-1.78528,0.500488,
-1.79749,0.502014,
-1.80664,0.502014,
-1.81274,0.498962,
-1.8219,0.491333,
-1.82953,0.498962,
-1.83868,0.50354,
-1.84174,0.498962,
-1.84631,0.498962,
-1.84784,0.494385,
-1.85089,0.500488,
-1.85547,0.502014,
-1.86157,0.498962,
-1.86157,0.502014,
-1.85852,0.489807,
-1.85547,0.500488,
-1.85852,0.50354,
-1.85394,0.500488,
-1.85089,0.498962,
-1.84631,0.492859,
-1.84784,0.50354,
-1.84174,0.502014,
-1.83868,0.498962,
-1.83716,0.494385,
-1.83411,0.492859,
-1.83563,0.500488,
-1.83258,0.502014,
-1.83258,0.500488,
-1.83105,0.498962,
-1.83411,0.492859,
-1.83868,0.50354,
-1.84021,0.502014,
-1.84631,0.495911,
-1.84784,0.502014,
-1.85242,0.489807,
-1.85852,0.500488,
-1.86615,0.498962,
-1.8692,0.500488,
-1.87836,0.500488,
-1.88446,0.492859,
-1.89362,0.498962,
-1.9043,0.502014,
-1.91345,0.500488,
-1.92719,0.500488,
-1.93634,0.489807,
-1.9455,0.498962,
-1.9577,0.505066,
-1.96991,0.50354,
-1.98364,0.498962,
-2.00043,0.489807,
-2.01111,0.500488,
-2.02179,0.498962,
-2.034,0.50354,
-2.04468,0.498962,
-2.05688,0.489807,
-2.07062,0.495911,
-2.08282,0.502014,
-2.09961,0.502014,
-2.11334,0.500488,
-2.12555,0.491333,
-2.14691,0.498962,
-2.16064,0.50354,
-2.18048,0.502014,
-2.19269,0.498962,
-2.211,0.492859,
-2.22473,0.498962,
-2.24152,0.500488,
-2.25525,0.500488,
-2.27356,0.500488,
-2.28577,0.486755,
-2.29797,0.498962,
-2.31476,0.502014,
-2.32544,0.502014,
-2.33917,0.494385,
-2.35443,0.491333,
-2.36664,0.498962,
-2.38037,0.50354,
-2.39716,0.498962,
-2.41089,0.495911,
-2.4292,0.488281,
-2.43988,0.495911,
-2.45209,0.506592,
-2.4704,0.500488,
-2.48413,0.498962,
-2.49634,0.488281,
-2.50702,0.495911,
-2.51923,0.50354,
-2.52075,0.500488,
-2.53296,0.495911,
-2.53906,0.486755,
-2.54669,0.500488,
-2.55585,0.502014,
-2.55737,0.500488,
-2.55737,0.498962,
-2.5528,0.488281,
-2.54974,0.498962,
-2.53296,0.50354,
-2.51617,0.498962,
-2.49329,0.500488,
-2.46582,0.486755,
-2.43225,0.495911,
-2.39716,0.502014,
-2.35748,0.500488,
-2.31934,0.495911,
-2.27661,0.486755,
-2.22931,0.498962,
-2.18353,0.498962,
-2.13776,0.502014,
-2.08588,0.498962,
-2.03857,0.488281,
-1.98517,0.494385,
-1.93176,0.498962,
-1.88141,0.500488,
-1.83258,0.495911,
-1.78223,0.485229,
-1.7395,0.500488,
-1.6983,0.498962,
-1.64948,0.500488,
-1.60522,0.498962,
-1.56555,0.488281,
-1.52893,0.498962,
-1.49536,0.500488,
-1.46027,0.502014,
-1.43127,0.498962,
-1.40686,0.489807,
-1.38245,0.495911,
-1.36261,0.498962,
-1.34735,0.500488,
-1.33209,0.495911,
-1.32294,0.486755,
-1.31378,0.495911,
-1.31378,0.500488,
-1.3092,0.500488,
-1.31226,0.495911,
-1.31683,0.489807,
-1.32599,0.495911,
-1.33362,0.50354,
-1.34735,0.498962,
-1.36108,0.500488,
-1.38092,0.485229,
-1.40076,0.492859,
-1.42059,0.502014,
-1.44958,0.494385,
-1.46942,0.494385,
-1.49689,0.488281,
-1.52588,0.498962,
-1.55029,0.500488,
-1.57623,0.500488,
-1.60065,0.495911,
-1.62506,0.486755,
-1.64795,0.498962,
-1.67236,0.500488,
-1.69525,0.495911,
-1.71661,0.498962,
-1.73798,0.485229,
-1.75629,0.494385,
-1.7746,0.502014,
-1.79291,0.498962,
-1.80817,0.498962,
-1.8158,0.486755,
-1.82953,0.494385,
-1.84021,0.50354,
-1.84174,0.500488,
-1.84326,0.495911,
-1.85394,0.485229,
-1.85547,0.495911,
-1.86157,0.502014,
-1.85547,0.498962,
-1.86005,0.500488,
-1.85547,0.489807,
-1.85547,0.494385,
-1.84937,0.50354,
-1.84784,0.494385,
-1.84784,0.494385,
-1.84631,0.488281,
-1.84174,0.494385,
-1.84174,0.502014,
-1.83258,0.502014,
-1.82953,0.492859,
-1.82648,0.486755,
-1.82648,0.498962,
-1.82495,0.500488,
-1.82037,0.495911,
-1.8158,0.495911,
-1.81427,0.485229,
-1.81427,0.498962,
-1.81732,0.498962,
-1.82037,0.498962,
-1.8219,0.495911,
-1.82648,0.486755,
-1.82953,0.494385,
-1.83563,0.498962,
-1.84021,0.498962,
-1.84784,0.495911,
-1.85394,0.486755,
-1.86615,0.495911,
-1.87378,0.495911,
-1.88599,0.492859,
-1.89667,0.494385,
-1.90887,0.486755,
-1.91498,0.494385,
-1.92719,0.502014,
-1.93939,0.495911,
-1.9516,0.494385,
-1.96686,0.488281,
-1.97754,0.492859,
-2.00043,0.498962,
-2.01111,0.498962,
-2.02332,0.494385,
-2.03552,0.485229,
-2.04926,0.492859,
-2.05688,0.498962,
-2.0752,0.495911,
-2.0874,0.494385,
-2.10266,0.486755,
-2.11639,0.494385,
-2.13623,0.495911,
-2.15149,0.494385,
-2.1698,0.494385,
-2.18506,0.488281,
-2.2049,0.495911,
-2.22168,0.495911,
-2.23846,0.498962,
-2.2522,0.492859,
-2.26593,0.485229,
-2.28271,0.494385,
-2.29645,0.494385,
-2.31323,0.492859,
-2.32544,0.491333,
-2.34528,0.489807,
-2.35901,0.494385,
-2.37427,0.494385,
-2.38953,0.494385,
-2.40479,0.494385,
-2.42004,0.485229,
-2.43683,0.494385,
-2.44904,0.492859,
-2.46124,0.498962,
-2.47955,0.492859,
-2.48871,0.486755,
-2.50244,0.492859,
-2.50854,0.491333,
-2.52228,0.494385,
-2.53143,0.494385,
-2.54364,0.482178,
-2.55737,0.495911,
-2.56348,0.492859,
-2.57111,0.500488,
-2.57263,0.491333,
-2.57111,0.486755,
-2.56195,0.495911,
-2.54974,0.498962,
-2.52686,0.494385,
-2.50244,0.491333,
-2.4704,0.489807,
-2.43225,0.495911,
-2.39868,0.494385,
-2.35596,0.495911,
-2.31018,0.492859,
-2.2644,0.485229,
-2.211,0.495911,
-2.15912,0.498962,
-2.10571,0.495911,
-2.04315,0.491333,
-1.98822,0.489807,
-1.93329,0.498962,
-1.87378,0.494385,
-1.81427,0.494385,
-1.75171,0.492859,
-1.6922,0.488281,
-1.63574,0.500488,
-1.58844,0.498962,
-1.53656,0.492859,
-1.48773,0.489807,
-1.44653,0.483704,
-1.40686,0.502014,
-1.36566,0.495911,
-1.32904,0.494385,
-1.30005,0.489807,
-1.27106,0.489807,
-1.24664,0.50354,
-1.22833,0.498962,
-1.21613,0.495911,
-1.20087,0.488281,
-1.19476,0.488281,
-1.19171,0.494385,
-1.18713,0.500488,
-1.19019,0.492859,
-1.19324,0.486755,
-1.20697,0.486755,
-1.21307,0.500488,
-1.22986,0.495911,
-1.24817,0.495911,
-1.26648,0.489807,
-1.28174,0.486755,
-1.30463,0.494385,
-1.32751,0.494385,
-1.35651,0.494385,
-1.37787,0.491333,
-1.40228,0.486755,
-1.42975,0.495911,
-1.46179,0.494385,
-1.49231,0.494385,
-1.51978,0.488281,
-1.55487,0.486755,
-1.58691,0.492859,
-1.62048,0.492859,
-1.6449,0.492859,
-1.67236,0.489807,
-1.69525,0.488281,
-1.71814,0.495911,
-1.74103,0.494385,
-1.76392,0.494385,
-1.7807,0.489807,
-1.79749,0.486755,
-1.81427,0.492859,
-1.82648,0.494385,
-1.83868,0.494385,
-1.84479,0.488281,
-1.85394,0.488281,
-1.85852,0.494385,
-1.86462,0.494385,
-1.8692,0.488281,
-1.8692,0.486755,
-1.87073,0.486755,
-1.86768,0.495911,
-1.86157,0.494385,
-1.85394,0.494385,
-1.85242,0.485229,
-1.84937,0.489807,
-1.84631,0.492859,
-1.84174,0.489807,
-1.83868,0.489807,
-1.83563,0.483704,
-1.83563,0.486755,
-1.82953,0.492859,
-1.82648,0.489807,
-1.82037,0.492859,
-1.82037,0.485229,
-1.82495,0.488281,
-1.8219,0.494385,
-1.828,0.492859,
-1.83258,0.492859,
-1.83716,0.485229,
-1.84479,0.486755,
-1.84784,0.495911,
-1.85547,0.492859,
-1.86615,0.492859,
-1.87836,0.486755,
-1.88446,0.488281,
-1.89514,0.492859,
-1.90125,0.494385,
-1.90887,0.494385,
-1.91345,0.485229,
-1.92261,0.491333,
-1.93481,0.492859,
-1.9455,0.492859,
-1.95465,0.494385,
-1.96838,0.483704,
-1.98059,0.489807,
-1.98822,0.492859,
-2.00195,0.492859,
-2.01111,0.494385,
-2.02484,0.486755,
-2.0401,0.488281,
-2.05383,0.491333,
-2.07214,0.492859,
-2.08282,0.491333,
-2.10266,0.485229,
-2.12097,0.491333,
-2.13776,0.494385,
-2.14996,0.495911,
-2.1637,0.494385,
-2.18353,0.483704,
-2.2049,0.488281,
-2.22168,0.491333,
-2.23389,0.495911,
-2.2522,0.491333,
-2.26593,0.485229,
-2.28119,0.489807,
-2.2995,0.492859,
-2.31781,0.494385,
-2.33459,0.494385,
-2.34985,0.485229,
-2.36664,0.485229,
-2.38342,0.492859,
-2.39563,0.495911,
-2.41394,0.488281,
-2.4292,0.485229,
-2.44598,0.486755,
-2.46887,0.492859,
-2.48566,0.491333,
-2.50549,0.491333,
-2.52838,0.486755,
-2.54822,0.488281,
-2.56195,0.492859,
-2.57721,0.489807,
-2.59552,0.491333,
-2.60925,0.486755,
-2.62451,0.486755,
-2.63519,0.489807,
-2.6413,0.491333,
-2.64893,0.491333,
-2.64435,0.486755,
-2.63672,0.488281,
-2.62299,0.489807,
-2.60315,0.491333,
-2.57568,0.491333,
-2.54669,0.483704,
-2.50702,0.485229,
-2.46887,0.491333,
-2.4231,0.486755,
-2.36969,0.488281,
-2.31781,0.480652,
-2.25677,0.488281,
-2.19269,0.491333,
-2.13318,0.491333,
-2.06451,0.489807,
-1.9928,0.485229,
-1.92261,0.489807,
-1.84784,0.488281,
-1.78375,0.491333,
-1.71204,0.488281,
-1.64337,0.485229,
-1.57318,0.485229,
-1.50909,0.489807,
-1.45111,0.491333,
-1.39008,0.489807,
-1.33514,0.486755,
-1.28632,0.485229,
-1.23444,0.488281,
-1.19934,0.492859,
-1.16425,0.486755,
-1.12762,0.485229,
-1.10168,0.486755,
-1.07574,0.486755,
-1.05438,0.492859,
-1.03912,0.492859,
-1.02997,0.486755,
-1.02539,0.488281,
-1.02386,0.488281,
-1.02844,0.492859,
-1.0376,0.491333,
-1.04065,0.488281,
-1.0498,0.483704,
-1.06506,0.492859,
-1.08185,0.492859,
-1.10168,0.488281,
-1.12457,0.485229,
-1.15051,0.486755,
-1.17188,0.488281,
-1.20087,0.491333,
-1.22375,0.492859,
-1.25427,0.485229,
-1.28632,0.486755,
-1.31531,0.488281,
-1.3504,0.491333,
-1.37939,0.491333,
-1.41449,0.489807,
-1.44653,0.486755,
-1.47705,0.491333,
-1.50909,0.491333,
-1.53961,0.488281,
-1.5686,0.485229,
-1.59454,0.486755,
-1.62201,0.488281,
-1.64337,0.488281,
-1.66779,0.491333,
-1.68762,0.483704,
-1.69983,0.483704,
-1.71661,0.486755,
-1.73035,0.489807,
-1.73645,0.491333,
-1.74561,0.486755,
-1.74866,0.485229,
-1.75476,0.488281,
-1.75934,0.491333,
-1.75781,0.491333,
-1.76544,0.485229,
-1.76239,0.485229,
-1.75781,0.486755,
-1.75629,0.489807,
-1.74866,0.489807,
-1.74103,0.486755,
-1.73492,0.486755,
-1.72882,0.489807,
-1.72272,0.491333,
-1.71661,0.488281,
-1.71204,0.483704,
-1.71051,0.483704,
-1.70746,0.485229,
-1.70441,0.491333,
-1.70441,0.489807,
-1.70441,0.483704,
-1.70441,0.486755,
-1.70746,0.488281,
-1.71051,0.492859,
-1.71051,0.488281,
-1.71509,0.485229,
-1.72577,0.485229,
-1.7334,0.485229,
-1.7395,0.489807,
-1.74713,0.488281,
-1.75781,0.485229,
-1.76544,0.483704,
-1.7746,0.486755,
-1.7868,0.488281,
-1.79901,0.489807,
-1.81122,0.485229,
-1.8219,0.485229,
-1.83716,0.483704,
-1.85089,0.491333,
-1.86462,0.491333,
-1.87683,0.483704,
-1.88599,0.483704,
-1.9043,0.480652,
-1.92108,0.491333,
-1.93939,0.488281,
-1.95618,0.485229,
-1.97601,0.482178,
-1.9928,0.482178,
-2.00958,0.488281,
-2.02484,0.491333,
-2.04315,0.489807,
-2.05688,0.483704,
-2.07825,0.483704,
-2.09351,0.492859,
-2.10724,0.489807,
-2.12708,0.485229,
-2.14539,0.483704,
-2.15912,0.483704,
-2.18048,0.491333,
-2.19879,0.492859,
-2.21405,0.485229,
-2.23236,0.485229,
-2.24915,0.483704,
-2.2644,0.491333,
-2.28271,0.488281,
-2.30103,0.486755,
-2.31934,0.486755,
-2.3407,0.485229,
-2.35901,0.489807,
-2.3819,0.489807,
-2.40021,0.486755,
-2.42462,0.488281,
-2.43988,0.482178,
-2.45972,0.492859,
-2.47498,0.489807,
-2.49329,0.488281,
-2.5116,0.488281,
-2.52533,0.483704,
-2.53906,0.492859,
-2.55127,0.489807,
-2.55585,0.483704,
-2.5589,0.485229,
-2.55585,0.480652,
-2.55585,0.491333,
-2.54211,0.486755,
-2.52686,0.488281,
-2.50092,0.486755,
-2.47345,0.482178,
-2.44293,0.491333,
-2.40173,0.489807,
-2.35748,0.485229,
-2.31018,0.488281,
-2.25677,0.485229,
-2.20184,0.488281,
-2.14081,0.491333,
-2.08282,0.489807,
-2.01416,0.485229,
-1.94702,0.483704,
-1.87683,0.489807,
-1.80664,0.491333,
-1.73187,0.488281,
-1.66473,0.483704,
-1.58844,0.482178,
-1.51825,0.489807,
-1.44958,0.488281,
-1.3855,0.486755,
-1.32294,0.482178,
-1.26495,0.482178,
-1.21155,0.489807,
-1.16119,0.491333,
-1.11389,0.485229,
-1.07269,0.483704,
-1.03455,0.482178,
-1.00555,0.489807,
-0.973511,0.489807,
-0.952148,0.486755,
-0.927734,0.485229,
-0.917053,0.479126,
-0.91095,0.488281,
-0.907898,0.491333,
-0.909424,0.485229,
-0.915527,0.485229,
-0.927734,0.482178,
-0.938416,0.491333,
-0.952148,0.489807,
-0.973511,0.488281,
-0.996399,0.486755,
-1.01929,0.483704,
-1.04828,0.489807,
-1.0788,0.488281,
-1.10626,0.488281,
-1.13831,0.485229,
-1.1673,0.483704,
-1.20544,0.489807,
-1.23444,0.488281,
-1.27106,0.488281,
-1.31073,0.486755,
-1.34583,0.482178,
-1.38245,0.489807,
-1.41144,0.491333,
-1.44196,0.488281,
-1.47552,0.486755,
-1.50299,0.485229,
-1.53198,0.489807,
-1.54877,0.488281,
-1.56708,0.488281,
-1.58844,0.483704,
-1.6037,0.482178,
-1.61743,0.488281,
-1.62659,0.489807,
-1.63422,0.489807,
-1.64337,0.486755,
-1.64337,0.480652,
-1.64948,0.492859,
-1.64948,0.486755,
-1.64642,0.486755,
-1.64642,0.485229,
-1.64337,0.485229,
-1.63727,0.489807,
-1.63422,0.489807,
-1.62964,0.485229,
-1.62201,0.486755,
-1.61743,0.483704,
-1.60828,0.486755,
-1.59912,0.491333,
-1.59302,0.486755,
-1.58844,0.485229,
-1.57471,0.482178,
-1.57013,0.488281,
-1.56555,0.489807,
-1.5564,0.485229,
-1.55182,0.485229,
-1.54266,0.483704,
-1.53961,0.485229,
-1.53351,0.491333,
-1.53198,0.485229,
-1.53046,0.486755,
-1.52893,0.482178,
-1.5274,0.486755,
-1.53046,0.488281,
-1.53503,0.486755,
-1.53809,0.486755,
-1.54419,0.483704,
-1.5564,0.485229,
-1.56403,0.491333,
-1.57776,0.486755,
-1.58997,0.488281,
-1.60217,0.480652,
-1.62048,0.486755,
-1.63116,0.488281,
-1.6449,0.488281,
-1.65558,0.488281,
-1.67084,0.482178,
-1.6861,0.485229,
-1.69678,0.486755,
-1.71356,0.486755,
-1.72882,0.486755,
-1.74713,0.482178,
-1.76239,0.488281,
-1.77917,0.486755,
-1.79596,0.489807,
-1.81427,0.488281,
-1.83105,0.482178,
-1.84784,0.491333,
-1.8631,0.486755,
-1.87836,0.485229,
-1.90277,0.488281,
-1.91956,0.485229,
-1.94244,0.492859,
-1.96228,0.486755,
-1.98669,0.486755,
-2.01111,0.489807,
-2.03552,0.483704,
-2.05536,0.489807,
-2.07977,0.486755,
-2.10266,0.486755,
-2.12555,0.489807,
-2.14844,0.483704,
-2.1698,0.489807,
-2.18964,0.489807,
-2.21405,0.486755,
-2.23236,0.485229,
-2.2583,0.482178,
-2.27814,0.489807,
-2.2995,0.488281,
-2.32086,0.489807,
-2.33612,0.483704,
-2.35596,0.485229,
-2.37579,0.491333,
-2.388,0.489807,
-2.40021,0.488281,
-2.41089,0.486755,
-2.41699,0.483704,
-2.41699,0.495911,
-2.40936,0.489807,
-2.39105,0.489807,
-2.36816,0.485229,
-2.34222,0.482178,
-2.31018,0.492859,
-2.26746,0.491333,
-2.22168,0.488281,
-2.17133,0.486755,
-2.11487,0.483704,
-2.05383,0.489807,
-1.98517,0.494385,
-1.92108,0.486755,
-1.84479,0.485229,
-1.77307,0.479126,
-1.69373,0.491333,
-1.61896,0.486755,
-1.54266,0.491333,
-1.46484,0.488281,
-1.38702,0.485229,
-1.31226,0.494385,
-1.23291,0.485229,
-1.17035,0.488281,
-1.10626,0.485229,
-1.04523,0.482178,
-0.991821,0.489807,
-0.941467,0.491333,
-0.898743,0.489807,
-0.857544,0.486755,
-0.820923,0.483704,
-0.796509,0.488281,
-0.772095,0.489807,
-0.752258,0.485229,
-0.740051,0.486755,
-0.737,0.482178,
-0.733948,0.485229,
-0.740051,0.491333,
-0.744629,0.492859,
-0.75531,0.485229,
-0.769043,0.483704,
-0.785828,0.491333,
-0.802612,0.491333,
-0.830078,0.489807,
-0.846863,0.486755,
-0.875854,0.480652,
-0.90332,0.488281,
-0.926208,0.491333,
-0.949097,0.486755,
-0.976563,0.483704,
-1.0025,0.482178,
-1.03455,0.488281,
-1.06506,0.491333,
-1.09863,0.488281,
-1.13678,0.488281,
-1.17493,0.486755,
-1.21155,0.486755,
-1.24817,0.486755,
-1.27869,0.488281,
-1.3092,0.488281,
-1.33514,0.482178,
-1.36108,0.492859,
-1.38702,0.489807,
-1.41449,0.489807,
-1.4328,0.485229,
-1.45111,0.483704,
-1.46332,0.491333,
-1.47705,0.488281,
-1.48468,0.489807,
-1.49231,0.488281,
-1.49536,0.485229,
-1.50299,0.488281,
-1.50909,0.491333,
-1.51062,0.489807,
-1.51062,0.486755,
-1.51672,0.482178,
-1.51825,0.489807,
-1.51672,0.488281,
-1.5152,0.489807,
-1.51215,0.483704,
-1.50757,0.485229,
-1.50452,0.491333,
-1.50299,0.489807,
-1.49536,0.488281,
-1.49384,0.485229,
-1.49231,0.485229,
-1.48926,0.489807,
-1.48773,0.488281,
-1.48621,0.489807,
-1.48315,0.485229,
-1.48468,0.480652,
-1.48468,0.489807,
-1.48773,0.489807,
-1.49231,0.489807,
-1.49841,0.483704,
-1.49994,0.483704,
-1.50299,0.486755,
-1.50757,0.492859,
-1.51672,0.489807,
-1.52283,0.485229,
-1.52893,0.485229,
-1.53656,0.488281,
-1.54419,0.489807,
-1.55792,0.489807,
-1.57013,0.486755,
-1.58844,0.482178,
-1.60217,0.491333,
-1.62201,0.488281,
-1.63879,0.488281,
-1.66016,0.483704,
-1.67847,0.485229,
-1.70288,0.491333,
-1.72272,0.489807,
-1.73798,0.486755,
-1.75781,0.483704,
-1.77307,0.483704,
-1.79291,0.489807,
-1.80511,0.488281,
-1.828,0.489807,
-1.84479,0.485229,
-1.85852,0.485229,
-1.88141,0.488281,
-1.89972,0.486755,
-1.9165,0.489807,
-1.93787,0.483704,
-1.95313,0.483704,
-1.96686,0.486755,
-1.98364,0.488281,
-2.005,0.486755,
-2.02484,0.485229,
-2.04468,0.482178,
-2.06146,0.489807,
-2.07977,0.488281,
-2.09198,0.489807,
-2.10876,0.486755,
-2.12708,0.485229,
-2.14081,0.489807,
-2.15759,0.486755,
-2.18048,0.488281,
-2.19727,0.483704,
-2.21405,0.483704,
-2.23389,0.488281,
-2.25372,0.488281,
-2.26746,0.488281,
-2.28729,0.480652,
-2.2995,0.483704,
-2.31476,0.486755,
-2.32544,0.489807,
-2.33154,0.488281,
-2.33307,0.483704,
-2.33307,0.483704,
-2.32391,0.489807,
-2.31323,0.488281,
-2.29797,0.491333,
-2.27051,0.482178,
-2.23236,0.483704,
-2.19421,0.486755,
-2.14844,0.488281,
-2.09656,0.491333,
-2.03857,0.483704,
-1.97144,0.483704,
-1.90887,0.492859,
-1.83716,0.486755,
-1.76086,0.491333,
-1.67847,0.483704,
-1.60065,0.483704,
-1.5152,0.488281,
-1.42822,0.488281,
-1.3443,0.489807,
-1.2619,0.483704,
-1.18103,0.483704,
-1.10474,0.488281,
-1.02997,0.489807,
-0.958252,0.489807,
-0.895691,0.482178,
-0.837708,0.482178,
-0.782776,0.488281,
-0.738525,0.488281,
-0.697327,0.489807,
-0.65918,0.485229,
-0.627136,0.483704,
-0.601196,0.489807,
-0.576782,0.488281,
-0.559998,0.491333,
-0.546265,0.482178,
-0.538635,0.482178,
-0.537109,0.492859,
-0.537109,0.491333,
-0.541687,0.488281,
-0.547791,0.483704,
-0.55542,0.480652,
-0.570679,0.489807,
-0.590515,0.488281,
-0.608826,0.491333,
-0.634766,0.482178,
-0.660706,0.483704,
-0.686646,0.488281,
-0.717163,0.488281,
-0.747681,0.488281,
-0.775146,0.482178,
-0.808716,0.482178,
-0.837708,0.492859,
-0.872803,0.486755,
-0.91095,0.488281,
-0.947571,0.482178,
-0.98114,0.482178,
-1.01624,0.489807,
-1.04675,0.488281,
-1.0849,0.488281,
-1.11542,0.483704,
-1.14594,0.480652,
-1.17493,0.488281,
-1.20239,0.485229,
-1.22681,0.489807,
-1.25122,0.480652,
-1.26343,0.483704,
-1.27869,0.489807,
-1.29242,0.486755,
-1.30157,0.489807,
-1.3092,0.482178,
-1.31226,0.480652,
-1.31226,0.486755,
-1.31683,0.488281,
-1.31683,0.486755,
-1.31378,0.483704,
-1.30615,0.482178,
-1.30157,0.485229,
-1.29089,0.486755,
-1.28326,0.488281,
-1.27563,0.482178,
-1.26343,0.480652,
-1.25275,0.488281,
-1.24664,0.486755,
-1.24207,0.486755,
-1.23596,0.482178,
-1.23291,0.480652,
-1.22375,0.495911,
-1.21765,0.485229,
-1.2146,0.488281,
-1.2085,0.482178,
-1.20239,0.479126,
-1.20544,0.489807,
-1.20239,0.483704,
-1.20087,0.486755,
-1.21002,0.482178,
-1.2146,0.480652,
-1.21918,0.488281,
-1.22681,0.483704,
-1.23596,0.489807,
-1.24359,0.476074,
-1.25122,0.482178,
-1.26648,0.491333,
-1.27869,0.485229,
-1.28937,0.488281,
-1.30463,0.480652,
-1.31683,0.480652,
-1.33514,0.488281,
-1.35345,0.485229,
-1.36871,0.486755,
-1.38855,0.482178,
-1.40686,0.482178,
-1.42822,0.491333,
-1.45416,0.486755,
-1.47247,0.486755,
-1.49231,0.480652,
-1.51825,0.482178,
-1.54266,0.488281,
-1.56555,0.486755,
-1.59149,0.486755,
-1.61743,0.482178,
-1.63727,0.482178,
-1.66016,0.486755,
-1.68304,0.482178,
-1.70898,0.483704,
-1.73645,0.476074,
-1.75934,0.4776,
-1.78528,0.488281,
-1.81427,0.485229,
-1.83411,0.483704,
-1.85852,0.479126,
-1.88599,0.480652,
-1.90887,0.485229,
-1.93329,0.482178,
-1.9516,0.485229,
-1.97144,0.4776,
-1.99585,0.476074,
-2.01569,0.485229,
-2.03094,0.485229,
-2.05383,0.483704,
-2.06909,0.479126,
-2.09045,0.479126,
-2.11029,0.485229,
-2.13013,0.485229,
-2.14996,0.485229,
-2.17133,0.479126,
-2.18811,0.479126,
-2.2049,0.483704,
-2.21863,0.483704,
-2.23389,0.483704,
-2.24304,0.4776,
-2.24609,0.4776,
-2.24457,0.489807,
-2.23236,0.480652,
-2.22168,0.488281,
-2.19727,0.480652,
-2.1698,0.4776,
-2.13318,0.488281,
-2.08588,0.482178,
-2.03552,0.485229,
-1.97449,0.479126,
-1.91345,0.480652,
-1.84784,0.483704,
-1.77002,0.483704,
-1.6922,0.485229,
-1.60828,0.476074,
-1.5213,0.479126,
-1.43585,0.486755,
-1.34735,0.483704,
-1.25885,0.483704,
-1.17493,0.479126,
-1.091,0.480652,
-1.01013,0.483704,
-0.930786,0.485229,
-0.854492,0.485229,
-0.787354,0.4776,
-0.726318,0.480652,
-0.671387,0.486755,
-0.621033,0.485229,
-0.578308,0.483704,
-0.540161,0.479126,
-0.509644,0.479126,
-0.486755,0.486755,
-0.468445,0.486755,
-0.456238,0.483704,
-0.445557,0.4776,
-0.444031,0.482178,
-0.444031,0.486755,
-0.45166,0.482178,
-0.457764,0.485229,
-0.466919,0.476074,
-0.483704,0.480652,
-0.502014,0.486755,
-0.520325,0.482178,
-0.541687,0.482178,
-0.566101,0.480652,
-0.592041,0.480652,
-0.621033,0.483704,
-0.646973,0.486755,
-0.674438,0.485229,
-0.71106,0.482178,
-0.741577,0.479126,
-0.775146,0.485229,
-0.80719,0.483704,
-0.839233,0.483704,
-0.871277,0.482178,
-0.906372,0.483704,
-0.93689,0.485229,
-0.968933,0.482178,
-1.00098,0.480652,
-1.03455,0.4776,
-1.05896,0.476074,
-1.08643,0.485229,
-1.10779,0.482178,
-1.13068,0.482178,
-1.14899,0.4776,
-1.16272,0.479126,
-1.1795,0.483704,
-1.18866,0.482178,
-1.19934,0.482178,
-1.20544,0.476074,
-1.21155,0.479126,
-1.2085,0.482178,
-1.20544,0.482178,
-1.20544,0.482178,
-1.20544,0.476074,
-1.19934,0.4776,
-1.19019,0.483704,
-1.18713,0.480652,
-1.17798,0.482178,
-1.1734,0.476074,
-1.16119,0.479126,
-1.15509,0.483704,
-1.14594,0.482178,
-1.13831,0.482178,
-1.13068,0.476074,
-1.12305,0.4776,
-1.12152,0.483704,
-1.11389,0.479126,
-1.11084,0.480652,
-1.11084,0.476074,
-1.11237,0.476074,
-1.11237,0.480652,
-1.11542,0.483704,
-1.12,0.482178,
-1.12762,0.474548,
-1.12915,0.479126,
-1.13983,0.482178,
-1.14899,0.483704,
-1.15967,0.479126,
-1.17188,0.476074,
-1.18103,0.474548,
-1.19629,0.483704,
-1.21307,0.485229,
-1.22375,0.479126,
-1.23749,0.4776,
-1.2558,0.480652,
-1.27411,0.483704,
-1.28937,0.485229,
-1.31226,0.4776,
-1.33362,0.479126,
-1.35498,0.4776,
-1.37787,0.485229,
-1.40228,0.483704,
-1.42517,0.482178,
-1.45416,0.479126,
-1.4801,0.4776,
-1.50452,0.480652,
-1.53809,0.482178,
-1.56097,0.480652,
-1.58844,0.476074,
-1.61438,0.479126,
-1.63879,0.479126,
-1.66473,0.482178,
-1.68915,0.480652,
-1.71051,0.471497,
-1.73798,0.479126,
-1.76697,0.480652,
-1.79291,0.485229,
-1.81427,0.480652,
-1.83716,0.473022,
-1.8631,0.479126,
-1.89362,0.482178,
-1.9165,0.483704,
-1.94092,0.480652,
-1.96838,0.474548,
-1.98669,0.476074,
-2.01416,0.482178,
-2.034,0.4776,
-2.05688,0.479126,
-2.08435,0.476074,
-2.10419,0.4776,
-2.13013,0.479126,
-2.14996,0.482178,
-2.17896,0.479126,
-2.19421,0.471497,
-2.21863,0.479126,
-2.23389,0.479126,
-2.24609,0.483704,
-2.25525,0.4776,
-2.25983,0.474548,
-2.26288,0.474548,
-2.25677,0.480652,
-2.24915,0.483704,
-2.23389,0.474548,
-2.21405,0.474548,
-2.17896,0.476074,
-2.14081,0.4776,
-2.0874,0.483704,
-2.03857,0.476074,
-1.97906,0.476074,
-1.91345,0.474548,
-1.84326,0.4776,
-1.76392,0.482178,
-1.67999,0.474548,
-1.59302,0.473022,
-1.50757,0.476074,
-1.41296,0.479126,
-1.32294,0.483704,
-1.22833,0.474548,
-1.13831,0.474548,
-1.0498,0.473022,
-0.970459,0.4776,
-0.886536,0.485229,
-0.814819,0.474548,
-0.743103,0.473022,
-0.679016,0.474548,
-0.622559,0.4776,
-0.575256,0.480652,
-0.534058,0.474548,
-0.498962,0.471497,
-0.462341,0.479126,
-0.437927,0.4776,
-0.419617,0.482178,
-0.405884,0.476074,
-0.398254,0.476074,
-0.396729,0.473022,
-0.401306,0.479126,
-0.411987,0.482178,
-0.424194,0.4776,
-0.436401,0.473022,
-0.45166,0.474548,
-0.471497,0.4776,
-0.497437,0.480652,
-0.521851,0.4776,
-0.544739,0.471497,
-0.570679,0.471497,
-0.598145,0.476074,
-0.627136,0.482178,
-0.662231,0.4776,
-0.697327,0.471497,
-0.726318,0.473022,
-0.765991,0.474548,
-0.804138,0.482178,
-0.842285,0.476074,
-0.878906,0.473022,
-0.915527,0.469971,
-0.950623,0.4776,
-0.98114,0.483704,
-1.01471,0.4776,
-1.0498,0.473022,
-1.08032,0.473022,
-1.10779,0.4776,
-1.13678,0.485229,
-1.15967,0.476074,
-1.18408,0.473022,
-1.20544,0.473022,
-1.22528,0.480652,
-1.23749,0.485229,
-1.25122,0.479126,
-1.25885,0.473022,
-1.26038,0.473022,
-1.26495,0.4776,
-1.26801,0.483704,
-1.26343,0.474548,
-1.2558,0.474548,
-1.25732,0.473022,
-1.24969,0.476074,
-1.23749,0.482178,
-1.22986,0.4776,
-1.22375,0.474548,
-1.21765,0.473022,
-1.20239,0.4776,
-1.19629,0.482178,
-1.18713,0.4776,
-1.18256,0.471497,
-1.1734,0.473022,
-1.17188,0.476074,
-1.16272,0.483704,
-1.16119,0.474548,
-1.15662,0.474548,
-1.15967,0.474548,
-1.16425,0.479126,
-1.1673,0.482178,
-1.1734,0.476074,
-1.18256,0.474548,
-1.19019,0.473022,
-1.19934,0.474548,
-1.21002,0.482178,
-1.22528,0.4776,
-1.23444,0.476074,
-1.25122,0.473022,
-1.26495,0.473022,
-1.28326,0.482178,
-1.30463,0.474548,
-1.32141,0.469971,
-1.34583,0.471497,
-1.37024,0.474548,
-1.39465,0.480652,
-1.41907,0.476074,
-1.44653,0.473022,
-1.4679,0.476074,
-1.49384,0.474548,
-1.52435,0.483704,
-1.54572,0.476074,
-1.57166,0.469971,
-1.59912,0.471497,
-1.62354,0.476074,
-1.64642,0.480652,
-1.67389,0.4776,
-1.69983,0.473022,
-1.72577,0.471497,
-1.74866,0.476074,
-1.7746,0.485229,
-1.80359,0.474548,
-1.82495,0.476074,
-1.85089,0.473022,
-1.87683,0.474548,
-1.9043,0.485229,
-1.93024,0.471497,
-1.95465,0.474548,
-1.98059,0.473022,
-2.00806,0.4776,
-2.03247,0.483704,
-2.05536,0.474548,
-2.0752,0.469971,
-2.09351,0.471497,
-2.11487,0.479126,
-2.13623,0.483704,
-2.15302,0.476074,
-2.17133,0.4776,
-2.18811,0.473022,
-2.20642,0.4776,
-2.22473,0.480652,
-2.24457,0.476074,
-2.26288,0.474548,
-2.28577,0.473022,
-2.3056,0.473022,
-2.32086,0.482178,
-2.33612,0.474548,
-2.35138,0.474548,
-2.36053,0.471497,
-2.36969,0.473022,
-2.36969,0.479126,
-2.37122,0.476074,
-2.36359,0.473022,
-2.3468,0.471497,
-2.32849,0.474548,
-2.29492,0.483704,
-2.25677,0.476074,
-2.21252,0.476074,
-2.16217,0.469971,
-2.10114,0.473022,
-2.03094,0.485229,
-1.9577,0.476074,
-1.87988,0.473022,
-1.79443,0.469971,
-1.70746,0.479126,
-1.61438,0.482178,
-1.52435,0.476074,
-1.42822,0.474548,
-1.33362,0.473022,
-1.23749,0.4776,
-1.14136,0.480652,
-1.04828,0.473022,
-0.958252,0.474548,
-0.874329,0.468445,
-0.794983,0.476074,
-0.718689,0.482178,
-0.65155,0.474548,
-0.588989,0.473022,
-0.535583,0.471497,
-0.480652,0.4776,
-0.43335,0.482178,
-0.398254,0.471497,
-0.364685,0.474548,
-0.340271,0.473022,
-0.317383,0.479126,
-0.305176,0.480652,
-0.296021,0.471497,
-0.291443,0.476074,
-0.288391,0.471497,
-0.294495,0.479126,
-0.300598,0.482178,
-0.315857,0.469971,
-0.32959,0.473022,
-0.346375,0.471497,
-0.361633,0.4776,
-0.384521,0.480652,
-0.410461,0.474548,
-0.431824,0.471497,
-0.460815,0.471497,
-0.489807,0.479126,
-0.523376,0.480652,
-0.558472,0.474548,
-0.593567,0.474548,
-0.630188,0.474548,
-0.668335,0.480652,
-0.704956,0.479126,
-0.740051,0.474548,
-0.779724,0.474548,
-0.814819,0.473022,
-0.85144,0.480652,
-0.888062,0.479126,
-0.920105,0.474548,
-0.944519,0.473022,
-0.973511,0.474548,
-1.00098,0.4776,
-1.02386,0.4776,
-1.0437,0.469971,
-1.06049,0.474548,
-1.07422,0.469971,
-1.08185,0.4776,
-1.09406,0.480652,
-1.10474,0.469971,
-1.10474,0.471497,
-1.10474,0.473022,
-1.10931,0.480652,
-1.10931,0.479126,
-1.10626,0.473022,
-1.10168,0.473022,
-1.09558,0.471497,
-1.091,0.4776,
-1.08185,0.4776,
-1.07574,0.471497,
-1.06506,0.473022,
-1.05286,0.471497,
-1.04828,0.479126,
-1.0437,0.479126,
-1.03912,0.468445,
-1.02997,0.474548,
-1.02844,0.473022,
-1.02997,0.483704,
-1.02692,0.482178,
-1.02539,0.474548,
-1.02997,0.4776,
-1.03302,0.473022,
-1.03607,0.479126,
-1.04523,0.482178,
-1.05438,0.473022,
-1.06201,0.473022,
-1.0788,0.473022,
-1.09406,0.480652,
-1.11542,0.4776,
-1.13068,0.473022,
-1.14899,0.471497,
-1.1673,0.473022,
-1.19171,0.482178,
-1.21307,0.4776,
-1.23291,0.473022,
-1.25122,0.471497,
-1.27716,0.473022,
-1.30615,0.483704,
-1.32294,0.4776,
-1.3504,0.473022,
-1.37939,0.4776,
-1.40228,0.471497,
-1.4267,0.480652,
-1.45721,0.479126,
-1.48468,0.474548,
-1.50757,0.474548,
-1.53503,0.471497,
-1.56097,0.480652,
-1.58997,0.4776,
-1.61438,0.473022,
-1.64032,0.473022,
-1.66626,0.473022,
-1.69067,0.482178,
-1.71661,0.4776,
-1.74255,0.474548,
-1.77002,0.474548,
-1.79749,0.468445,
-1.81732,0.480652,
-1.84784,0.4776,
-1.87225,0.471497,
-1.89972,0.471497,
-1.92108,0.473022,
-1.94244,0.480652,
-1.96381,0.479126,
-1.98364,0.474548,
-2.005,0.474548,
-2.02332,0.473022,
-2.04468,0.480652,
-2.06909,0.4776,
-2.08893,0.473022,
-2.11639,0.471497,
-2.14081,0.471497,
-2.16827,0.482178,
-2.18506,0.4776,
-2.20947,0.474548,
-2.23694,0.474548,
-2.26135,0.471497,
-2.28271,0.483704,
-2.30255,0.480652,
-2.32697,0.471497,
-2.34375,0.471497,
-2.36053,0.469971,
-2.37579,0.483704,
-2.38647,0.479126,
-2.3941,0.473022,
-2.39716,0.471497,
-2.39563,0.474548,
-2.39105,0.480652,
-2.37579,0.479126,
-2.35443,0.473022,
-2.32086,0.473022,
-2.28271,0.471497,
-2.22931,0.482178,
-2.17438,0.4776,
-2.10876,0.4776,
-2.03857,0.474548,
-1.95923,0.474548,
-1.87531,0.480652,
-1.78528,0.4776,
-1.6922,0.474548,
-1.59302,0.473022,
-1.49078,0.474548,
-1.37939,0.482178,
-1.28174,0.476074,
-1.17798,0.473022,
-1.08948,0.474548,
-0.999451,0.473022,
-0.91095,0.482178,
-0.831604,0.476074,
-0.75531,0.473022,
-0.68512,0.473022,
-0.62561,0.473022,
-0.566101,0.479126,
-0.514221,0.4776,
-0.469971,0.473022,
-0.427246,0.474548,
-0.402832,0.473022,
-0.375366,0.482178,
-0.354004,0.476074,
-0.343323,0.473022,
-0.337219,0.471497,
-0.32959,0.476074,
-0.32959,0.479126,
-0.332642,0.476074,
-0.338745,0.469971,
-0.354004,0.476074,
-0.366211,0.473022,
-0.38147,0.482178,
-0.40741,0.479126,
-0.428772,0.474548,
-0.453186,0.474548,
-0.4776,0.474548,
-0.506592,0.482178,
-0.534058,0.4776,
-0.563049,0.474548,
-0.596619,0.473022,
-0.630188,0.471497,
-0.665283,0.483704,
-0.698853,0.4776,
-0.737,0.473022,
-0.772095,0.473022,
-0.804138,0.469971,
-0.839233,0.480652,
-0.874329,0.4776,
-0.912476,0.476074,
-0.947571,0.473022,
-0.975037,0.474548,
-1.00403,0.4776,
-1.02997,0.479126,
-1.05591,0.471497,
-1.08185,0.473022,
-1.10168,0.468445,
-1.12152,0.482178,
-1.13678,0.479126,
-1.15204,0.474548,
-1.15967,0.473022,
-1.17645,0.471497,
-1.17798,0.480652,
-1.18256,0.4776,
-1.18713,0.480652,
-1.18408,0.469971,
-1.18103,0.471497,
-1.1795,0.479126,
-1.17645,0.476074,
-1.1673,0.476074,
-1.15662,0.469971,
-1.15051,0.473022,
-1.14288,0.479126,
-1.1322,0.476074,
-1.1261,0.474548,
-1.11694,0.476074,
-1.10779,0.476074,
-1.10168,0.4776,
-1.09558,0.4776,
-1.09253,0.476074,
-1.08643,0.471497,
-1.08795,0.476074,
-1.091,0.480652,
-1.09558,0.4776,
-1.10626,0.474548,
-1.11389,0.473022,
-1.12457,0.473022,
-1.13831,0.479126,
-1.14899,0.479126,
-1.16425,0.474548,
-1.17645,0.473022,
-1.19324,0.473022,
-1.21002,0.482178,
-1.22986,0.479126,
-1.25122,0.476074,
-1.27563,0.474548,
-1.29395,0.471497,
-1.31378,0.480652,
-1.3443,0.479126,
-1.36719,0.474548,
-1.39618,0.473022,
-1.4267,0.471497,
-1.45416,0.480652,
-1.4801,0.476074,
-1.50757,0.471497,
-1.53809,0.471497,
-1.56403,0.476074,
-1.59302,0.476074,
-1.62201,0.476074,
-1.65558,0.474548,
-1.68304,0.473022,
-1.70898,0.471497,
-1.73798,0.480652,
-1.76086,0.476074,
-1.7868,0.4776,
-1.80817,0.474548,
-1.83563,0.473022,
-1.86157,0.479126,
-1.88599,0.4776,
-1.91345,0.473022,
-1.93787,0.473022,
-1.95923,0.473022,
-1.98212,0.480652,
-2.00806,0.476074,
-2.034,0.476074,
-2.05994,0.471497,
-2.08435,0.473022,
-2.10724,0.474548,
-2.12708,0.476074,
-2.15454,0.479126,
-2.17743,0.471497,
-2.19727,0.471497,
-2.21863,0.480652,
-2.23694,0.4776,
-2.2583,0.479126,
-2.28119,0.471497,
-2.30103,0.474548,
-2.32086,0.4776,
-2.34222,0.4776,
-2.35748,0.4776,
-2.37427,0.471497,
-2.39258,0.469971,
-2.41241,0.4776,
-2.43378,0.479126,
-2.45056,0.4776,
-2.46429,0.473022,
-2.48108,0.471497,
-2.49176,0.4776,
-2.50092,0.479126,
-2.52075,0.474548,
-2.52686,0.469971,
-2.53754,0.469971,
-2.53906,0.476074,
-2.53296,0.4776,
-2.5238,0.4776,
-2.50397,0.473022,
-2.47955,0.474548,
-2.44598,0.4776,
-2.40173,0.474548,
-2.34985,0.474548,
-2.28882,0.471497,
-2.22473,0.469971,
-2.14996,0.473022,
-2.0752,0.476074,
-1.99127,0.4776,
-1.9043,0.474548,
-1.81274,0.469971,
-1.72119,0.4776,
-1.62506,0.476074,
-1.53198,0.480652,
-1.43127,0.473022,
-1.3382,0.469971,
-1.24817,0.476074,
-1.15662,0.473022,
-1.07574,0.480652,
-0.994873,0.471497,
-0.923157,0.469971,
-0.854492,0.474548,
-0.793457,0.4776,
-0.741577,0.4776,
-0.689697,0.473022,
-0.653076,0.471497,
-0.611877,0.474548,
-0.58136,0.474548,
-0.561523,0.480652,
-0.547791,0.473022,
-0.535583,0.469971,
-0.52948,0.474548,
-0.52948,0.474548,
-0.535583,0.4776,
-0.538635,0.471497,
-0.547791,0.468445,
-0.561523,0.473022,
-0.576782,0.476074,
-0.596619,0.480652,
-0.617981,0.469971,
-0.640869,0.469971,
-0.668335,0.474548,
-0.692749,0.4776,
-0.720215,0.4776,
-0.746155,0.471497,
-0.779724,0.468445,
-0.810242,0.474548,
-0.845337,0.471497,
-0.878906,0.476074,
-0.912476,0.469971,
-0.947571,0.469971,
-0.985718,0.473022,
-1.02081,0.473022,
-1.05438,0.476074,
-1.08795,0.468445,
-1.12,0.465393,
-1.14594,0.476074,
-1.17493,0.473022,
-1.19934,0.473022,
-1.22375,0.468445,
-1.24817,0.468445,
-1.26953,0.476074,
-1.29089,0.476074,
-1.30615,0.476074,
-1.31683,0.469971,
-1.32904,0.468445,
-1.33514,0.476074,
-1.34277,0.473022,
-1.3443,0.4776,
-1.34583,0.471497,
-1.34735,0.468445,
-1.33972,0.471497,
-1.33514,0.474548,
-1.33209,0.4776,
-1.32599,0.473022,
-1.31989,0.468445,
-1.31531,0.473022,
-1.3031,0.476074,
-1.29395,0.480652,
-1.28632,0.4776,
-1.28021,0.468445,
-1.26953,0.476074,
-1.26495,0.474548,
-1.25732,0.474548,
-1.2558,0.474548,
-1.25122,0.471497,
-1.2558,0.473022,
-1.26038,0.471497,
-1.2619,0.479126,
-1.26648,0.474548,
-1.27716,0.465393,
-1.28479,0.473022,
-1.29547,0.473022,
-1.3031,0.476074,
-1.31989,0.473022,
-1.33972,0.468445,
-1.35803,0.474548,
-1.37787,0.476074,
-1.39923,0.4776,
-1.42059,0.473022,
-1.44348,0.471497,
-1.46637,0.474548,
-1.48468,0.473022,
-1.50757,0.474548,
-1.53351,0.474548,
-1.5564,0.468445,
-1.57776,0.471497,
-1.60675,0.473022,
-1.62964,0.471497,
-1.65863,0.473022,
-1.68762,0.473022,
-1.71661,0.473022,
-1.74561,0.473022,
-1.77612,0.474548,
-1.80359,0.471497,
-1.83258,0.471497,
-1.86005,0.471497,
-1.88751,0.473022,
-1.91345,0.473022,
-1.93787,0.469971,
-1.96838,0.466919,
-1.99738,0.468445,
-2.02332,0.471497,
-2.05231,0.473022,
-2.0752,0.469971,
-2.10724,0.474548,
-2.1347,0.468445,
-2.15759,0.471497,
-2.18201,0.474548,
-2.20337,0.469971,
-2.22168,0.465393,
-2.24915,0.473022,
-2.27509,0.469971,
-2.29034,0.474548,
-2.31628,0.468445,
-2.33154,0.468445,
-2.35138,0.471497,
-2.37579,0.471497,
-2.3941,0.473022,
-2.41547,0.469971,
-2.43073,0.468445,
-2.45056,0.471497,
-2.46887,0.474548,
-2.48871,0.469971,
-2.5116,0.471497,
-2.53143,0.465393,
-2.54822,0.474548,
-2.57111,0.471497,
-2.59094,0.474548,
-2.60315,0.469971,
-2.62299,0.469971,
-2.63977,0.473022,
-2.65808,0.473022,
-2.67181,0.474548,
-2.6947,0.469971,
-2.70844,0.469971,
-2.72522,0.474548,
-2.73743,0.473022,
-2.75421,0.473022,
-2.75879,0.468445,
-2.76337,0.466919,
-2.76031,0.471497,
-2.75269,0.469971,
-2.742,0.476074,
-2.72827,0.469971,
-2.70233,0.468445,
-2.67181,0.473022,
-2.63062,0.471497,
-2.58636,0.471497,
-2.52838,0.469971,
-2.4704,0.466919,
-2.40021,0.471497,
-2.33154,0.471497,
-2.24762,0.4776,
-2.1637,0.471497,
-2.07672,0.469971,
-1.98059,0.471497,
-1.88446,0.471497,
-1.78528,0.474548,
-1.68762,0.471497,
-1.59607,0.468445,
-1.49841,0.471497,
-1.41144,0.473022,
-1.32599,0.473022,
-1.24664,0.469971,
-1.17645,0.473022,
-1.10321,0.471497,
-1.04218,0.474548,
-0.98877,0.471497,
-0.938416,0.469971,
-0.901794,0.473022,
-0.865173,0.469971,
-0.834656,0.473022,
-0.810242,0.473022,
-0.793457,0.473022,
-0.78125,0.471497,
-0.776672,0.471497,
-0.776672,0.473022,
-0.782776,0.473022,
-0.793457,0.468445,
-0.810242,0.469971,
-0.83313,0.471497,
-0.845337,0.469971,
-0.866699,0.474548,
-0.892639,0.469971,
-0.918579,0.471497,
-0.941467,0.469971,
-0.973511,0.469971,
-1.00403,0.474548,
-1.02997,0.466919,
-1.06506,0.466919,
-1.09558,0.474548,
-1.13373,0.471497,
-1.17188,0.473022,
-1.21002,0.466919,
-1.25122,0.468445,
-1.29395,0.469971,
-1.33057,0.473022,
-1.36871,0.473022,
-1.41144,0.471497,
-1.44806,0.466919,
-1.4801,0.473022,
-1.51215,0.473022,
-1.54114,0.474548,
-1.56555,0.466919,
-1.59149,0.469971,
-1.61438,0.471497,
-1.63727,0.473022,
-1.65405,0.474548,
-1.66473,0.468445,
-1.67542,0.468445,
-1.68304,0.471497,
-1.68304,0.476074,
-1.68762,0.474548,
-1.68762,0.468445,
-1.68762,0.468445,
-1.68304,0.473022,
-1.67694,0.473022,
-1.67236,0.473022,
-1.66321,0.469971,
-1.65863,0.471497,
-1.65253,0.473022,
-1.64337,0.474548,
-1.63422,0.474548,
-1.62811,0.471497,
-1.62048,0.473022,
-1.6098,0.466919,
-1.60675,0.476074,
-1.60217,0.473022,
-1.59912,0.471497,
-1.59607,0.473022,
-1.58997,0.473022,
-1.58844,0.4776,
-1.58844,0.473022,
-1.59302,0.469971,
-1.59912,0.468445,
-1.6037,0.471497,
-1.6098,0.471497,
-1.62201,0.474548,
-1.62811,0.469971,
-1.64337,0.466919,
-1.65253,0.474548,
-1.66779,0.471497,
-1.6861,0.473022,
-1.70898,0.471497,
-1.72882,0.469971,
-1.74866,0.474548,
-1.77155,0.476074,
-1.79443,0.474548,
-1.81732,0.471497,
-1.84174,0.471497,
-1.86768,0.469971,
-1.89362,0.473022,
-1.91956,0.474548,
-1.94855,0.469971,
-1.97601,0.469971,
-2.00806,0.471497,
-2.04163,0.474548,
-2.06757,0.471497,
-2.09351,0.471497,
-2.11945,0.468445,
-2.14844,0.469971,
-2.17438,0.473022,
-2.20337,0.471497,
-2.22321,0.469971,
-2.25067,0.471497,
-2.27356,0.468445,
-2.3056,0.473022,
-2.32849,0.471497,
-2.35748,0.471497,
-2.388,0.471497,
-2.41241,0.469971,
-2.43835,0.4776,
-2.46582,0.469971,
-2.49329,0.469971,
-2.51617,0.468445,
-2.53754,0.469971,
-2.565,0.476074,
-2.58789,0.471497,
-2.61536,0.469971,
-2.63824,0.468445,
-2.66113,0.473022,
-2.67944,0.476074,
-2.70538,0.473022,
-2.72675,0.469971,
-2.74811,0.474548,
-2.76489,0.471497,
-2.7832,0.4776,
-2.80304,0.473022,
-2.82135,0.468445,
-2.83966,0.471497,
-2.8595,0.471497,
-2.87628,0.476074,
-2.89612,0.473022,
-2.91138,0.469971,
-2.92816,0.466919,
-2.94495,0.469971,
-2.96173,0.476074,
-2.98004,0.473022,
-2.99072,0.466919,
-3.00903,0.471497,
-3.02277,0.469971,
-3.04108,0.471497,
-3.05176,0.476074,
-3.07007,0.469971,
-3.0838,0.474548,
-3.09296,0.469971,
-3.10364,0.473022,
-3.10364,0.474548,
-3.09601,0.468445,
-3.08075,0.469971,
-3.06549,0.471497,
-3.03497,0.476074,
-2.99988,0.474548,
-2.95563,0.469971,
-2.9068,0.468445,
-2.84271,0.471497,
-2.7771,0.476074,
-2.70538,0.473022,
-2.62604,0.471497,
-2.54059,0.468445,
-2.45056,0.473022,
-2.35291,0.474548,
-2.25372,0.4776,
-2.14844,0.471497,
-2.04926,0.471497,
-1.94244,0.469971,
-1.83716,0.476074,
-1.73798,0.471497,
-1.63879,0.471497,
-1.55029,0.474548,
-1.46027,0.471497,
-1.38397,0.476074,
-1.31531,0.474548,
-1.24969,0.471497,
-1.19171,0.471497,
-1.14136,0.474548,
-1.09253,0.476074,
-1.05743,0.473022,
-1.02844,0.471497,
-1.00555,0.468445,
-0.991821,0.471497,
-0.978088,0.476074,
-0.967407,0.479126,
-0.967407,0.468445,
-0.964355,0.468445,
-0.967407,0.471497,
-0.978088,0.4776,
-0.982666,0.479126,
-0.993347,0.469971,
-1.01013,0.468445,
-1.02539,0.471497,
-1.04675,0.476074,
-1.06812,0.474548,
-1.08643,0.471497,
-1.11084,0.468445,
-1.13678,0.469971,
-1.16119,0.4776,
-1.18713,0.476074,
-1.2146,0.469971,
-1.24817,0.471497,
-1.27869,0.471497,
-1.31073,0.4776,
-1.3382,0.474548,
-1.37024,0.469971,
-1.40076,0.469971,
-1.43585,0.471497,
-1.4679,0.474548,
-1.49841,0.480652,
-1.5274,0.474548,
-1.5564,0.471497,
-1.57776,0.468445,
-1.5976,0.474548,
-1.61285,0.476074,
-1.62964,0.468445,
-1.63727,0.473022,
-1.65405,0.469971,
-1.65863,0.4776,
-1.66931,0.4776,
-1.67389,0.473022,
-1.67236,0.469971,
-1.67542,0.469971,
-1.67694,0.4776,
-1.67694,0.473022,
-1.67389,0.473022,
-1.66931,0.473022,
-1.66321,0.473022,
-1.6571,0.476074,
-1.64642,0.474548,
-1.63879,0.473022,
-1.63574,0.469971,
-1.62964,0.471497,
-1.62048,0.4776,
-1.61133,0.471497,
-1.60828,0.469971,
-1.60065,0.469971,
-1.59302,0.474548,
-1.58691,0.479126,
-1.58539,0.473022,
-1.58386,0.473022,
-1.58081,0.469971,
-1.58386,0.473022,
-1.58081,0.4776,
-1.58539,0.473022,
-1.5976,0.473022,
-1.60522,0.473022,
-1.61438,0.471497,
-1.62659,0.479126,
-1.64185,0.474548,
-1.6571,0.473022,
-1.67389,0.469971,
-1.69678,0.476074,
-1.71661,0.4776,
-1.74103,0.4776,
-1.76544,0.471497,
-1.79138,0.468445,
-1.81274,0.473022,
-1.84174,0.473022,
-1.8631,0.474548,
-1.88446,0.469971,
-1.9104,0.471497,
-1.93787,0.476074,
-1.96533,0.482178,
-1.9928,0.4776,
-2.02026,0.471497,
-2.04926,0.466919,
-2.0752,0.473022,
-2.10266,0.4776,
-2.12708,0.473022,
-2.15302,0.471497,
-2.18201,0.471497,
-2.20947,0.476074,
-2.23389,0.480652,
-2.26135,0.474548,
-2.28882,0.469971,
-2.31781,0.471497,
-2.34375,0.473022,
-2.37732,0.4776,
-2.40326,0.473022,
-2.42767,0.471497,
-2.45209,0.473022,
-2.47955,0.471497,
-2.50244,0.479126,
-2.52533,0.4776,
-2.54822,0.473022,
-2.57416,0.474548,
-2.59857,0.468445,
-2.62299,0.4776,
-2.64282,0.476074,
-2.66418,0.469971,
-2.68707,0.471497,
-2.71301,0.473022,
-2.73438,0.479126,
-2.75574,0.474548,
-2.77252,0.474548,
-2.79236,0.469971,
-2.81067,0.473022,
-2.82745,0.473022,
-2.84424,0.476074,
-2.86713,0.473022,
-2.88391,0.471497,
-2.9068,0.474548,
-2.92511,0.4776,
-2.94189,0.476074,
-2.96478,0.474548,
-2.98157,0.469971,
-3.0014,0.469971,
-3.01514,0.4776,
-3.03345,0.474548,
-3.05023,0.474548,
-3.06549,0.469971,
-3.0838,0.471497,
-3.10059,0.474548,
-3.11737,0.476074,
-3.13416,0.474548,
-3.15094,0.469971,
-3.1601,0.474548,
-3.16772,0.474548,
-3.1662,0.474548,
-3.16162,0.471497,
-3.14484,0.468445,
-3.12347,0.471497,
-3.09753,0.474548,
-3.05939,0.4776,
-3.01514,0.471497,
-2.96326,0.466919,
-2.90527,0.473022,
-2.83661,0.4776,
-2.76184,0.476074,
-2.68402,0.473022,
-2.59552,0.469971,
-2.50244,0.473022,
-2.40479,0.476074,
-2.31018,0.474548,
-2.20184,0.476074,
-2.10419,0.473022,
-2.00348,0.474548,
-1.90125,0.480652,
-1.80664,0.471497,
-1.71051,0.474548,
-1.62506,0.468445,
-1.54266,0.473022,
-1.46484,0.480652,
-1.3916,0.4776,
-1.32599,0.476074,
-1.26648,0.469971,
-1.21155,0.474548,
-1.1673,0.4776,
-1.12762,0.474548,
-1.08795,0.474548,
-1.06354,0.468445,
-1.0437,0.476074,
-1.02386,0.4776,
-1.01471,0.476074,
-1.00861,0.473022,
-1.01013,0.466919,
-1.01318,0.476074,
-1.01776,0.4776,
-1.02081,0.473022,
-1.03912,0.474548,
-1.04675,0.465393,
-1.06049,0.4776,
-1.08185,0.476074,
-1.10626,0.476074,
-1.1261,0.474548,
-1.15662,0.468445,
-1.17798,0.4776,
-1.20544,0.479126,
-1.22528,0.4776,
-1.24969,0.471497,
-1.27106,0.462341,
-1.29547,0.473022,
-1.32751,0.4776,
-1.35803,0.474548,
-1.38855,0.471497,
-1.42365,0.465393,
-1.45569,0.476074,
-1.48468,0.4776,
-1.51825,0.479126,
-1.55029,0.476074,
-1.57318,0.468445,
-1.60217,0.473022,
-1.62811,0.4776,
-1.64948,0.476074,
-1.66931,0.474548,
-1.6861,0.462341,
-1.69525,0.476074,
-1.70441,0.480652,
-1.71509,0.474548,
-1.72882,0.4776,
-1.7334,0.462341,
-1.73645,0.471497,
-1.74255,0.4776,
-1.74408,0.4776,
-1.74103,0.476074,
-1.74255,0.465393,
-1.73645,0.476074,
-1.73187,0.479126,
-1.72729,0.480652,
-1.72119,0.473022,
-1.71509,0.468445,
-1.71051,0.471497,
-1.70135,0.479126,
-1.6983,0.4776,
-1.69525,0.473022,
-1.68915,0.465393,
-1.67999,0.474548,
-1.68152,0.479126,
-1.67694,0.474548,
-1.67389,0.474548,
-1.67847,0.466919,
-1.67694,0.476074,
-1.68304,0.482178,
-1.68762,0.476074,
-1.69525,0.473022,
-1.70441,0.460815,
-1.71814,0.474548,
-1.73645,0.482178,
-1.74561,0.4776,
-1.75934,0.476074,
-1.77765,0.465393,
-1.79749,0.473022,
-1.81427,0.479126,
-1.83716,0.476074,
-1.86462,0.476074,
-1.88751,0.462341,
-1.91345,0.474548,
-1.93787,0.479126,
-1.96686,0.476074,
-1.9928,0.4776,
-2.01874,0.465393,
-2.04468,0.474548,
-2.07367,0.476074,
-2.10266,0.479126,
-2.12555,0.476074,
-2.15912,0.462341,
-2.18964,0.469971,
-2.22168,0.476074,
-2.25372,0.476074,
-2.28271,0.473022,
-2.31018,0.465393,
-2.34375,0.474548,
-2.36816,0.476074,
-2.39716,0.476074,
-2.42462,0.473022,
-2.44751,0.462341,
-2.47345,0.471497,
-2.49786,0.476074,
-2.5238,0.473022,
-2.54211,0.474548,
-2.565,0.462341,
-2.59094,0.471497,
-2.61688,0.476074,
-2.63824,0.4776,
-2.66266,0.473022,
-2.68707,0.462341,
-2.71149,0.471497,
-2.7359,0.474548,
-2.75574,0.474548,
-2.77863,0.474548,
-2.79999,0.462341,
-2.82593,0.474548,
-2.84576,0.476074,
-2.86407,0.4776,
-2.88544,0.471497,
-2.90222,0.462341,
-2.92053,0.474548,
-2.94037,0.476074,
-2.95868,0.471497,
-2.97241,0.474548,
-2.9892,0.45929,
-3.00598,0.473022,
-3.02277,0.4776,
-3.0426,0.473022,
-3.05786,0.474548,
-3.0777,0.465393,
-3.09601,0.471497,
-3.11432,0.482178,
-3.13263,0.4776,
-3.14789,0.471497,
-3.16772,0.465393,
-3.18756,0.474548,
-3.20892,0.474548,
-3.22266,0.473022,
-3.23944,0.474548,
-3.25928,0.466919,
-3.27454,0.474548,
-3.28827,0.4776,
-3.29742,0.473022,
-3.30963,0.473022,
-3.31573,0.462341,
-3.31879,0.473022,
-3.31879,0.476074,
-3.31268,0.473022,
-3.29742,0.476074,
-3.28064,0.466919,
-3.2486,0.473022,
-3.21503,0.473022,
-3.17078,0.474548,
-3.12042,0.474548,
-3.06549,0.465393,
-2.99377,0.471497,
-2.92053,0.474548,
-2.83813,0.474548,
-2.75269,0.471497,
-2.65808,0.462341,
-2.56348,0.473022,
-2.45819,0.473022,
-2.35748,0.476074,
-2.25677,0.471497,
-2.15607,0.462341,
-2.05994,0.473022,
-1.96533,0.473022,
-1.87378,0.471497,
-1.78223,0.469971,
-1.6983,0.465393,
-1.62659,0.473022,
-1.5564,0.474548,
-1.49078,0.473022,
-1.4328,0.471497,
-1.39008,0.466919,
-1.3443,0.476074,
-1.3092,0.474548,
-1.27563,0.469971,
-1.2558,0.468445,
-1.23291,0.462341,
-1.21918,0.473022,
-1.21002,0.474548,
-1.21002,0.471497,
-1.21307,0.471497,
-1.21765,0.460815,
-1.23138,0.474548,
-1.24512,0.473022,
-1.2619,0.471497,
-1.28021,0.469971,
-1.30157,0.462341,
-1.32141,0.469971,
-1.34735,0.474548,
-1.37329,0.468445,
-1.39771,0.466919,
-1.42517,0.457764,
-1.45569,0.471497,
-1.48468,0.473022,
-1.51215,0.476074,
-1.54572,0.473022,
-1.57471,0.466919,
-1.60675,0.473022,
-1.63879,0.473022,
-1.66931,0.473022,
-1.70288,0.471497,
-1.7334,0.462341,
-1.76544,0.4776,
-1.78986,0.469971,
-1.81885,0.468445,
-1.84326,0.466919,
-1.87073,0.465393,
-1.88599,0.473022,
-1.90277,0.473022,
-1.9165,0.471497,
-1.93024,0.466919,
-1.93787,0.462341,
-1.94397,0.474548,
-1.94702,0.471497,
-1.95007,0.471497,
-1.95007,0.468445,
-1.95007,0.462341,
-1.94855,0.471497,
-1.94244,0.473022,
-1.93787,0.471497,
-1.93024,0.465393,
-1.91956,0.462341,
-1.91193,0.471497,
-1.89972,0.474548,
-1.88751,0.471497,
-1.88141,0.466919,
-1.87378,0.465393,
-1.86462,0.474548,
-1.85547,0.474548,
-1.84937,0.468445,
-1.84784,0.462341,
-1.84174,0.460815,
-1.84021,0.469971,
-1.84174,0.473022,
-1.83563,0.466919,
-1.83868,0.466919,
-1.84174,0.462341,
-1.84479,0.474548,
-1.84631,0.476074,
-1.85394,0.469971,
-1.86157,0.462341,
-1.87073,0.462341,
-1.87836,0.473022,
-1.89667,0.469971,
-1.9104,0.468445,
-1.92871,0.460815,
-1.94397,0.462341,
-1.95923,0.473022,
-1.98059,0.469971,
-1.9989,0.466919,
-2.02179,0.466919,
-2.0462,0.462341,
-2.06451,0.469971,
-2.08893,0.471497,
-2.11029,0.469971,
-2.14233,0.465393,
-2.16522,0.466919,
-2.19116,0.469971,
-2.21863,0.468445,
-2.24304,0.468445,
-2.27203,0.460815,
-2.29187,0.462341,
-2.31628,0.466919,
-2.34222,0.469971,
-2.37122,0.468445,
-2.39716,0.45929,
-2.42462,0.466919,
-2.44904,0.469971,
-2.47345,0.466919,
-2.49786,0.468445,
-2.52228,0.460815,
-2.54669,0.465393,
-2.56805,0.469971,
-2.59705,0.471497,
-2.61688,0.469971,
-2.6413,0.45929,
-2.66571,0.465393,
-2.69318,0.465393,
-2.71759,0.469971,
-2.74048,0.471497,
-2.76642,0.462341,
-2.78931,0.460815,
-2.80762,0.469971,
-2.83203,0.468445,
-2.85187,0.468445,
-2.87018,0.460815,
-2.89001,0.465393,
-2.90375,0.468445,
-2.92358,0.473022,
-2.93732,0.469971,
-2.9541,0.460815,
-2.97546,0.460815,
-2.9953,0.468445,
-3.00598,0.471497,
-3.02124,0.466919,
-3.03497,0.462341,
-3.05023,0.462341,
-3.06549,0.473022,
-3.07617,0.469971,
-3.0899,0.468445,
-3.10669,0.45929,
-3.12195,0.465393,
-3.13721,0.465393,
-3.14789,0.469971,
-3.15857,0.465393,
-3.17535,0.45929,
-3.18451,0.465393,
-3.19977,0.468445,
-3.21198,0.469971,
-3.22418,0.469971,
-3.23792,0.45929,
-3.25012,0.462341,
-3.2608,0.468445,
-3.27454,0.468445,
-3.28217,0.468445,
-3.28217,0.457764,
-3.27759,0.462341,
-3.26233,0.468445,
-3.24249,0.468445,
-3.2196,0.469971,
-3.18909,0.457764,
-3.14789,0.465393,
-3.10211,0.466919,
-3.04565,0.466919,
-2.98462,0.466919,
-2.91595,0.462341,
-2.84424,0.460815,
-2.76184,0.466919,
-2.67639,0.465393,
-2.59094,0.465393,
-2.49786,0.45929,
-2.40479,0.45929,
-2.31171,0.465393,
-2.2171,0.465393,
-2.12402,0.466919,
-2.03552,0.456238,
-1.95007,0.460815,
-1.8631,0.468445,
-1.78986,0.466919,
-1.71356,0.466919,
-1.64795,0.456238,
-1.58997,0.465393,
-1.53503,0.465393,
-1.48773,0.466919,
-1.44348,0.460815,
-1.40533,0.45929,
-1.37939,0.45929,
-1.35498,0.460815,
-1.33362,0.469971,
-1.32446,0.468445,
-1.31683,0.457764,
-1.31531,0.465393,
-1.32141,0.466919,
-1.32751,0.468445,
-1.3443,0.465393,
-1.35651,0.460815,
-1.37329,0.460815,
-1.39465,0.466919,
-1.41449,0.469971,
-1.4328,0.462341,
-1.46027,0.460815,
-1.48621,0.460815,
-1.50452,0.462341,
-1.53656,0.465393,
-1.56555,0.468445,
-1.59607,0.45929,
-1.62964,0.45929,
-1.66016,0.465393,
-1.6983,0.469971,
-1.73035,0.466919,
-1.76697,0.45929,
-1.80206,0.45929,
-1.83411,0.465393,
-1.86615,0.465393,
-1.89667,0.466919,
-1.93329,0.45929,
-1.96381,0.460815,
-1.9928,0.465393,
-2.02026,0.468445,
-2.0462,0.468445,
-2.06909,0.457764,
-2.08893,0.462341,
-2.10724,0.462341,
-2.12555,0.466919,
-2.14386,0.466919,
-2.14539,0.460815,
-2.14844,0.462341,
-2.14996,0.462341,
-2.15302,0.468445,
-2.15302,0.468445,
-2.15302,0.460815,
-2.14996,0.457764,
-2.14233,0.462341,
-2.13928,0.468445,
-2.13013,0.466919,
-2.12555,0.465393,
-2.11639,0.45929,
-2.11029,0.462341,
-2.10266,0.469971,
-2.08893,0.462341,
-2.08282,0.460815,
-2.0752,0.462341,
-2.07062,0.465393,
-2.06909,0.466919,
-2.06451,0.466919,
-2.05841,0.45929,
-2.05688,0.460815,
-2.05231,0.460815,
-2.05231,0.468445,
-2.05383,0.462341,
-2.06146,0.456238,
-2.06604,0.465393,
-2.07214,0.460815,
-2.0813,0.462341,
-2.09198,0.466919,
-2.10571,0.45929,
-2.11792,0.45929,
-2.13318,0.465393,
-2.14844,0.466919,
-2.16217,0.468445,
-2.18353,0.457764,
-2.20642,0.45929,
-2.22778,0.462341,
-2.24304,0.465393,
-2.27203,0.466919,
-2.29492,0.45929,
-2.31781,0.460815,
-2.3407,0.460815,
-2.36206,0.460815,
-2.38953,0.468445,
-2.41699,0.460815,
-2.43988,0.45929,
-2.46887,0.45929,
-2.49634,0.462341,
-2.52075,0.466919,
-2.54669,0.462341,
-2.57416,0.462341,
-2.59705,0.45929,
-2.62756,0.466919,
-2.65198,0.45929,
-2.67944,0.45929,
-2.71149,0.457764,
-2.73743,0.460815,
-2.76337,0.465393,
-2.78778,0.466919,
-2.81067,0.460815,
-2.83661,0.45929,
-2.85797,0.456238,
-2.87933,0.466919,
-2.90375,0.466919,
-2.92816,0.460815,
-2.94952,0.45929,
-2.97241,0.456238,
-2.99988,0.468445,
-3.01819,0.465393,
-3.04108,0.457764,
-3.06244,0.465393,
-3.08228,0.457764,
-3.09906,0.468445,
-3.1189,0.465393,
-3.13721,0.462341,
-3.15704,0.45929,
-3.1723,0.454712,
-3.18451,0.465393,
-3.20587,0.460815,
-3.22418,0.465393,
-3.24554,0.45929,
-3.26385,0.457764,
-3.28369,0.468445,
-3.29742,0.466919,
-3.31726,0.462341,
-3.33405,0.45929,
-3.3493,0.45929,
-3.36456,0.465393,
-3.38135,0.466919,
-3.39508,0.462341,
-3.41034,0.460815,
-3.42255,0.457764,
-3.43475,0.466919,
-3.44849,0.460815,
-3.45917,0.462341,
-3.4668,0.457764,
-3.47137,0.456238,
-3.47748,0.465393,
-3.47137,0.468445,
-3.4668,0.45929,
-3.45612,0.457764,
-3.43475,0.453186,
-3.41187,0.465393,
-3.3783,0.466919,
-3.33862,0.460815,
-3.29132,0.456238,
-3.23486,0.456238,
-3.16925,0.466919,
-3.09601,0.466919,
-3.02734,0.462341,
-2.94189,0.457764,
-2.85034,0.456238,
-2.75879,0.466919,
-2.65808,0.468445,
-2.5589,0.462341,
-2.45667,0.45929,
-2.35138,0.456238,
-2.25372,0.466919,
-2.14691,0.460815,
-2.04926,0.45929,
-1.94855,0.457764,
-1.85547,0.457764,
-1.76392,0.466919,
-1.67847,0.462341,
-1.60065,0.45929,
-1.5274,0.462341,
-1.46027,0.454712,
-1.40228,0.468445,
-1.35345,0.462341,
-1.3092,0.462341,
-1.27411,0.45929,
-1.24207,0.456238,
-1.2207,0.468445,
-1.20087,0.465393,
-1.19171,0.460815,
-1.18866,0.45929,
-1.19019,0.460815,
-1.19629,0.465393,
-1.20239,0.465393,
-1.21307,0.460815,
-1.22986,0.457764,
-1.24207,0.457764,
-1.2619,0.465393,
-1.28479,0.462341,
-1.30615,0.460815,
-1.32904,0.45929,
-1.35193,0.456238,
-1.38397,0.465393,
-1.40228,0.465393,
-1.42822,0.457764,
-1.45721,0.460815,
-1.48163,0.45929,
-1.51062,0.465393,
-1.53809,0.466919,
-1.57166,0.460815,
-1.60675,0.462341,
-1.63879,0.456238,
-1.66931,0.460815,
-1.69983,0.460815,
-1.7334,0.45929,
-1.75934,0.457764,
-1.78223,0.45929,
-1.80664,0.462341,
-1.83105,0.468445,
-1.84784,0.465393,
-1.8692,0.462341,
-1.88599,0.45929,
-1.89819,0.460815,
-1.90887,0.466919,
-1.91803,0.460815,
-1.92261,0.462341,
-1.93024,0.456238,
-1.92719,0.462341,
-1.92719,0.465393,
-1.92413,0.460815,
-1.92108,0.45929,
-1.91345,0.454712,
-1.9043,0.460815,
-1.90735,0.462341,
-1.89667,0.465393,
-1.88446,0.460815,
-1.87683,0.456238,
-1.86462,0.460815,
-1.85242,0.466919,
-1.84479,0.462341,
-1.83563,0.460815,
-1.8219,0.457764,
-1.81427,0.462341,
-1.80969,0.460815,
-1.80511,0.462341,
-1.80206,0.460815,
-1.80054,0.456238,
-1.79749,0.45929,
-1.80054,0.466919,
-1.80206,0.45929,
-1.80817,0.460815,
-1.8158,0.453186,
-1.82495,0.460815,
-1.83716,0.466919,
-1.84937,0.466919,
-1.86462,0.460815,
-1.87988,0.453186,
-1.89667,0.466919,
-1.9165,0.462341,
-1.93634,0.462341,
-1.96533,0.462341,
-1.98364,0.45929,
-2.00806,0.468445,
-2.02789,0.462341,
-2.05231,0.460815,
-2.07672,0.45929,
-2.09961,0.456238,
-2.1225,0.466919,
-2.14691,0.462341,
-2.17438,0.460815,
-2.19879,0.457764,
-2.22626,0.456238,
-2.25372,0.466919,
-2.28271,0.45929,
-2.31171,0.465393,
-2.34222,0.460815,
-2.36816,0.457764,
-2.39563,0.469971,
-2.42157,0.466919,
-2.44904,0.465393,
-2.47345,0.460815,
-2.49939,0.457764,
-2.52533,0.466919,
-2.54822,0.466919,
-2.57416,0.460815,
-2.60162,0.456238,
-2.62451,0.45929,
-2.64587,0.466919,
-2.67181,0.466919,
-2.69928,0.465393,
-2.72217,0.462341,
-2.74353,0.456238,
-2.76642,0.469971,
-2.78778,0.460815,
-2.80914,0.465393,
-2.82745,0.460815,
-2.84729,0.456238,
-2.86865,0.468445,
-2.88696,0.465393,
-2.90985,0.465393,
-2.92816,0.460815,
-2.94952,0.45929,
-2.96936,0.466919,
-2.98767,0.462341,
-3.00598,0.462341,
-3.02429,0.465393,
-3.04413,0.453186,
-3.06702,0.465393,
-3.0838,0.466919,
-3.10516,0.462341,
-3.12042,0.462341,
-3.13263,0.457764,
-3.15094,0.466919,
-3.16467,0.466919,
-3.17688,0.460815,
-3.19519,0.462341,
-3.21198,0.456238,
-3.22723,0.465393,
-3.24402,0.465393,
-3.25623,0.469971,
-3.26843,0.462341,
-3.27454,0.457764,
-3.28217,0.465393,
-3.27759,0.466919,
-3.26996,0.462341,
-3.25165,0.462341,
-3.23029,0.457764,
-3.20435,0.466919,
-3.16772,0.462341,
-3.11737,0.465393,
-3.07007,0.460815,
-3.01056,0.456238,
-2.948,0.466919,
-2.87628,0.468445,
-2.79541,0.465393,
-2.70844,0.462341,
-2.62146,0.462341,
-2.52533,0.466919,
-2.4292,0.469971,
-2.33002,0.465393,
-2.22778,0.460815,
-2.12555,0.45929,
-2.02179,0.468445,
-1.91956,0.466919,
-1.81885,0.465393,
-1.72119,0.45929,
-1.62811,0.462341,
-1.53961,0.465393,
-1.46027,0.465393,
-1.38245,0.465393,
-1.31226,0.460815,
-1.25122,0.45929,
-1.19781,0.468445,
-1.14899,0.466919,
-1.11389,0.462341,
-1.07727,0.45929,
-1.05133,0.457764,
-1.03607,0.465393,
-1.02234,0.462341,
-1.01166,0.468445,
-1.01318,0.460815,
-1.01318,0.45929,
-1.02081,0.469971,
-1.02692,0.462341,
-1.04218,0.466919,
-1.05591,0.460815,
-1.07117,0.457764,
-1.09253,0.462341,
-1.11237,0.462341,
-1.13983,0.468445,
-1.17035,0.460815,
-1.19171,0.45929,
-1.22681,0.466919,
-1.25885,0.465393,
-1.29089,0.468445,
-1.32446,0.45929,
-1.35651,0.457764,
-1.39618,0.462341,
-1.4328,0.465393,
-1.4679,0.465393,
-1.50757,0.460815,
-1.54419,0.457764,
-1.58081,0.466919,
-1.62201,0.460815,
-1.65558,0.466919,
-1.6861,0.457764,
-1.71661,0.457764,
-1.74561,0.466919,
-1.76697,0.465393,
-1.78986,0.468445,
-1.80664,0.460815,
-1.82037,0.45929,
-1.83563,0.465393,
-1.84937,0.465393,
-1.86157,0.466919,
-1.8692,0.45929,
-1.87531,0.457764,
-1.87225,0.465393,
-1.87531,0.462341,
-1.87378,0.468445,
-1.87378,0.460815,
-1.8692,0.457764,
-1.86615,0.466919,
-1.8631,0.466919,
-1.85547,0.465393,
-1.84631,0.462341,
-1.83716,0.460815,
-1.828,0.466919,
-1.8158,0.469971,
-1.80664,0.466919,
-1.80664,0.45929,
-1.80054,0.460815,
-1.7868,0.465393,
-1.78223,0.465393,
-1.77917,0.465393,
-1.77765,0.45929,
-1.77917,0.460815,
-1.7807,0.471497,
-1.7868,0.465393,
-1.79291,0.468445,
-1.79596,0.460815,
-1.80817,0.457764,
-1.81885,0.465393,
-1.83563,0.466919,
-1.84631,0.465393,
-1.8692,0.460815,
-1.88446,0.457764,
-1.9043,0.466919,
-1.92413,0.465393,
-1.94702,0.465393,
-1.96838,0.45929,
-1.99585,0.457764,
-2.01569,0.466919,
-2.04163,0.462341,
-2.06604,0.465393,
-2.09351,0.456238,
-2.12097,0.456238,
-2.15149,0.462341,
-2.18201,0.465393,
-2.2049,0.465393,
-2.23389,0.45929,
-2.26288,0.460815,
-2.29034,0.460815,
-2.31628,0.462341,
-2.34375,0.462341,
-2.37122,0.457764,
-2.39868,0.45929,
-2.4292,0.466919,
-2.45514,0.466919,
-2.48566,0.465393,
-2.51617,0.465393,
-2.54974,0.456238,
-2.57721,0.462341,
-2.61078,0.465393,
-2.64282,0.465393,
-2.67181,0.460815,
-2.69623,0.457764,
-2.72064,0.469971,
-2.74811,0.465393,
-2.77557,0.462341,
-2.80151,0.460815,
-2.82898,0.45929,
-2.86102,0.468445,
-2.88391,0.462341,
-2.90833,0.468445,
-2.93121,0.457764,
-2.9541,0.457764,
-2.97394,0.469971,
-2.9953,0.465393,
-3.01056,0.466919,
-3.03802,0.460815,
-3.05786,0.45929,
-3.08075,0.465393,
-3.09906,0.462341,
-3.12042,0.466919,
-3.14331,0.460815,
-3.15857,0.45929,
-3.18298,0.465393,
-3.20129,0.462341,
-3.21808,0.465393,
-3.23792,0.460815,
-3.25165,0.45929,
-3.26233,0.468445,
-3.27759,0.460815,
-3.28827,0.468445,
-3.2959,0.460815,
-3.30353,0.45929,
-3.30658,0.466919,
-3.30963,0.465393,
-3.30658,0.466919,
-3.29285,0.457764,
-3.27606,0.456238,
-3.2486,0.469971,
-3.22113,0.462341,
-3.18146,0.469971,
-3.13416,0.45929,
-3.0838,0.460815,
-3.02277,0.466919,
-2.95563,0.460815,
-2.88544,0.468445,
-2.80609,0.460815,
-2.72522,0.460815,
-2.63977,0.465393,
-2.54669,0.466919,
-2.45209,0.468445,
-2.35748,0.462341,
-2.26135,0.462341,
-2.15759,0.469971,
-2.05841,0.466919,
-1.96381,0.471497,
-1.86768,0.462341,
-1.77917,0.456238,
-1.69983,0.468445,
-1.62659,0.465393,
-1.5564,0.466919,
-1.49078,0.456238,
-1.43585,0.457764,
-1.38397,0.468445,
-1.33667,0.465393,
-1.3031,0.468445,
-1.27563,0.45929,
-1.24969,0.45929,
-1.23138,0.469971,
-1.21765,0.466919,
-1.21002,0.466919,
-1.21155,0.45929,
-1.2085,0.454712,
-1.2207,0.468445,
-1.22986,0.465393,
-1.24969,0.465393,
-1.26648,0.45929,
-1.28937,0.460815,
-1.31378,0.466919,
-1.33667,0.462341,
-1.36261,0.466919,
-1.3916,0.457764,
-1.42212,0.456238,
-1.45264,0.469971,
-1.4801,0.460815,
-1.51672,0.471497,
-1.54572,0.456238,
-1.58539,0.457764,
-1.62201,0.468445,
-1.65863,0.45929,
-1.6983,0.466919,
-1.73492,0.457764,
-1.7746,0.457764,
-1.81427,0.468445,
-1.85089,0.460815,
-1.88599,0.462341,
-1.92108,0.457764,
-1.95313,0.45929,
-1.98364,0.466919,
-2.01111,0.460815,
-2.03857,0.465393,
-2.05688,0.45929,
-2.07825,0.457764,
-2.09351,0.468445,
-2.10876,0.462341,
-2.11792,0.465393,
-2.12555,0.45929,
-2.13318,0.456238,
-2.13776,0.469971,
-2.13776,0.462341,
-2.13623,0.466919,
-2.1347,0.45929,
-2.12708,0.45929,
-2.1225,0.468445,
-2.11487,0.462341,
-2.10724,0.466919,
-2.09656,0.460815,
-2.08893,0.457764,
-2.0813,0.466919,
-2.07672,0.462341,
-2.06451,0.466919,
-2.05841,0.45929,
-2.05536,0.456238,
-2.04926,0.465393,
-2.0462,0.466919,
-2.03552,0.466919,
-2.034,0.460815,
-2.02789,0.45929,
-2.02484,0.468445,
-2.03247,0.465393,
-2.03705,0.465393,
-2.03705,0.45929,
-2.04773,0.457764,
-2.05841,0.469971,
-2.07367,0.460815,
-2.0874,0.471497,
-2.10114,0.45929,
-2.11945,0.457764,
-2.13928,0.466919,
-2.15454,0.466919,
-2.17743,0.465393,
-2.19879,0.454712,
-2.22321,0.45929,
-2.24762,0.466919,
-2.26593,0.460815,
-2.29492,0.468445,
-2.32086,0.454712,
-2.34528,0.45929,
-2.36816,0.460815,
-2.39868,0.460815,
-2.42462,0.465393,
-2.45209,0.460815,
-2.47955,0.462341,
-2.5116,0.468445,
-2.53601,0.460815,
-2.565,0.462341,
-2.59247,0.457764,
-2.61993,0.456238,
-2.65045,0.468445,
-2.68097,0.462341,
-2.71149,0.465393,
-2.73743,0.460815,
-2.76337,0.45929,
-2.79236,0.462341,
-2.82135,0.462341,
-2.84882,0.460815,
-2.8717,0.45929,
-2.89459,0.457764,
-2.91748,0.466919,
-2.94189,0.465393,
-2.96631,0.462341,
-2.99683,0.460815,
-3.02734,0.457764,
-3.04718,0.460815,
-3.07007,0.468445,
-3.09296,0.465393,
-3.11584,0.460815,
-3.14026,0.457764,
-3.15857,0.465393,
-3.18604,0.466919,
-3.20587,0.462341,
-3.22571,0.45929,
-3.24554,0.460815,
-3.27148,0.460815,
-3.28979,0.466919,
-3.31116,0.468445,
-3.32947,0.457764,
-3.3493,0.460815,
-3.36456,0.468445,
-3.38135,0.466919,
-3.39661,0.465393,
-3.40576,0.45929,
-3.41339,0.460815,
-3.41949,0.462341,
-3.41949,0.465393,
-3.41034,0.462341,
-3.39508,0.454712,
-3.37372,0.462341,
-3.34625,0.465393,
-3.30963,0.468445,
-3.26996,0.465393,
-3.2196,0.457764,
-3.16162,0.462341,
-3.09143,0.465393,
-3.02124,0.462341,
-2.948,0.460815,
-2.86713,0.457764,
-2.78625,0.45929,
-2.69928,0.466919,
-2.60773,0.465393,
-2.52075,0.465393,
-2.43225,0.457764,
-2.34375,0.45929,
-2.25525,0.465393,
-2.17133,0.462341,
-2.0874,0.462341,
-2.005,0.457764,
-1.92871,0.457764,
-1.86005,0.462341,
-1.79443,0.466919,
-1.7334,0.460815,
-1.6861,0.456238,
-1.63879,0.45929,
-1.59912,0.462341,
-1.56555,0.462341,
-1.53961,0.460815,
-1.51215,0.456238,
-1.50146,0.45929,
-1.49536,0.466919,
-1.49078,0.466919,
-1.49231,0.462341,
-1.50909,0.45929,
-1.5213,0.462341,
-1.53351,0.466919,
-1.55792,0.466919,
-1.57928,0.462341,
-1.60522,0.457764,
-1.64032,0.457764,
-1.67236,0.462341,
-1.70288,0.466919,
-1.7395,0.462341,
-1.78223,0.457764,
-1.81885,0.460815,
-1.85547,0.462341,
-1.89667,0.466919,
-1.93939,0.460815,
-1.98059,0.456238,
-2.02332,0.457764,
-2.06909,0.460815,
-2.11029,0.465393,
-2.14996,0.457764,
-2.19269,0.456238,
-2.23389,0.45929,
-2.27661,0.462341,
-2.30865,0.462341,
-2.34375,0.45929,
-2.37579,0.456238,
-2.40021,0.460815,
-2.42462,0.462341,
-2.45056,0.465393,
-2.46887,0.456238,
-2.48413,0.454712,
-2.49329,0.457764,
-2.50549,0.460815,
-2.5116,0.465393,
-2.51312,0.457764,
-2.51465,0.454712,
-2.5116,0.45929,
-2.50397,0.45929,
-2.49634,0.466919,
-2.48718,0.457764,
-2.47803,0.45929,
-2.46735,0.457764,
-2.45514,0.460815,
-2.44293,0.466919,
-2.42767,0.457764,
-2.41547,0.456238,
-2.40173,0.457764,
-2.38953,0.462341,
-2.37579,0.466919,
-2.36359,0.462341,
-2.35291,0.460815,
-2.34528,0.460815,
-2.33917,0.462341,
-2.33612,0.462341,
-2.33612,0.460815,
-2.33612,0.454712,
-2.33917,0.454712,
-2.34375,0.45929,
-2.35138,0.466919,
-2.35748,0.460815,
-2.36969,0.457764,
-2.37885,0.454712,
-2.39105,0.460815,
-2.40479,0.469971,
-2.41547,0.460815,
-2.43225,0.454712,
-2.44751,0.45929,
-2.46277,0.460815,
-2.47955,0.465393,
-2.50092,0.460815,
-2.5177,0.456238,
-2.53906,0.454712,
-2.56195,0.460815,
-2.58484,0.468445,
-2.60468,0.45929,
-2.62756,0.456238,
-2.64893,0.457764,
-2.67029,0.45929,
-2.6947,0.466919,
-2.71912,0.45929,
-2.73895,0.454712,
-2.76642,0.457764,
-2.78931,0.465393,
-2.80762,0.468445,
-2.82745,0.45929,
-2.84729,0.454712,
-2.86865,0.456238,
-2.88544,0.460815,
-2.9068,0.465393,
-2.93121,0.460815,
-2.95105,0.453186,
-2.97852,0.454712,
-3.00293,0.45929,
-3.02734,0.465393,
-3.04565,0.45929,
-3.06854,0.457764,
-3.0899,0.453186,
-3.11127,0.45929,
-3.13721,0.466919,
-3.15857,0.457764,
-3.18298,0.454712,
-3.20587,0.453186,
-3.22723,0.460815,
-3.25012,0.468445,
-3.27148,0.45929,
-3.29285,0.456238,
-3.30811,0.454712,
-3.33099,0.460815,
-3.35388,0.465393,
-3.37677,0.45929,
-3.39508,0.456238,
-3.41797,0.453186,
-3.43018,0.45929,
-3.44849,0.462341,
-3.46375,0.45929,
-3.47443,0.454712,
-3.48053,0.456238,
-3.48816,0.460815,
-3.479,0.466919,
-3.46375,0.457764,
-3.44391,0.454712,
-3.41187,0.456238,
-3.37524,0.45929,
-3.33099,0.465393,
-3.28064,0.457764,
-3.22113,0.457764,
-3.15552,0.453186,
-3.0838,0.45929,
-3.00598,0.466919,
-2.92358,0.462341,
-2.83356,0.456238,
-2.74048,0.453186,
-2.65045,0.45929,
-2.54822,0.468445,
-2.45361,0.45929,
-2.35596,0.456238,
-2.25983,0.454712,
-2.16827,0.460815,
-2.06909,0.465393,
-1.97754,0.45929,
-1.89362,0.454712,
-1.81274,0.453186,
-1.74103,0.462341,
-1.67389,0.469971,
-1.61285,0.457764,
-1.55792,0.453186,
-1.50909,0.453186,
-1.46942,0.45929,
-1.43585,0.466919,
-1.41296,0.45929,
-1.3916,0.453186,
-1.38092,0.453186,
-1.37177,0.460815,
-1.37024,0.469971,
-1.37177,0.45929,
-1.37939,0.453186,
-1.3916,0.456238,
-1.40839,0.45929,
-1.4267,0.466919,
-1.44958,0.456238,
-1.47095,0.456238,
-1.50146,0.454712,
-1.52893,0.45929,
-1.5625,0.466919,
-1.59149,0.45929,
-1.62811,0.453186,
-1.65863,0.453186,
-1.68915,0.462341,
-1.72577,0.466919,
-1.76544,0.457764,
-1.80054,0.456238,
-1.83716,0.453186,
-1.87378,0.456238,
-1.91193,0.465393,
-1.94855,0.456238,
-1.98364,0.454712,
-2.02484,0.453186,
-2.05231,0.45929,
-2.08282,0.465393,
-2.11182,0.457764,
-2.14539,0.454712,
-2.1759,0.453186,
-2.19879,0.460815,
-2.22168,0.465393,
-2.24152,0.457764,
-2.25677,0.454712,
-2.27356,0.453186,
-2.28271,0.45929,
-2.29645,0.462341,
-2.30103,0.456238,
-2.3056,0.456238,
-2.2995,0.457764,
-2.29645,0.45929,
-2.28729,0.462341,
-2.27966,0.457764,
-2.27356,0.456238,
-2.26135,0.45166,
-2.25067,0.45929,
-2.24304,0.462341,
-2.22778,0.457764,
-2.211,0.457764,
-2.19879,0.453186,
-2.18811,0.460815,
-2.17438,0.462341,
-2.1637,0.456238,
-2.14996,0.454712,
-2.14386,0.457764,
-2.13623,0.45929,
-2.1286,0.466919,
-2.12097,0.460815,
-2.12097,0.456238,
-2.1225,0.454712,
-2.12097,0.462341,
-2.12402,0.460815,
-2.1347,0.456238,
-2.14081,0.457764,
-2.14844,0.45166,
-2.15759,0.465393,
-2.16217,0.462341,
-2.17438,0.460815,
-2.18658,0.456238,
-2.2049,0.456238,
-2.22168,0.462341,
-2.24152,0.462341,
-2.25983,0.456238,
-2.27966,0.457764,
-2.29645,0.456238,
-2.32239,0.45929,
-2.34528,0.466919,
-2.36816,0.456238,
-2.3941,0.457764,
-2.42157,0.453186,
-2.44598,0.460815,
-2.47192,0.462341,
-2.49939,0.456238,
-2.53143,0.456238,
-2.55737,0.454712,
-2.58331,0.462341,
-2.6062,0.465393,
-2.63672,0.454712,
-2.66418,0.457764,
-2.6947,0.454712,
-2.72217,0.462341,
-2.74811,0.465393,
-2.7771,0.456238,
-2.80762,0.457764,
-2.82745,0.456238,
-2.85034,0.460815,
-2.87018,0.466919,
-2.89307,0.456238,
-2.91138,0.457764,
-2.93427,0.453186,
-2.96021,0.462341,
-2.97546,0.462341,
-2.99835,0.453186,
-3.01971,0.456238,
-3.03955,0.457764,
-3.06549,0.460815,
-3.0838,0.460815,
-3.10822,0.456238,
-3.12805,0.456238,
-3.14484,0.456238,
-3.16772,0.460815,
-3.18756,0.45929,
-3.20435,0.456238,
-3.22266,0.453186,
-3.24097,0.456238,
-3.25775,0.460815,
-3.26996,0.462341,
-3.28369,0.453186,
-3.28979,0.453186,
-3.28979,0.454712,
-3.28674,0.45929,
-3.27454,0.460815,
-3.25012,0.454712,
-3.22113,0.454712,
-3.18604,0.456238,
-3.14178,0.462341,
-3.08533,0.460815,
-3.02277,0.454712,
-2.9541,0.456238,
-2.88239,0.456238,
-2.79694,0.460815,
-2.71301,0.460815,
-2.62299,0.454712,
-2.52991,0.457764,
-2.43225,0.457764,
-2.33154,0.462341,
-2.23694,0.460815,
-2.13623,0.45166,
-2.03857,0.456238,
-1.94092,0.460815,
-1.84174,0.465393,
-1.75171,0.460815,
-1.66168,0.454712,
-1.57928,0.454712,
-1.49994,0.456238,
-1.43127,0.462341,
-1.36719,0.460815,
-1.31531,0.454712,
-1.26343,0.457764,
-1.2207,0.454712,
-1.18408,0.465393,
-1.15356,0.460815,
-1.1322,0.453186,
-1.11237,0.456238,
-1.09406,0.456238,
-1.08643,0.462341,
-1.08337,0.462341,
-1.08948,0.454712,
-1.09406,0.45929,
-1.10168,0.456238,
-1.11694,0.465393,
-1.13373,0.45929,
-1.15356,0.45929,
-1.18103,0.45929,
-1.2085,0.456238,
-1.23138,0.466919,
-1.26343,0.45929,
-1.297,0.456238,
-1.32904,0.456238,
-1.36414,0.456238,
-1.40076,0.460815,
-1.44043,0.460815,
-1.48163,0.456238,
-1.52435,0.456238,
-1.56708,0.456238,
-1.60675,0.460815,
-1.64795,0.45929,
-1.69067,0.456238,
-1.73187,0.456238,
-1.76849,0.456238,
-1.80359,0.465393,
-1.83258,0.45929,
-1.86615,0.454712,
-1.89362,0.453186,
-1.9165,0.454712,
-1.93634,0.462341,
-1.95007,0.457764,
-1.96228,0.454712,
-1.97449,0.453186,
-1.98669,0.45166,
-1.99127,0.466919,
-1.99127,0.465393,
-1.99738,0.454712,
-1.9928,0.456238,
-1.98822,0.454712,
-1.98212,0.460815,
-1.97449,0.45929,
-1.96838,0.456238,
-1.9577,0.453186,
-1.94702,0.454712,
-1.93787,0.465393,
-1.92719,0.462341,
-1.91803,0.454712,
-1.91345,0.454712,
-1.90582,0.454712,
-1.89514,0.466919,
-1.88599,0.465393,
-1.87683,0.457764,
-1.86615,0.453186,
-1.86157,0.457764,
-1.85852,0.465393,
-1.85242,0.460815,
-1.85089,0.457764,
-1.84937,0.454712,
-1.85242,0.457764,
-1.86157,0.462341,
-1.86462,0.460815,
-1.8692,0.456238,
-1.87683,0.454712,
-1.88293,0.453186,
-1.89514,0.468445,
-1.9043,0.45929,
-1.91803,0.454712,
-1.93481,0.454712,
-1.95313,0.456238,
-1.96838,0.462341,
-1.98975,0.460815,
-2.01569,0.460815,
-2.04163,0.453186,
-2.06146,0.456238,
-2.08588,0.465393,
-2.10876,0.460815,
-2.13013,0.456238,
-2.16217,0.456238,
-2.18658,0.456238,
-2.20947,0.460815,
-2.23999,0.45929,
-2.27051,0.456238,
-2.29797,0.456238,
-2.32697,0.457764,
-2.35596,0.460815,
-2.38953,0.460815,
-2.41852,0.456238,
-2.44293,0.456238,
-2.47498,0.456238,
-2.50092,0.460815,
-2.52686,0.45929,
-2.55585,0.453186,
-2.58026,0.454712,
-2.60773,0.454712,
-2.63672,0.45929,
-2.66113,0.460815,
-2.69012,0.453186,
-2.71301,0.454712,
-2.73743,0.454712,
-2.76184,0.462341,
-2.78015,0.45929,
-2.80762,0.457764,
-2.82898,0.454712,
-2.84729,0.454712,
-2.8717,0.462341,
-2.89154,0.460815,
-2.91138,0.454712,
-2.92969,0.456238,
-2.95105,0.456238,
-2.97241,0.460815,
-2.9892,0.460815,
-3.01666,0.456238,
-3.03497,0.453186,
-3.05634,0.457764,
-3.07312,0.460815,
-3.08685,0.45929,
-3.10059,0.457764,
-3.11127,0.453186,
-3.1189,0.454712,
-3.11584,0.457764,
-3.10516,0.45929,
-3.09296,0.460815,
-3.06854,0.454712,
-3.03955,0.456238,
-3.00293,0.462341,
-2.9541,0.45929,
-2.90222,0.457764,
-2.84119,0.456238,
-2.76794,0.454712,
-2.6947,0.45929,
-2.60925,0.45929,
-2.52075,0.456238,
-2.4231,0.456238,
-2.32849,0.453186,
-2.22626,0.460815,
-2.12708,0.460815,
-2.02179,0.457764,
-1.91956,0.456238,
-1.82037,0.453186,
-1.72424,0.462341,
-1.63269,0.45929,
-1.54114,0.457764,
-1.45721,0.456238,
-1.37482,0.454712,
-1.30005,0.457764,
-1.23749,0.460815,
-1.18103,0.457764,
-1.12457,0.456238,
-1.08032,0.456238,
-1.03912,0.462341,
-1.01166,0.460815,
-0.987244,0.456238,
-0.973511,0.456238,
-0.961304,0.454712,
-0.961304,0.460815,
-0.968933,0.465393,
-0.975037,0.456238,
-0.984192,0.454712,
-1.00098,0.453186,
-1.01776,0.45929,
-1.03607,0.462341,
-1.06049,0.45929,
-1.08643,0.454712,
-1.11389,0.456238,
-1.14288,0.45929,
-1.1734,0.462341,
-1.2085,0.460815,
-1.23749,0.454712,
-1.27411,0.456238,
-1.30615,0.457764,
-1.34583,0.460815,
-1.38397,0.45929,
-1.42365,0.454712,
-1.45721,0.454712,
-1.49841,0.45929,
-1.54266,0.45929,
-1.58386,0.45929,
-1.62048,0.457764,
-1.6571,0.453186,
-1.6922,0.45929,
-1.72424,0.462341,
-1.75018,0.460815,
-1.7746,0.456238,
-1.80054,0.456238,
-1.82037,0.460815,
-1.84174,0.45929,
-1.8631,0.465393,
-1.87073,0.454712,
-1.88141,0.454712,
-1.88599,0.457764,
-1.89056,0.462341,
-1.89819,0.460815,
-1.90125,0.45929,
-1.89972,0.453186,
-1.89362,0.45929,
-1.88751,0.45929,
-1.87683,0.460815,
-1.87073,0.454712,
-1.86005,0.453186,
-1.84937,0.457764,
-1.83716,0.460815,
-1.83105,0.45929,
-1.8158,0.454712,
-1.80664,0.453186,
-1.80054,0.456238,
-1.79138,0.460815,
-1.78223,0.460815,
-1.77917,0.454712,
-1.7746,0.456238,
-1.77002,0.45929,
-1.76544,0.457764,
-1.76544,0.462341,
-1.76392,0.453186,
-1.76239,0.454712,
-1.76849,0.45929,
-1.77155,0.460815,
-1.77917,0.45929,
-1.7868,0.453186,
-1.79749,0.45166,
-1.80969,0.45929,
-1.82495,0.457764,
-1.84174,0.45929,
-1.85547,0.456238,
-1.87531,0.453186,
-1.89819,0.454712,
-1.91193,0.460815,
-1.93329,0.45929,
-1.95618,0.45929,
-1.98212,0.453186,
-2.00806,0.456238,
-2.02789,0.45929,
-2.05383,0.462341,
-2.07672,0.456238,
-2.10571,0.454712,
-2.13623,0.457764,
-2.16522,0.457764,
-2.19116,0.45929,
-2.21863,0.454712,
-2.2522,0.453186,
-2.28119,0.45929,
-2.31018,0.45929,
-2.33307,0.457764,
-2.35901,0.45929,
-2.38647,0.454712,
-2.41089,0.45929,
-2.43225,0.45929,
-2.45667,0.45929,
-2.48413,0.45166,
-2.51312,0.45166,
-2.53601,0.45929,
-2.56348,0.45929,
-2.58942,0.460815,
-2.61688,0.456238,
-2.64435,0.453186,
-2.66724,0.454712,
-2.6947,0.457764,
-2.71454,0.457764,
-2.74048,0.454712,
-2.76794,0.456238,
-2.79236,0.457764,
-2.8183,0.45929,
-2.84576,0.460815,
-2.86865,0.456238,
-2.88696,0.450134,
-2.91443,0.45929,
-2.94189,0.460815,
-2.96478,0.457764,
-2.98157,0.454712,
-2.99835,0.456238,
-3.01514,0.454712,
-3.0304,0.457764,
-3.04718,0.45929,
-3.05481,0.454712,
-3.06244,0.45166,
-3.06396,0.456238,
-3.06244,0.45929,
-3.05176,0.457764,
-3.0426,0.456238,
-3.02277,0.453186,
-2.99377,0.454712,
-2.96173,0.457764,
-2.91443,0.460815,
-2.8656,0.457764,
-2.80609,0.453186,
-2.74048,0.457764,
-2.67029,0.456238,
-2.59705,0.460815,
-2.51617,0.462341,
-2.43073,0.450134,
-2.33612,0.456238,
-2.24304,0.456238,
-2.14691,0.45929,
-2.04773,0.460815,
-1.94702,0.454712,
-1.85089,0.457764,
-1.75781,0.457764,
-1.66473,0.462341,
-1.57471,0.457764,
-1.48773,0.453186,
-1.40381,0.454712,
-1.32904,0.457764,
-1.26648,0.460815,
-1.20239,0.465393,
-1.15204,0.454712,
-1.10626,0.457764,
-1.06812,0.457764,
-1.03607,0.45929,
-1.01318,0.453186,
-0.991821,0.454712,
-0.984192,0.456238,
-0.978088,0.457764,
-0.979614,0.45929,
-0.98114,0.456238,
-0.993347,0.456238,
-1.00403,0.45166,
-1.02081,0.457764,
-1.04218,0.460815,
-1.07269,0.454712,
-1.10168,0.454712,
-1.13678,0.456238,
-1.1673,0.454712,
-1.20697,0.45929,
-1.24207,0.45166,
-1.28479,0.454712,
-1.32599,0.454712,
-1.36414,0.456238,
-1.40686,0.456238,
-1.45569,0.456238,
-1.50604,0.453186,
-1.55182,0.456238,
-1.59607,0.457764,
-1.6449,0.457764,
-1.68304,0.453186,
-1.72424,0.453186,
-1.76392,0.453186,
-1.79749,0.456238,
-1.83563,0.460815,
-1.8631,0.454712,
-1.89362,0.45166,
-1.91193,0.457764,
-1.93329,0.456238,
-1.95007,0.462341,
-1.96381,0.454712,
-1.97449,0.45166,
-1.98059,0.45929,
-1.98364,0.454712,
-1.98975,0.462341,
-1.98822,0.45166,
-1.98517,0.454712,
-1.97601,0.456238,
-1.96991,0.45929,
-1.96381,0.462341,
-1.95313,0.456238,
-1.94092,0.454712,
-1.92871,0.456238,
-1.91498,0.456238,
-1.9043,0.45929,
-1.88904,0.453186,
-1.87683,0.456238,
-1.86462,0.457764,
-1.85242,0.456238,
-1.84021,0.457764,
-1.83105,0.454712,
-1.8219,0.456238,
-1.81427,0.456238,
-1.80969,0.457764,
-1.80817,0.457764,
-1.80511,0.454712,
-1.80969,0.45166,
-1.80817,0.457764,
-1.81122,0.457764,
-1.82037,0.456238,
-1.82648,0.456238,
-1.83716,0.454712,
-1.84784,0.45929,
-1.86615,0.460815,
-1.87988,0.457764,
-1.90277,0.45166,
-1.91956,0.45166,
-1.94092,0.454712,
-1.96686,0.454712,
-1.98669,0.460815,
-2.00653,0.454712,
-2.02637,0.45166,
-2.04773,0.454712,
-2.07062,0.45929,
-2.08588,0.456238,
-2.11334,0.454712,
-2.14081,0.454712,
-2.16522,0.454712,
-2.19269,0.457764,
-2.22015,0.454712,
-2.25067,0.456238,
-2.27966,0.450134,
-2.3056,0.456238,
-2.32849,0.453186,
-2.35748,0.456238,
-2.3819,0.456238,
-2.40479,0.454712,
-2.42615,0.454712,
-2.45056,0.457764,
-2.46887,0.457764,
-2.49329,0.450134,
-2.51617,0.45166,
-2.54211,0.453186,
-2.5589,0.462341,
-2.58331,0.45929,
-2.60162,0.454712,
-2.62451,0.447083,
-2.65808,0.454712,
-2.67487,0.456238,
-2.69775,0.453186,
-2.72217,0.454712,
-2.74963,0.454712,
-2.77557,0.453186,
-2.79694,0.457764,
-2.8244,0.45929,
-2.84424,0.454712,
-2.86407,0.450134,
-2.88544,0.454712,
-2.9068,0.457764,
-2.92969,0.457764,
-2.95105,0.454712,
-2.97089,0.453186,
-2.98615,0.454712,
-3.00446,0.457764,
-3.01971,0.457764,
-3.03345,0.454712,
-3.0426,0.45166,
-3.04108,0.454712,
-3.0365,0.453186,
-3.02429,0.45929,
-3.00293,0.454712,
-2.97089,0.454712,
-2.92969,0.453186,
-2.88086,0.457764,
-2.82745,0.456238,
-2.76031,0.45166,
-2.69012,0.457764,
-2.60925,0.456238,
-2.53143,0.457764,
-2.44751,0.454712,
-2.35443,0.454712,
-2.25677,0.453186,
-2.15607,0.454712,
-2.05536,0.457764,
-1.9577,0.454712,
-1.85242,0.45166,
-1.75476,0.450134,
-1.6571,0.456238,
-1.5625,0.460815,
-1.47095,0.454712,
-1.3855,0.45166,
-1.3092,0.45166,
-1.23291,0.454712,
-1.17035,0.45929,
-1.10626,0.45929,
-1.0498,0.453186,
-1.00098,0.453186,
-0.959778,0.45166,
-0.924683,0.457764,
-0.90332,0.454712,
-0.886536,0.450134,
-0.878906,0.448608,
-0.878906,0.454712,
-0.883484,0.45929,
-0.886536,0.456238,
-0.901794,0.45166,
-0.912476,0.45166,
-0.932312,0.453186,
-0.947571,0.456238,
-0.971985,0.457764,
-0.990295,0.453186,
-1.01624,0.453186,
-1.04675,0.454712,
-1.08032,0.457764,
-1.11237,0.45929,
-1.15204,0.45166,
-1.18866,0.450134,
-1.22986,0.456238,
-1.27411,0.45929,
-1.31683,0.457764,
-1.36261,0.453186,
-1.40686,0.45166,
-1.45569,0.454712,
-1.49994,0.45929,
-1.54419,0.457764,
-1.58844,0.453186,
-1.62811,0.450134,
-1.66931,0.454712,
-1.70135,0.45929,
-1.73187,0.457764,
-1.76544,0.450134,
-1.79596,0.45166,
-1.8219,0.454712,
-1.84174,0.457764,
-1.86005,0.456238,
-1.87073,0.454712,
-1.88293,0.45166,
-1.89056,0.453186,
-1.89514,0.457764,
-1.89819,0.456238,
-1.89667,0.453186,
-1.89362,0.45166,
-1.88751,0.454712,
-1.88446,0.456238,
-1.87225,0.454712,
-1.8631,0.453186,
-1.85242,0.456238,
-1.83868,0.454712,
-1.828,0.45929,
-1.81427,0.45929,
-1.80206,0.454712,
-1.7868,0.456238,
-1.7746,0.454712,
-1.76392,0.462341,
-1.75629,0.456238,
-1.74866,0.450134,
-1.74103,0.454712,
-1.73798,0.454712,
-1.7334,0.45929,
-1.73035,0.45929,
-1.73035,0.453186,
-1.72882,0.453186,
-1.72882,0.453186,
-1.73492,0.456238,
-1.74408,0.456238,
-1.75171,0.45166,
-1.76697,0.453186,
-1.77612,0.456238,
-1.79138,0.45929,
-1.80969,0.460815,
-1.83105,0.453186,
-1.85394,0.45166,
-1.87683,0.453186,
-1.89972,0.457764,
-1.92261,0.457764,
-1.94397,0.454712,
-1.96991,0.45166,
-1.99127,0.453186,
-2.01416,0.460815,
-2.04315,0.456238,
-2.06757,0.45166,
-2.09351,0.454712,
-2.11792,0.453186,
-2.14539,0.45929,
-2.1698,0.460815,
-2.19421,0.454712,
-2.22321,0.453186,
-2.24915,0.453186,
-2.27661,0.457764,
-2.30255,0.457764,
-2.33002,0.450134,
-2.36053,0.454712,
-2.38495,0.453186,
-2.41547,0.45929,
-2.43683,0.457764,
-2.46124,0.450134,
-2.49023,0.454712,
-2.51465,0.457764,
-2.53906,0.457764,
-2.5589,0.45929,
-2.58331,0.45166,
-2.60773,0.454712,
-2.62756,0.454712,
-2.64893,0.45929,
-2.67487,0.457764,
-2.69012,0.453186,
-2.71149,0.454712,
-2.73132,0.456238,
-2.75574,0.460815,
-2.77405,0.45929,
-2.79388,0.45166,
-2.81677,0.454712,
-2.83966,0.454712,
-2.85797,0.462341,
-2.87628,0.45929,
-2.89001,0.456238,
-2.9068,0.456238,
-2.92511,0.457764,
-2.93121,0.460815,
-2.94647,0.45929,
-2.95563,0.454712,
-2.96783,0.456238,
-2.96783,0.453186,
-2.95563,0.45929,
-2.94342,0.462341,
-2.91901,0.45166,
-2.89001,0.453186,
-2.85492,0.45929,
-2.80914,0.460815,
-2.75269,0.460815,
-2.6886,0.454712,
-2.61536,0.454712,
-2.53143,0.456238,
-2.44293,0.45929,
-2.34985,0.45929,
-2.25067,0.454712,
-2.14691,0.454712,
-2.04315,0.456238,
-1.93024,0.462341,
-1.81732,0.460815,
-1.70746,0.454712,
-1.5976,0.456238,
-1.48926,0.457764,
-1.38702,0.462341,
-1.28784,0.45929,
-1.19629,0.454712,
-1.10779,0.457764,
-1.02539,0.453186,
-0.947571,0.462341,
-0.881958,0.460815,
-0.822449,0.453186,
-0.770569,0.456238,
-0.72937,0.456238,
-0.694275,0.465393,
-0.663757,0.460815,
-0.640869,0.457764,
-0.624084,0.453186,
-0.616455,0.457764,
-0.611877,0.45929,
-0.610352,0.462341,
-0.622559,0.456238,
-0.634766,0.457764,
-0.653076,0.456238,
-0.67749,0.462341,
-0.695801,0.457764,
-0.717163,0.456238,
-0.744629,0.454712,
-0.773621,0.456238,
-0.801086,0.45929,
-0.827026,0.462341,
-0.857544,0.457764,
-0.891113,0.45929,
-0.924683,0.45929,
-0.965881,0.462341,
-1.0025,0.460815,
-1.0437,0.457764,
-1.08337,0.457764,
-1.12457,0.460815,
-1.16425,0.462341,
-1.20239,0.465393,
-1.24359,0.456238,
-1.28021,0.456238,
-1.31989,0.45929,
-1.34735,0.462341,
-1.38245,0.462341,
-1.40839,0.457764,
-1.43585,0.45929,
-1.45874,0.45929,
-1.4801,0.465393,
-1.49078,0.462341,
-1.50146,0.456238,
-1.50909,0.454712,
-1.5213,0.45929,
-1.52283,0.45929,
-1.5274,0.460815,
-1.52588,0.457764,
-1.52435,0.456238,
-1.51978,0.457764,
-1.50909,0.468445,
-1.50299,0.460815,
-1.49078,0.457764,
-1.48163,0.457764,
-1.46942,0.456238,
-1.45569,0.465393,
-1.44348,0.45929,
-1.43585,0.457764,
-1.4267,0.457764,
-1.41754,0.45929,
-1.41144,0.465393,
-1.40228,0.457764,
-1.39313,0.457764,
-1.38702,0.45929,
-1.38397,0.457764,
-1.38092,0.460815,
-1.37787,0.460815,
-1.37482,0.457764,
-1.38092,0.457764,
-1.3855,0.460815,
-1.39008,0.462341,
-1.39923,0.45929,
-1.41449,0.45929,
-1.42975,0.457764,
-1.44653,0.45929,
-1.46027,0.468445,
-1.47705,0.462341,
-1.49689,0.460815,
-1.51215,0.457764,
-1.53046,0.45929,
-1.55182,0.460815,
-1.57318,0.462341,
-1.6037,0.45929,
-1.62506,0.454712,
-1.64795,0.460815,
-1.67542,0.466919,
-1.69525,0.460815,
-1.71814,0.45929,
-1.74561,0.456238,
-1.76849,0.462341,
-1.79596,0.465393,
-1.8219,0.460815,
-1.85242,0.465393,
-1.88141,0.457764,
-1.9104,0.462341,
-1.94092,0.466919,
-1.96838,0.465393,
-1.9989,0.457764,
-2.02332,0.457764,
-2.05383,0.465393,
-2.0874,0.471497,
-2.11945,0.460815,
-2.14996,0.460815,
-2.18506,0.453186,
-2.2171,0.45929,
-2.23999,0.469971,
-2.27203,0.462341,
-2.29645,0.45929,
-2.32239,0.457764,
-2.34985,0.460815,
-2.37427,0.468445,
-2.39716,0.465393,
-2.41852,0.462341,
-2.44293,0.456238,
-2.46735,0.462341,
-2.48871,0.466919,
-2.51465,0.465393,
-2.53143,0.462341,
-2.55127,0.457764,
-2.57263,0.462341,
-2.59399,0.466919,
-2.61536,0.466919,
-2.63672,0.460815,
-2.65198,0.454712,
-2.67181,0.466919,
-2.69012,0.468445,
-2.70538,0.468445,
-2.72217,0.460815,
-2.73285,0.457764,
-2.74811,0.462341,
-2.75726,0.468445,
-2.76337,0.465393,
-2.76489,0.462341,
-2.76337,0.454712,
-2.74963,0.465393,
-2.73285,0.466919,
-2.70386,0.465393,
-2.66724,0.45929,
-2.63062,0.454712,
-2.58179,0.462341,
-2.5238,0.468445,
-2.45972,0.468445,
-2.38495,0.460815,
-2.3056,0.454712,
-2.2171,0.465393,
-2.1225,0.462341,
-2.01874,0.471497,
-1.91956,0.465393,
-1.80817,0.456238,
-1.70441,0.460815,
-1.5976,0.466919,
-1.48773,0.465393,
-1.38397,0.462341,
-1.28326,0.453186,
-1.18866,0.468445,
-1.09558,0.468445,
-1.01166,0.469971,
-0.933838,0.460815,
-0.865173,0.454712,
-0.801086,0.466919,
-0.746155,0.468445,
-0.694275,0.468445,
-0.648499,0.462341,
-0.613403,0.457764,
-0.592041,0.462341,
-0.572205,0.469971,
-0.55542,0.466919,
-0.552368,0.462341,
-0.552368,0.454712,
-0.55542,0.465393,
-0.569153,0.466919,
-0.585938,0.469971,
-0.6073,0.462341,
-0.627136,0.456238,
-0.653076,0.460815,
-0.682068,0.468445,
-0.715637,0.462341,
-0.749207,0.462341,
-0.784302,0.454712,
-0.819397,0.468445,
-0.856018,0.466919,
-0.891113,0.466919,
-0.926208,0.465393,
-0.967407,0.45166,
-1.00861,0.466919,
-1.04675,0.466919,
-1.0849,0.460815,
-1.12457,0.462341,
-1.17035,0.454712,
-1.2146,0.462341,
-1.25275,0.465393,
-1.29089,0.466919,
-1.32751,0.465393,
-1.36108,0.454712,
-1.39771,0.462341,
-1.4267,0.468445,
-1.45111,0.465393,
-1.47247,0.466919,
-1.49384,0.453186,
-1.50757,0.465393,
-1.5213,0.466919,
-1.52893,0.466919,
-1.53503,0.465393,
-1.53503,0.453186,
-1.53809,0.465393,
-1.53503,0.466919,
-1.53046,0.468445,
-1.53046,0.462341,
-1.52283,0.45166,
-1.51062,0.465393,
-1.50299,0.466919,
-1.49689,0.468445,
-1.48926,0.462341,
-1.4801,0.454712,
-1.46179,0.466919,
-1.44958,0.469971,
-1.44043,0.466919,
-1.43127,0.462341,
-1.42517,0.453186,
-1.41449,0.466919,
-1.40839,0.468445,
-1.39923,0.468445,
-1.39923,0.468445,
-1.39618,0.456238,
-1.40076,0.465393,
-1.40076,0.466919,
-1.40686,0.468445,
-1.41602,0.468445,
-1.42365,0.456238,
-1.4328,0.460815,
-1.44348,0.469971,
-1.45569,0.466919,
-1.47095,0.466919,
-1.48621,0.454712,
-1.50146,0.465393,
-1.51825,0.466919,
-1.53809,0.465393,
-1.56097,0.462341,
-1.58539,0.454712,
-1.60522,0.462341,
-1.62811,0.468445,
-1.64948,0.465393,
-1.67084,0.462341,
-1.69525,0.456238,
-1.72272,0.460815,
-1.74561,0.468445,
-1.77307,0.468445,
-1.79749,0.466919,
-1.82953,0.454712,
-1.85394,0.465393,
-1.88293,0.468445,
-1.91345,0.466919,
-1.93939,0.465393,
-1.96686,0.456238,
-1.99738,0.465393,
-2.02484,0.468445,
-2.05231,0.465393,
-2.07977,0.462341,
-2.10419,0.456238,
-2.1347,0.460815,
-2.15454,0.466919,
-2.18201,0.465393,
-2.20947,0.465393,
-2.23694,0.456238,
-2.26135,0.466919,
-2.28729,0.465393,
-2.31171,0.462341,
-2.3407,0.465393,
-2.36511,0.456238,
-2.38647,0.466919,
-2.40936,0.465393,
-2.4292,0.462341,
-2.45209,0.45929,
-2.47192,0.456238,
-2.49329,0.466919,
-2.5177,0.460815,
-2.54059,0.462341,
-2.565,0.460815,
-2.58636,0.453186,
-2.6123,0.466919,
-2.63519,0.462341,
-2.65961,0.466919,
-2.68555,0.457764,
-2.70691,0.456238,
-2.7298,0.468445,
-2.75421,0.462341,
-2.77405,0.462341,
-2.79388,0.462341,
-2.81219,0.453186,
-2.83051,0.466919,
-2.84882,0.465393,
-2.86102,0.462341,
-2.87018,0.460815,
-2.87323,0.456238,
-2.8717,0.468445,
-2.86102,0.465393,
-2.84119,0.462341,
-2.8183,0.460815,
-2.7832,0.456238,
-2.74506,0.466919,
-2.70081,0.466919,
-2.64587,0.462341,
-2.58331,0.462341,
-2.51465,0.457764,
-2.43835,0.468445,
-2.35901,0.466919,
-2.27356,0.465393,
-2.18048,0.457764,
-2.0874,0.456238,
-1.9928,0.466919,
-1.89819,0.462341,
-1.79749,0.462341,
-1.70135,0.456238,
-1.60522,0.454712,
-1.50909,0.460815,
-1.4267,0.465393,
-1.34583,0.45929,
-1.26343,0.45929,
-1.19324,0.456238,
-1.1261,0.468445,
-1.06812,0.466919,
-1.01776,0.460815,
-0.978088,0.45929,
-0.939941,0.45929,
-0.907898,0.468445,
-0.881958,0.465393,
-0.865173,0.462341,
-0.845337,0.45929,
-0.840759,0.45929,
-0.840759,0.462341,
-0.845337,0.465393,
-0.849915,0.462341,
-0.866699,0.45929,
-0.880432,0.456238,
-0.901794,0.466919,
-0.923157,0.462341,
-0.949097,0.462341,
-0.978088,0.453186,
-1.00861,0.457764,
-1.0376,0.466919,
-1.07269,0.466919,
-1.11084,0.460815,
-1.14746,0.456238,
-1.18866,0.457764,
-1.22833,0.460815,
-1.27106,0.462341,
-1.31378,0.462341,
-1.36108,0.454712,
-1.40533,0.457764,
-1.44653,0.462341,
-1.49536,0.462341,
-1.53503,0.460815,
-1.57623,0.457764,
-1.61896,0.45929,
-1.65253,0.465393,
-1.68304,0.462341,
-1.71814,0.45929,
-1.74713,0.453186,
-1.77002,0.457764,
-1.79443,0.462341,
-1.81427,0.462341,
-1.82648,0.45929,
-1.84021,0.456238,
-1.84784,0.457764,
-1.85089,0.45929,
-1.85852,0.465393,
-1.85547,0.460815,
-1.86005,0.454712,
-1.84937,0.457764,
-1.84479,0.466919,
-1.83716,0.462341,
-1.82495,0.45929,
-1.81732,0.454712,
-1.80664,0.456238,
-1.79749,0.465393,
-1.78375,0.466919,
-1.77002,0.45929,
-1.76239,0.454712,
-1.75018,0.457764,
-1.73645,0.462341,
-1.72729,0.468445,
-1.71814,0.45929,
-1.71051,0.454712,
-1.70898,0.45929,
-1.70593,0.45929,
-1.70441,0.460815,
-1.70441,0.460815,
-1.70898,0.454712,
-1.71509,0.457764,
-1.72272,0.460815,
-1.73035,0.465393,
-1.74255,0.460815,
-1.75781,0.453186,
-1.76544,0.45929,
-1.78375,0.462341,
-1.80511,0.462341,
-1.8219,0.462341,
-1.83868,0.453186,
-1.85852,0.457764,
-1.87683,0.460815,
-1.89819,0.462341,
-1.91956,0.460815,
-1.93481,0.456238,
-1.9516,0.45929,
-1.96991,0.462341,
-1.99127,0.465393,
-2.00958,0.457764,
-2.03247,0.456238,
-2.05383,0.456238,
-2.0813,0.465393,
-2.10876,0.462341,
-2.13623,0.45929,
-2.1637,0.457764,
-2.19269,0.45929,
-2.21558,0.462341,
-2.24152,0.457764,
-2.27203,0.457764,
-2.2995,0.454712,
-2.32544,0.454712,
-2.35291,0.457764,
-2.37732,0.462341,
-2.40326,0.457764,
-2.43225,0.454712,
-2.46582,0.456238,
-2.49176,0.460815,
-2.52228,0.465393,
-2.5528,0.462341,
-2.57416,0.457764,
-2.6001,0.45929,
-2.62604,0.460815,
-2.65045,0.462341,
-2.67334,0.460815,
-2.69623,0.454712,
-2.71759,0.456238,
-2.73895,0.462341,
-2.76489,0.466919,
-2.7832,0.457764,
-2.80457,0.456238,
-2.81677,0.456238,
-2.83508,0.460815,
-2.85492,0.460815,
-2.87323,0.45929,
-2.89459,0.45929,
-2.91443,0.454712,
-2.93274,0.45929,
-2.9541,0.460815,
-2.97241,0.460815,
-2.98767,0.45166,
-3.00751,0.456238,
-3.02277,0.45929,
-3.03955,0.45929,
-3.05176,0.462341,
-3.06549,0.454712,
-3.07159,0.45166,
-3.07007,0.456238,
-3.06549,0.462341,
-3.05328,0.460815,
-3.03345,0.454712,
-3.00598,0.454712,
-2.97089,0.456238,
-2.92969,0.462341,
-2.87933,0.456238,
-2.82135,0.453186,
-2.75879,0.456238,
-2.68707,0.456238,
-2.60773,0.45929,
-2.52533,0.460815,
-2.43683,0.453186,
-2.34833,0.457764,
-2.25525,0.454712,
-2.16064,0.460815,
-2.06909,0.460815,
-1.97144,0.456238,
-1.87836,0.45929,
-1.78528,0.454712,
-1.69373,0.45929,
-1.60828,0.45929,
-1.52588,0.456238,
-1.44196,0.457764,
-1.36566,0.456238,
-1.3031,0.45929,
-1.24512,0.457764,
-1.19019,0.457764,
-1.14288,0.454712,
-1.09863,0.454712,
-1.06201,0.462341,
-1.03302,0.45929,
-1.00861,0.456238,
-0.987244,0.454712,
-0.98114,0.454712,
-0.973511,0.454712,
-0.970459,0.45929,
-0.975037,0.456238,
-0.978088,0.454712,
-0.985718,0.454712,
-1.00098,0.462341,
-1.01929,0.456238,
-1.04065,0.456238,
-1.06354,0.45166,
-1.08948,0.453186,
-1.11237,0.45929,
-1.13983,0.45929,
-1.17035,0.457764,
-1.20087,0.456238,
-1.23444,0.456238,
-1.26953,0.45929,
-1.3092,0.460815,
-1.34277,0.456238,
-1.37482,0.456238,
-1.41144,0.454712,
-1.44958,0.45929,
-1.48926,0.456238,
-1.52435,0.45929,
-1.55945,0.453186,
-1.59149,0.453186,
-1.62354,0.457764,
-1.64948,0.454712,
-1.67847,0.454712,
-1.70746,0.454712,
-1.72729,0.450134,
-1.75476,0.45929,
-1.77002,0.457764,
-1.7868,0.457764,
-1.80054,0.453186,
-1.80817,0.450134,
-1.81427,0.45929,
-1.81732,0.457764,
-1.81732,0.45929,
-1.81885,0.454712,
-1.81885,0.450134,
-1.8158,0.457764,
-1.81274,0.45929,
-1.80511,0.45929,
-1.79901,0.45166,
-1.79291,0.450134,
-1.78528,0.457764,
-1.77612,0.457764,
-1.76849,0.457764,
-1.75629,0.453186,
-1.74561,0.454712,
-1.73645,0.454712,
-1.72729,0.45929,
-1.72424,0.456238,
