-1.71661,0.549316,
-1.75629,0.547791,
-1.79901,0.543213,
-1.84479,0.543213,
-1.89056,0.547791,
-1.93634,0.547791,
-1.98212,0.546265,
-2.02332,0.543213,
-2.06451,0.543213,
-2.10266,0.547791,
-2.13776,0.547791,
-2.17743,0.546265,
-2.211,0.541687,
-2.24457,0.546265,
-2.26288,0.549316,
-2.29034,0.546265,
-2.3056,0.547791,
-2.32086,0.544739,
-2.33002,0.541687,
-2.34222,0.546265,
-2.3468,0.547791,
-2.34833,0.546265,
-2.3468,0.541687,
-2.3407,0.543213,
-2.33459,0.547791,
-2.32391,0.546265,
-2.31476,0.547791,
-2.30865,0.541687,
-2.29187,0.543213,
-2.28424,0.544739,
-2.27356,0.547791,
-2.25983,0.544739,
-2.24762,0.541687,
-2.23389,0.541687,
-2.22168,0.549316,
-2.20795,0.546265,
-2.20337,0.549316,
-2.19421,0.543213,
-2.19116,0.544739,
-2.18506,0.547791,
-2.18353,0.547791,
-2.17896,0.549316,
-2.17743,0.544739,
-2.17438,0.540161,
-2.17438,0.544739,
-2.18506,0.543213,
-2.19269,0.549316,
-2.20184,0.543213,
-2.21252,0.541687,
-2.22321,0.547791,
-2.23999,0.547791,
-2.25372,0.544739,
-2.27051,0.543213,
-2.28424,0.541687,
-2.29797,0.549316,
-2.31781,0.546265,
-2.33459,0.549316,
-2.35443,0.544739,
-2.37732,0.541687,
-2.39868,0.544739,
-2.42004,0.544739,
-2.44598,0.550842,
-2.4704,0.541687,
-2.49329,0.541687,
-2.50854,0.546265,
-2.53448,0.547791,
-2.55737,0.549316,
-2.58026,0.543213,
-2.6062,0.541687,
-2.62604,0.549316,
-2.65045,0.544739,
-2.67334,0.549316,
-2.69928,0.543213,
-2.72064,0.541687,
-2.742,0.546265,
-2.76947,0.544739,
-2.79083,0.547791,
-2.81677,0.540161,
-2.84119,0.538635,
-2.86255,0.547791,
-2.88696,0.546265,
-2.90985,0.547791,
-2.92969,0.544739,
-2.95258,0.538635,
-2.97241,0.546265,
-2.99683,0.546265,
-3.01056,0.544739,
-3.0304,0.537109,
-3.05176,0.540161,
-3.07617,0.543213,
-3.09753,0.546265,
-3.11127,0.549316,
-3.1311,0.541687,
-3.14484,0.540161,
-3.1601,0.543213,
-3.18298,0.544739,
-3.20587,0.549316,
-3.2196,0.546265,
-3.24249,0.540161,
-3.25928,0.543213,
-3.27606,0.546265,
-3.29742,0.549316,
-3.31573,0.544739,
-3.32947,0.540161,
-3.34778,0.543213,
-3.35541,0.546265,
-3.37219,0.546265,
-3.3844,0.546265,
-3.39661,0.541687,
-3.40576,0.544739,
-3.40729,0.547791,
-3.40118,0.544739,
-3.38593,0.546265,
-3.35999,0.541687,
-3.32336,0.546265,
-3.27301,0.544739,
-3.20892,0.544739,
-3.13263,0.543213,
-3.05023,0.541687,
-2.96173,0.544739,
-2.87628,0.544739,
-2.78931,0.546265,
-2.69928,0.543213,
-2.6062,0.543213,
-2.52228,0.543213,
-2.43378,0.547791,
-2.35291,0.544739,
-2.2644,0.546265,
-2.18658,0.541687,
-2.11487,0.544739,
-2.04163,0.544739,
-1.97296,0.547791,
-1.91193,0.543213,
-1.84937,0.543213,
-1.79291,0.543213,
-1.73798,0.543213,
-1.69067,0.546265,
-1.64948,0.543213,
-1.61285,0.540161,
-1.58386,0.543213,
-1.5564,0.541687,
-1.53351,0.544739,
-1.51825,0.541687,
-1.50604,0.541687,
-1.49689,0.543213,
-1.49994,0.541687,
-1.50299,0.544739,
-1.50909,0.541687,
-1.51978,0.541687,
-1.52893,0.547791,
-1.54572,0.546265,
-1.56555,0.546265,
-1.58997,0.541687,
-1.61285,0.543213,
-1.63727,0.544739,
-1.67084,0.544739,
-1.70135,0.546265,
-1.7334,0.540161,
-1.76392,0.538635,
-1.79443,0.544739,
-1.82648,0.543213,
-1.8631,0.549316,
-1.89819,0.540161,
-1.93176,0.540161,
-1.97754,0.547791,
-2.01111,0.544739,
-2.05841,0.544739,
-2.09656,0.541687,
-2.13623,0.543213,
-2.17743,0.544739,
-2.211,0.540161,
-2.24915,0.544739,
-2.28577,0.541687,
-2.32086,0.541687,
-2.35443,0.544739,
-2.38342,0.546265,
-2.40326,0.546265,
-2.4292,0.543213,
-2.44446,0.543213,
-2.45972,0.543213,
-2.46277,0.544739,
-2.46887,0.546265,
-2.46429,0.543213,
-2.46735,0.541687,
-2.45972,0.543213,
-2.44904,0.541687,
-2.43988,0.544739,
-2.42462,0.541687,
-2.41394,0.543213,
-2.3941,0.544739,
-2.37885,0.544739,
-2.36053,0.546265,
-2.34833,0.541687,
-2.33612,0.543213,
-2.32239,0.540161,
-2.30713,0.541687,
-2.2934,0.544739,
-2.28271,0.541687,
-2.27509,0.543213,
-2.26593,0.543213,
-2.25677,0.544739,
-2.24915,0.546265,
-2.24457,0.541687,
-2.24304,0.541687,
-2.24152,0.541687,
-2.24304,0.546265,
-2.24609,0.543213,
-2.24304,0.541687,
-2.24762,0.540161,
-2.25525,0.543213,
-2.26135,0.541687,
-2.27051,0.546265,
-2.27814,0.544739,
-2.28882,0.543213,
-2.29645,0.543213,
-2.31171,0.541687,
-2.31934,0.544739,
-2.33002,0.541687,
-2.3468,0.538635,
-2.35901,0.544739,
-2.37732,0.543213,
-2.39105,0.544739,
-2.40173,0.538635,
-2.41699,0.540161,
-2.43225,0.541687,
-2.44751,0.543213,
-2.45819,0.544739,
-2.47803,0.541687,
-2.48871,0.538635,
-2.50702,0.540161,
-2.5238,0.546265,
-2.54211,0.546265,
-2.55737,0.541687,
-2.57111,0.541687,
-2.58331,0.543213,
-2.59399,0.541687,
-2.6062,0.546265,
-2.61688,0.544739,
-2.63062,0.541687,
-2.63977,0.540161,
-2.65045,0.543213,
-2.65808,0.546265,
-2.66418,0.540161,
-2.67181,0.540161,
-2.67487,0.540161,
-2.68707,0.546265,
-2.69318,0.544739,
-2.70233,0.543213,
-2.71149,0.543213,
-2.72064,0.543213,
-2.73285,0.547791,
-2.74658,0.546265,
-2.76337,0.543213,
-2.78168,0.540161,
-2.79236,0.543213,
-2.80762,0.544739,
-2.82593,0.541687,
-2.84119,0.538635,
-2.86255,0.540161,
-2.87628,0.540161,
-2.89307,0.547791,
-2.91138,0.543213,
-2.92511,0.543213,
-2.93732,0.541687,
-2.94647,0.541687,
-2.95105,0.546265,
-2.94952,0.543213,
-2.94189,0.540161,
-2.92358,0.543213,
-2.89001,0.544739,
-2.84882,0.546265,
-2.79694,0.544739,
-2.73743,0.540161,
-2.67334,0.540161,
-2.59705,0.544739,
-2.52533,0.544739,
-2.44446,0.541687,
-2.36969,0.540161,
-2.29034,0.543213,
-2.2171,0.541687,
-2.13776,0.546265,
-2.06146,0.544739,
-1.98517,0.541687,
-1.9165,0.540161,
-1.84326,0.544739,
-1.77307,0.547791,
-1.71051,0.549316,
-1.6449,0.540161,
-1.58997,0.541687,
-1.53351,0.541687,
-1.48315,0.546265,
-1.4389,0.544739,
-1.39771,0.543213,
-1.36414,0.541687,
-1.33057,0.541687,
-1.30157,0.547791,
-1.27716,0.541687,
-1.2558,0.540161,
-1.24359,0.537109,
-1.23291,0.544739,
-1.22681,0.544739,
-1.22528,0.547791,
-1.22986,0.543213,
-1.23444,0.541687,
-1.24512,0.540161,
-1.26038,0.547791,
-1.27716,0.544739,
-1.29852,0.538635,
-1.31836,0.541687,
-1.34583,0.540161,
-1.36871,0.544739,
-1.39923,0.544739,
-1.42822,0.541687,
-1.46484,0.544739,
-1.49841,0.538635,
-1.53809,0.547791,
-1.57471,0.547791,
-1.61285,0.541687,
-1.65863,0.540161,
-1.69983,0.540161,
-1.74408,0.543213,
-1.79138,0.543213,
-1.83563,0.541687,
-1.87683,0.544739,
-1.92261,0.538635,
-1.96228,0.544739,
-2.005,0.544739,
-2.04773,0.540161,
-2.0813,0.543213,
-2.10724,0.540161,
-2.13013,0.546265,
-2.15302,0.544739,
-2.16827,0.541687,
-2.18658,0.541687,
-2.19269,0.543213,
-2.19574,0.547791,
-2.19879,0.547791,
-2.19574,0.541687,
-2.18964,0.543213,
-2.18048,0.541687,
-2.1698,0.544739,
-2.15759,0.546265,
-2.14539,0.541687,
-2.13318,0.541687,
-2.11792,0.546265,
-2.10419,0.549316,
-2.08893,0.549316,
-2.0752,0.540161,
-2.05841,0.543213,
-2.05078,0.543213,
-2.0401,0.547791,
-2.02789,0.546265,
-2.02026,0.540161,
-2.01263,0.541687,
-2.005,0.544739,
-2.00653,0.549316,
-2.00043,0.549316,
-2.00195,0.540161,
-2.005,0.544739,
-2.00958,0.543213,
-2.01721,0.547791,
-2.02332,0.547791,
-2.03705,0.538635,
-2.04926,0.543213,
-2.05688,0.543213,
-2.07214,0.543213,
-2.08588,0.549316,
-2.10114,0.541687,
-2.11792,0.543213,
-2.13013,0.544739,
-2.15149,0.549316,
-2.17133,0.546265,
-2.19269,0.540161,
-2.21558,0.541687,
-2.23694,0.540161,
-2.25983,0.549316,
-2.28271,0.549316,
-2.30713,0.541687,
-2.32697,0.543213,
-2.35291,0.543213,
-2.37885,0.549316,
-2.40326,0.549316,
-2.4231,0.541687,
-2.44904,0.541687,
-2.47345,0.540161,
-2.49481,0.546265,
-2.51923,0.547791,
-2.54669,0.541687,
-2.56958,0.543213,
-2.59247,0.541687,
-2.61688,0.547791,
-2.64282,0.546265,
-2.66876,0.544739,
-2.69318,0.546265,
-2.71912,0.543213,
-2.742,0.547791,
-2.76642,0.550842,
-2.7832,0.540161,
-2.80304,0.546265,
-2.82135,0.543213,
-2.83356,0.547791,
-2.85492,0.547791,
-2.86865,0.543213,
-2.88544,0.543213,
-2.90527,0.543213,
-2.92053,0.550842,
-2.93732,0.547791,
-2.95258,0.538635,
-2.97241,0.546265,
-2.98462,0.541687,
-2.99683,0.549316,
-3.00751,0.550842,
-3.01361,0.541687,
-3.02277,0.546265,
-3.02734,0.546265,
-3.0304,0.552368,
-3.01514,0.549316,
-2.9953,0.543213,
-2.97089,0.541687,
-2.92664,0.541687,
-2.87476,0.553894,
-2.81372,0.549316,
-2.74353,0.546265,
-2.67181,0.543213,
-2.59094,0.543213,
-2.5116,0.550842,
-2.42615,0.552368,
-2.33612,0.546265,
-2.25525,0.546265,
-2.16827,0.544739,
-2.08435,0.552368,
-2.005,0.550842,
-1.91803,0.549316,
-1.83868,0.544739,
-1.76239,0.547791,
-1.68152,0.552368,
-1.6098,0.552368,
-1.54114,0.546265,
-1.47552,0.544739,
-1.41449,0.547791,
-1.36108,0.550842,
-1.30615,0.550842,
-1.2558,0.547791,
-1.21002,0.543213,
-1.17188,0.550842,
-1.13678,0.550842,
-1.10779,0.549316,
-1.08185,0.547791,
-1.06049,0.544739,
-1.04523,0.546265,
-1.04065,0.552368,
-1.03302,0.547791,
-1.03302,0.547791,
-1.03455,0.547791,
-1.03912,0.549316,
-1.04828,0.550842,
-1.05286,0.549316,
-1.06964,0.549316,
-1.07727,0.547791,
-1.09863,0.547791,
-1.12,0.553894,
-1.14594,0.546265,
-1.17035,0.547791,
-1.19934,0.547791,
-1.23138,0.550842,
-1.26343,0.553894,
-1.29089,0.549316,
-1.32446,0.547791,
-1.35803,0.546265,
-1.39465,0.547791,
-1.4328,0.556946,
-1.46637,0.552368,
-1.50757,0.550842,
-1.54266,0.547791,
-1.58081,0.547791,
-1.61743,0.552368,
-1.64948,0.547791,
-1.67847,0.549316,
-1.70441,0.546265,
-1.73187,0.552368,
-1.75629,0.552368,
-1.77307,0.550842,
-1.7868,0.550842,
-1.80359,0.547791,
-1.81122,0.547791,
-1.81885,0.553894,
-1.82495,0.549316,
-1.8219,0.550842,
-1.82648,0.547791,
-1.82037,0.549316,
-1.8158,0.553894,
-1.80817,0.552368,
-1.79901,0.549316,
-1.79138,0.547791,
-1.77612,0.552368,
-1.76086,0.55542,
-1.74866,0.552368,
-1.73492,0.552368,
-1.73035,0.546265,
-1.71509,0.553894,
-1.70441,0.556946,
-1.69678,0.553894,
-1.6922,0.552368,
-1.6922,0.549316,
-1.68915,0.552368,
-1.68762,0.556946,
-1.68915,0.553894,
-1.69373,0.552368,
-1.69678,0.552368,
-1.69983,0.55542,
-1.70746,0.556946,
-1.71356,0.553894,
-1.72272,0.553894,
-1.73035,0.550842,
-1.73798,0.553894,
-1.75171,0.558472,
-1.76392,0.55542,
-1.77917,0.556946,
-1.79596,0.552368,
-1.80817,0.553894,
-1.8219,0.558472,
-1.83868,0.558472,
-1.85852,0.553894,
-1.87378,0.550842,
-1.89514,0.55542,
-1.90887,0.561523,
-1.93024,0.55542,
-1.95007,0.556946,
-1.97449,0.550842,
-1.99738,0.55542,
-2.01569,0.558472,
-2.03857,0.556946,
-2.06451,0.553894,
-2.08282,0.552368,
-2.10571,0.55542,
-2.13623,0.559998,
-2.15454,0.558472,
-2.17743,0.55542,
-2.19727,0.552368,
-2.22321,0.556946,
-2.24762,0.563049,
-2.27356,0.559998,
-2.2934,0.556946,
-2.31476,0.549316,
-2.33917,0.559998,
-2.35443,0.556946,
-2.37122,0.559998,
-2.38647,0.556946,
-2.40936,0.55542,
-2.42157,0.558472,
-2.44293,0.559998,
-2.45667,0.558472,
-2.47498,0.559998,
-2.49481,0.553894,
-2.50854,0.559998,
-2.52686,0.559998,
-2.54669,0.558472,
-2.56195,0.558472,
-2.58331,0.552368,
-2.6001,0.558472,
-2.61078,0.559998,
-2.62604,0.561523,
-2.63977,0.558472,
-2.65503,0.550842,
-2.66571,0.561523,
-2.67487,0.566101,
-2.67639,0.561523,
-2.67181,0.561523,
-2.66571,0.553894,
-2.64893,0.559998,
-2.61841,0.563049,
-2.58179,0.563049,
-2.53296,0.559998,
-2.48108,0.553894,
-2.41241,0.563049,
-2.34222,0.566101,
-2.26593,0.561523,
-2.18964,0.561523,
-2.11029,0.55542,
-2.03247,0.563049,
-1.95618,0.567627,
-1.87683,0.561523,
-1.80206,0.556946,
-1.72577,0.55542,
-1.65558,0.563049,
-1.57776,0.569153,
-1.50757,0.563049,
-1.4389,0.566101,
-1.37939,0.553894,
-1.31836,0.559998,
-1.2619,0.566101,
-1.21155,0.566101,
-1.1673,0.561523,
-1.12,0.558472,
-1.08337,0.561523,
-1.0437,0.566101,
-1.01318,0.566101,
-0.984192,0.563049,
-0.965881,0.55542,
-0.949097,0.563049,
-0.935364,0.566101,
-0.924683,0.569153,
-0.918579,0.566101,
-0.917053,0.558472,
-0.917053,0.567627,
-0.920105,0.566101,
-0.932312,0.567627,
-0.941467,0.567627,
-0.952148,0.556946,
-0.970459,0.566101,
-0.984192,0.567627,
-1.0025,0.567627,
-1.02386,0.563049,
-1.04523,0.55542,
-1.07117,0.567627,
-1.09711,0.569153,
-1.12457,0.570679,
-1.15204,0.567627,
-1.1795,0.558472,
-1.21002,0.567627,
-1.24054,0.570679,
-1.27563,0.567627,
-1.31073,0.570679,
-1.34277,0.553894,
-1.37939,0.567627,
-1.41144,0.567627,
-1.44348,0.570679,
-1.4801,0.567627,
-1.50604,0.561523,
-1.53656,0.572205,
-1.56403,0.567627,
-1.58844,0.572205,
-1.60522,0.569153,
-1.62201,0.558472,
-1.63422,0.572205,
-1.64032,0.57373,
-1.64795,0.572205,
-1.6571,0.569153,
-1.6571,0.556946,
-1.6571,0.570679,
-1.6571,0.57373,
-1.65558,0.569153,
-1.64642,0.569153,
-1.63879,0.561523,
-1.63269,0.570679,
-1.62811,0.572205,
-1.61743,0.570679,
-1.60522,0.569153,
-1.60065,0.561523,
-1.59302,0.570679,
-1.58386,0.57373,
-1.57166,0.572205,
-1.5625,0.569153,
-1.5625,0.563049,
-1.5564,0.569153,
-1.5564,0.57373,
-1.55334,0.567627,
-1.55182,0.572205,
-1.55182,0.561523,
-1.55334,0.569153,
-1.55487,0.575256,
-1.55792,0.569153,
-1.5564,0.572205,
-1.56403,0.563049,
-1.57166,0.572205,
-1.58386,0.570679,
-1.58844,0.570679,
-1.59912,0.570679,
-1.6098,0.561523,
-1.62506,0.569153,
-1.63574,0.570679,
-1.64948,0.57373,
-1.66779,0.570679,
-1.68762,0.558472,
-1.70135,0.570679,
-1.71661,0.575256,
-1.74103,0.57373,
-1.76544,0.572205,
-1.78528,0.563049,
-1.80359,0.572205,
-1.8219,0.570679,
-1.83716,0.572205,
-1.85852,0.575256,
-1.87836,0.566101,
-1.89819,0.570679,
-1.91803,0.57373,
-1.93939,0.572205,
-1.95923,0.572205,
-1.98059,0.563049,
-2.00195,0.575256,
-2.01721,0.57373,
-2.04315,0.57373,
-2.05536,0.57373,
-2.07367,0.563049,
-2.09351,0.576782,
-2.10724,0.57373,
-2.12555,0.57373,
-2.14386,0.572205,
-2.15759,0.561523,
-2.17743,0.57373,
-2.19574,0.572205,
-2.21252,0.572205,
-2.22778,0.575256,
-2.24609,0.566101,
-2.26135,0.576782,
-2.28271,0.570679,
-2.29492,0.576782,
-2.31323,0.570679,
-2.32849,0.566101,
-2.33612,0.576782,
-2.35138,0.572205,
-2.36359,0.575256,
-2.37732,0.572205,
-2.39105,0.563049,
-2.40173,0.575256,
-2.41699,0.57373,
-2.42767,0.575256,
-2.43683,0.570679,
-2.44751,0.567627,
-2.45209,0.575256,
-2.45056,0.57373,
-2.43683,0.572205,
-2.42157,0.572205,
-2.39716,0.566101,
-2.36511,0.575256,
-2.32544,0.57373,
-2.27814,0.572205,
-2.22321,0.57373,
-2.16827,0.566101,
-2.10266,0.576782,
-2.03705,0.57373,
-1.96838,0.57373,
-1.89514,0.567627,
-1.82648,0.567627,
-1.75934,0.578308,
-1.68762,0.575256,
-1.61896,0.572205,
-1.55182,0.572205,
-1.49078,0.567627,
-1.43127,0.575256,
-1.37177,0.575256,
-1.31836,0.576782,
-1.26648,0.570679,
-1.2207,0.563049,
-1.17035,0.575256,
-1.12305,0.57373,
-1.08795,0.575256,
-1.05438,0.572205,
-1.02386,0.566101,
-0.999451,0.576782,
-0.978088,0.578308,
-0.961304,0.576782,
-0.949097,0.570679,
-0.947571,0.569153,
-0.941467,0.57373,
-0.941467,0.576782,
-0.942993,0.575256,
-0.944519,0.569153,
-0.950623,0.570679,
-0.956726,0.576782,
-0.961304,0.576782,
-0.973511,0.57373,
-0.985718,0.569153,
-1.00403,0.567627,
-1.01776,0.57373,
-1.03912,0.578308,
-1.05591,0.57373,
-1.07727,0.570679,
-1.10626,0.572205,
-1.12762,0.575256,
-1.15967,0.576782,
-1.19019,0.57373,
-1.22375,0.567627,
-1.2558,0.570679,
-1.28632,0.578308,
-1.31836,0.575256,
-1.34888,0.575256,
-1.37482,0.570679,
-1.40533,0.572205,
-1.43127,0.578308,
-1.45874,0.578308,
-1.48315,0.572205,
-1.49994,0.570679,
-1.51825,0.570679,
-1.53809,0.576782,
-1.55334,0.575256,
-1.56708,0.572205,
-1.57776,0.567627,
-1.58691,0.567627,
-1.58997,0.576782,
-1.59302,0.575256,
-1.59149,0.575256,
-1.59454,0.567627,
-1.59302,0.570679,
-1.58997,0.575256,
-1.58997,0.578308,
-1.58539,0.57373,
-1.57776,0.567627,
-1.57166,0.569153,
-1.56555,0.575256,
-1.55792,0.575256,
-1.55029,0.576782,
-1.54877,0.567627,
-1.53961,0.570679,
-1.53656,0.575256,
-1.53503,0.576782,
-1.52893,0.572205,
-1.52588,0.567627,
-1.52283,0.570679,
-1.5213,0.575256,
-1.52588,0.579834,
-1.52893,0.572205,
-1.53351,0.566101,
-1.53656,0.572205,
-1.54266,0.575256,
-1.55182,0.57373,
-1.56097,0.57373,
-1.56708,0.567627,
-1.57471,0.572205,
-1.58691,0.576782,
-1.59149,0.579834,
-1.60522,0.576782,
-1.61285,0.569153,
-1.63269,0.569153,
-1.6449,0.576782,
-1.65863,0.576782,
-1.67542,0.575256,
-1.68915,0.569153,
-1.69983,0.570679,
-1.71051,0.575256,
-1.73035,0.579834,
-1.74408,0.579834,
-1.76086,0.569153,
-1.7746,0.569153,
-1.79138,0.572205,
-1.80511,0.578308,
-1.82037,0.575256,
-1.83716,0.567627,
-1.85394,0.570679,
-1.8692,0.578308,
-1.88751,0.578308,
-1.9043,0.576782,
-1.91956,0.569153,
-1.93634,0.57373,
-1.9455,0.575256,
-1.96533,0.578308,
-1.97601,0.576782,
-1.9928,0.569153,
-2.01416,0.57373,
-2.02789,0.576782,
-2.04773,0.576782,
-2.06146,0.575256,
-2.07825,0.569153,
-2.0874,0.572205,
-2.10266,0.575256,
-2.11334,0.579834,
-2.1286,0.575256,
-2.14233,0.569153,
-2.15302,0.570679,
-2.16827,0.578308,
-2.18353,0.576782,
-2.19727,0.57373,
-2.20947,0.569153,
-2.22321,0.569153,
-2.23389,0.576782,
-2.25067,0.57373,
-2.26288,0.575256,
-2.27356,0.570679,
-2.28271,0.572205,
-2.29034,0.575256,
-2.29645,0.57373,
-2.30255,0.57373,
-2.31323,0.567627,
-2.31934,0.569153,
-2.32391,0.576782,
-2.32239,0.57373,
-2.31628,0.578308,
-2.30103,0.566101,
-2.27661,0.572205,
-2.24457,0.57373,
-2.2049,0.575256,
-2.15912,0.57373,
-2.10724,0.570679,
-2.04926,0.570679,
-1.98364,0.576782,
-1.91803,0.575256,
-1.85242,0.575256,
-1.7807,0.567627,
-1.71051,0.567627,
-1.63727,0.578308,
-1.57166,0.578308,
-1.50299,0.57373,
-1.44043,0.569153,
-1.37787,0.569153,
-1.31226,0.57373,
-1.25427,0.575256,
-1.19934,0.57373,
-1.15204,0.570679,
-1.10626,0.569153,
-1.05743,0.57373,
-1.01624,0.576782,
-0.98114,0.575256,
-0.950623,0.569153,
-0.926208,0.569153,
-0.904846,0.57373,
-0.889587,0.576782,
-0.875854,0.576782,
-0.865173,0.569153,
-0.852966,0.570679,
-0.849915,0.57373,
-0.849915,0.575256,
-0.852966,0.575256,
-0.852966,0.572205,
-0.865173,0.57373,
-0.872803,0.572205,
-0.886536,0.576782,
-0.90332,0.576782,
-0.923157,0.569153,
-0.941467,0.569153,
-0.964355,0.57373,
-0.98877,0.57373,
-1.01166,0.57373,
-1.04065,0.569153,
-1.06354,0.567627,
-1.091,0.572205,
-1.12,0.576782,
-1.14441,0.572205,
-1.17493,0.572205,
-1.20087,0.569153,
-1.23444,0.570679,
-1.26343,0.57373,
-1.29242,0.57373,
-1.31683,0.570679,
-1.3443,0.572205,
-1.36719,0.570679,
-1.39008,0.575256,
-1.41449,0.57373,
-1.43585,0.572205,
-1.45416,0.57373,
-1.47095,0.570679,
-1.48926,0.575256,
-1.49536,0.57373,
-1.50757,0.570679,
-1.51215,0.569153,
-1.5152,0.570679,
-1.5152,0.576782,
-1.5152,0.57373,
-1.5152,0.569153,
-1.50452,0.569153,
-1.49994,0.570679,
-1.48926,0.575256,
-1.4801,0.57373,
-1.4679,0.569153,
-1.45416,0.570679,
-1.44653,0.572205,
-1.43585,0.572205,
-1.42365,0.572205,
-1.41296,0.570679,
-1.40381,0.569153,
-1.40076,0.570679,
-1.39465,0.572205,
-1.39008,0.575256,
-1.3916,0.569153,
-1.38702,0.569153,
-1.38245,0.567627,
-1.38245,0.578308,
-1.3855,0.576782,
-1.39008,0.570679,
-1.39008,0.569153,
-1.39618,0.570679,
-1.39771,0.57373,
-1.40686,0.569153,
-1.41296,0.567627,
-1.4267,0.567627,
-1.4389,0.570679,
-1.44958,0.576782,
-1.46027,0.572205,
-1.47552,0.567627,
-1.48926,0.567627,
-1.49841,0.569153,
-1.51062,0.572205,
-1.5274,0.572205,
-1.54114,0.570679,
-1.55487,0.569153,
-1.56555,0.567627,
-1.58081,0.572205,
-1.59302,0.570679,
-1.6037,0.572205,
-1.61896,0.567627,
-1.63574,0.567627,
-1.65405,0.570679,
-1.66779,0.572205,
-1.68152,0.567627,
-1.69983,0.570679,
-1.71204,0.569153,
-1.72882,0.572205,
-1.74713,0.570679,
-1.76392,0.567627,
-1.78375,0.570679,
-1.80511,0.566101,
-1.82037,0.570679,
-1.83716,0.570679,
-1.85852,0.569153,
-1.87531,0.572205,
-1.89056,0.566101,
-1.90735,0.57373,
-1.92261,0.57373,
-1.93787,0.569153,
-1.94855,0.567627,
-1.9577,0.566101,
-1.96838,0.575256,
-1.98212,0.570679,
-1.99585,0.570679,
-2.00806,0.567627,
-2.01569,0.567627,
-2.03247,0.57373,
-2.04163,0.572205,
-2.05231,0.566101,
-2.06757,0.566101,
-2.07214,0.563049,
-2.08588,0.575256,
-2.09503,0.572205,
-2.10876,0.569153,
-2.12402,0.569153,
-2.13318,0.561523,
-2.14081,0.570679,
-2.15302,0.572205,
-2.16217,0.567627,
-2.17133,0.567627,
-2.1759,0.567627,
-2.17896,0.572205,
-2.18658,0.57373,
-2.18964,0.567627,
-2.19116,0.567627,
-2.18048,0.561523,
-2.16827,0.572205,
-2.14386,0.570679,
-2.11487,0.570679,
-2.07977,0.567627,
-2.03552,0.563049,
-1.98669,0.572205,
-1.93176,0.572205,
-1.87531,0.563049,
-1.81274,0.563049,
-1.74561,0.563049,
-1.68152,0.570679,
-1.61285,0.57373,
-1.54419,0.569153,
-1.474,0.566101,
-1.41144,0.561523,
-1.34735,0.570679,
-1.28021,0.572205,
-1.21765,0.570679,
-1.15967,0.566101,
-1.10474,0.561523,
-1.05286,0.572205,
-1.00555,0.570679,
-0.959778,0.567627,
-0.917053,0.567627,
-0.874329,0.563049,
-0.842285,0.567627,
-0.813293,0.570679,
-0.784302,0.567627,
-0.75531,0.566101,
-0.741577,0.563049,
-0.726318,0.569153,
-0.714111,0.569153,
-0.706482,0.566101,
-0.700378,0.569153,
-0.700378,0.559998,
-0.700378,0.570679,
-0.706482,0.567627,
-0.712585,0.567627,
-0.724792,0.566101,
-0.737,0.566101,
-0.750732,0.57373,
-0.764465,0.569153,
-0.779724,0.566101,
-0.799561,0.566101,
-0.814819,0.563049,
-0.834656,0.570679,
-0.854492,0.569153,
-0.880432,0.561523,
-0.904846,0.563049,
-0.935364,0.561523,
-0.964355,0.570679,
-0.991821,0.567627,
-1.02081,0.563049,
-1.05133,0.561523,
-1.08032,0.561523,
-1.11084,0.572205,
-1.13678,0.572205,
-1.16272,0.566101,
-1.19019,0.566101,
-1.21155,0.561523,
-1.23291,0.570679,
-1.24969,0.572205,
-1.2619,0.563049,
-1.27869,0.569153,
-1.28479,0.563049,
-1.29089,0.569153,
-1.297,0.569153,
-1.29547,0.569153,
-1.29242,0.566101,
-1.29395,0.566101,
-1.29395,0.567627,
-1.29089,0.569153,
-1.28632,0.563049,
-1.28174,0.566101,
-1.27411,0.563049,
-1.26648,0.569153,
-1.25885,0.570679,
-1.25122,0.570679,
-1.24207,0.567627,
-1.23291,0.559998,
-1.21918,0.567627,
-1.21307,0.567627,
-1.20697,0.567627,
-1.19629,0.567627,
-1.18866,0.563049,
-1.18561,0.561523,
-1.18408,0.570679,
-1.18103,0.566101,
-1.18408,0.567627,
-1.18103,0.559998,
-1.18713,0.566101,
-1.19019,0.566101,
-1.19324,0.567627,
-1.19781,0.569153,
-1.19934,0.561523,
-1.20697,0.566101,
-1.2146,0.567627,
-1.21918,0.567627,
-1.22986,0.567627,
-1.24207,0.561523,
-1.25122,0.563049,
-1.2619,0.567627,
-1.27563,0.566101,
-1.28784,0.563049,
-1.29852,0.558472,
-1.31531,0.567627,
-1.32904,0.567627,
-1.33972,0.563049,
-1.35651,0.563049,
-1.37177,0.559998,
-1.39313,0.567627,
-1.41602,0.567627,
-1.42975,0.566101,
-1.45111,0.563049,
-1.46332,0.561523,
-1.48163,0.570679,
-1.49841,0.569153,
-1.51062,0.567627,
-1.52893,0.566101,
-1.53656,0.559998,
-1.5564,0.567627,
-1.57166,0.566101,
-1.58081,0.566101,
-1.59607,0.563049,
-1.61285,0.561523,
-1.62506,0.569153,
-1.63422,0.569153,
-1.64185,0.567627,
-1.6571,0.563049,
-1.66931,0.561523,
-1.68152,0.567627,
-1.69525,0.569153,
-1.70593,0.566101,
-1.71814,0.563049,
-1.72729,0.558472,
-1.74561,0.570679,
-1.76086,0.567627,
-1.77307,0.566101,
-1.79138,0.561523,
-1.80359,0.558472,
-1.81427,0.567627,
-1.828,0.569153,
-1.84174,0.566101,
-1.85089,0.566101,
-1.86615,0.563049,
-1.87836,0.569153,
-1.89056,0.566101,
-1.90887,0.567627,
-1.91956,0.563049,
-1.93329,0.556946,
-1.94702,0.567627,
-1.95923,0.563049,
-1.97144,0.566101,
-1.98364,0.563049,
-1.99127,0.559998,
-2.00043,0.566101,
-2.005,0.567627,
-2.01111,0.569153,
-2.00958,0.566101,
-2.01416,0.558472,
-2.01111,0.566101,
-2.005,0.566101,
-1.98517,0.569153,
-1.9577,0.566101,
-1.93024,0.559998,
-1.88904,0.563049,
-1.84784,0.563049,
-1.79596,0.563049,
-1.73645,0.566101,
-1.67694,0.556946,
-1.61743,0.563049,
-1.55029,0.567627,
-1.48468,0.566101,
-1.41296,0.566101,
-1.3443,0.558472,
-1.27411,0.559998,
-1.20544,0.567627,
-1.13678,0.566101,
-1.06812,0.561523,
-1.00555,0.55542,
-0.944519,0.570679,
-0.886536,0.567627,
-0.837708,0.563049,
-0.788879,0.559998,
-0.747681,0.561523,
-0.704956,0.566101,
-0.666809,0.561523,
-0.63324,0.566101,
-0.604248,0.563049,
-0.575256,0.55542,
-0.558472,0.566101,
-0.541687,0.567627,
-0.527954,0.567627,
-0.518799,0.559998,
-0.511169,0.559998,
-0.506592,0.567627,
-0.506592,0.561523,
-0.508118,0.563049,
-0.517273,0.558472,
-0.524902,0.55542,
-0.537109,0.566101,
-0.547791,0.563049,
-0.561523,0.561523,
-0.578308,0.559998,
-0.601196,0.556946,
-0.621033,0.561523,
-0.639343,0.558472,
-0.662231,0.566101,
-0.686646,0.559998,
-0.709534,0.559998,
-0.741577,0.566101,
-0.773621,0.561523,
-0.802612,0.563049,
-0.831604,0.556946,
-0.863647,0.556946,
-0.891113,0.561523,
-0.918579,0.559998,
-0.949097,0.559998,
-0.978088,0.561523,
-1.00708,0.556946,
-1.02539,0.566101,
-1.04218,0.563049,
-1.05896,0.566101,
-1.07727,0.559998,
-1.09253,0.556946,
-1.10474,0.558472,
-1.11389,0.561523,
-1.12457,0.558472,
-1.12762,0.559998,
-1.1322,0.556946,
-1.13373,0.563049,
-1.13068,0.563049,
-1.1261,0.563049,
-1.12,0.559998,
-1.11694,0.558472,
-1.10626,0.559998,
-1.09711,0.561523,
-1.08795,0.559998,
-1.0788,0.558472,
-1.06812,0.55542,
-1.05591,0.566101,
-1.0437,0.563049,
-1.03455,0.563049,
-1.02386,0.558472,
-1.01624,0.556946,
-1.00555,0.561523,
-1.0025,0.561523,
-0.991821,0.566101,
-0.990295,0.558472,
-0.990295,0.556946,
-0.990295,0.566101,
-0.993347,0.559998,
-0.993347,0.561523,
-1.00098,0.556946,
-1.01013,0.55542,
-1.01929,0.561523,
-1.02234,0.559998,
-1.02997,0.563049,
-1.04065,0.556946,
-1.0498,0.55542,
-1.06049,0.559998,
-1.07117,0.561523,
-1.08185,0.559998,
-1.08795,0.559998,
-1.10168,0.556946,
-1.11542,0.563049,
-1.12457,0.561523,
-1.13983,0.561523,
-1.15204,0.556946,
-1.16425,0.553894,
-1.18103,0.561523,
-1.19476,0.558472,
-1.21307,0.559998,
-1.22223,0.55542,
-1.24512,0.55542,
-1.26038,0.561523,
-1.27411,0.558472,
-1.28937,0.561523,
-1.30615,0.553894,
-1.31989,0.556946,
-1.33209,0.558472,
-1.34888,0.558472,
-1.36108,0.558472,
-1.37939,0.553894,
-1.39008,0.55542,
-1.40839,0.558472,
-1.42365,0.558472,
-1.44043,0.558472,
-1.45416,0.556946,
-1.46942,0.552368,
-1.48773,0.559998,
-1.50146,0.558472,
-1.5152,0.558472,
-1.53198,0.553894,
-1.55029,0.550842,
-1.56555,0.561523,
-1.57623,0.558472,
-1.59302,0.558472,
-1.60828,0.55542,
-1.62354,0.552368,
-1.63727,0.558472,
-1.64948,0.559998,
-1.66626,0.561523,
-1.67389,0.556946,
-1.68762,0.552368,
-1.70441,0.558472,
-1.71661,0.561523,
-1.72577,0.563049,
-1.7395,0.556946,
-1.74866,0.55542,
-1.76239,0.558472,
-1.77307,0.558472,
-1.78223,0.559998,
-1.79138,0.553894,
-1.80054,0.553894,
-1.80664,0.558472,
-1.81732,0.55542,
-1.83105,0.558472,
-1.83411,0.556946,
-1.84174,0.556946,
-1.85852,0.55542,
-1.86005,0.558472,
-1.86615,0.558472,
-1.86615,0.55542,
-1.86462,0.556946,
-1.85242,0.559998,
-1.83716,0.55542,
-1.80969,0.556946,
-1.77155,0.553894,
-1.73187,0.553894,
-1.67999,0.558472,
-1.62201,0.55542,
-1.5625,0.558472,
-1.49841,0.550842,
-1.43433,0.553894,
-1.36719,0.558472,
-1.30005,0.556946,
-1.23138,0.556946,
-1.15967,0.549316,
-1.09558,0.553894,
-1.02692,0.556946,
-0.965881,0.556946,
-0.90332,0.556946,
-0.845337,0.552368,
-0.796509,0.553894,
-0.741577,0.559998,
-0.689697,0.558472,
-0.640869,0.556946,
-0.59967,0.553894,
-0.563049,0.553894,
-0.532532,0.558472,
-0.497437,0.556946,
-0.469971,0.55542,
-0.450134,0.550842,
-0.430298,0.552368,
-0.418091,0.559998,
-0.411987,0.55542,
-0.404358,0.55542,
-0.402832,0.553894,
-0.401306,0.550842,
-0.405884,0.556946,
-0.40741,0.55542,
-0.418091,0.559998,
-0.42572,0.553894,
-0.440979,0.552368,
-0.456238,0.558472,
-0.468445,0.55542,
-0.486755,0.558472,
-0.506592,0.549316,
-0.526428,0.546265,
-0.543213,0.559998,
-0.566101,0.553894,
-0.587463,0.556946,
-0.613403,0.552368,
-0.637817,0.550842,
-0.665283,0.559998,
-0.691223,0.559998,
-0.717163,0.558472,
-0.740051,0.552368,
-0.767517,0.549316,
-0.788879,0.552368,
-0.816345,0.553894,
-0.842285,0.558472,
-0.863647,0.552368,
-0.886536,0.550842,
-0.906372,0.559998,
-0.921631,0.550842,
-0.93689,0.556946,
-0.949097,0.550842,
-0.959778,0.549316,
-0.973511,0.556946,
-0.982666,0.553894,
-0.98877,0.558472,
-0.994873,0.547791,
-1.00555,0.550842,
-1.00555,0.556946,
-1.00861,0.552368,
-1.00861,0.553894,
-1.00861,0.549316,
-1.00555,0.550842,
-1.0025,0.55542,
-1.00098,0.553894,
-0.996399,0.55542,
-0.987244,0.547791,
-0.976563,0.547791,
-0.975037,0.55542,
-0.961304,0.556946,
-0.9552,0.55542,
-0.947571,0.546265,
-0.942993,0.550842,
-0.942993,0.55542,
-0.938416,0.550842,
-0.935364,0.553894,
-0.939941,0.552368,
-0.941467,0.546265,
-0.944519,0.553894,
-0.944519,0.549316,
-0.947571,0.556946,
-0.953674,0.550842,
-0.961304,0.549316,
-0.970459,0.55542,
-0.978088,0.552368,
-0.990295,0.553894,
-1.00098,0.549316,
-1.01013,0.546265,
-1.02386,0.556946,
-1.03912,0.550842,
-1.04675,0.552368,
-1.06049,0.547791,
-1.07269,0.546265,
-1.08643,0.558472,
-1.10321,0.553894,
-1.11084,0.55542,
-1.12305,0.547791,
-1.13983,0.544739,
-1.15051,0.550842,
-1.1673,0.552368,
-1.18561,0.558472,
-1.19629,0.546265,
-1.2146,0.543213,
-1.23291,0.553894,
-1.25122,0.556946,
-1.26495,0.55542,
-1.28326,0.546265,
-1.30463,0.547791,
-1.31836,0.553894,
-1.33514,0.55542,
-1.35498,0.55542,
-1.37024,0.544739,
-1.38855,0.547791,
-1.40381,0.55542,
-1.42517,0.550842,
-1.4389,0.55542,
-1.45721,0.546265,
-1.46942,0.547791,
-1.48468,0.553894,
-1.49689,0.549316,
-1.50909,0.553894,
-1.52435,0.546265,
-1.54419,0.549316,
-1.5625,0.550842,
-1.57776,0.550842,
-1.59302,0.550842,
-1.60828,0.544739,
-1.62201,0.547791,
-1.64032,0.550842,
-1.65405,0.553894,
-1.66626,0.549316,
-1.67847,0.544739,
-1.6922,0.546265,
-1.70746,0.552368,
-1.72272,0.550842,
-1.7334,0.550842,
-1.74561,0.546265,
-1.75629,0.547791,
-1.77002,0.550842,
-1.77917,0.550842,
-1.7868,0.547791,
-1.80206,0.546265,
-1.8158,0.544739,
-1.83105,0.550842,
-1.84784,0.550842,
-1.86462,0.552368,
-1.87836,0.546265,
-1.88904,0.546265,
-1.90277,0.549316,
-1.90887,0.550842,
-1.9165,0.550842,
-1.91498,0.546265,
-1.91345,0.544739,
-1.90887,0.552368,
-1.89819,0.550842,
-1.87836,0.553894,
-1.84631,0.547791,
-1.80511,0.546265,
-1.76239,0.552368,
-1.71051,0.549316,
-1.65405,0.549316,
-1.59302,0.544739,
-1.52893,0.546265,
-1.46027,0.552368,
-1.39008,0.550842,
-1.31531,0.549316,
-1.24054,0.546265,
-1.17645,0.547791,
-1.10779,0.549316,
-1.04675,0.552368,
-0.979614,0.549316,
-0.915527,0.544739,
-0.854492,0.546265,
-0.804138,0.550842,
-0.752258,0.549316,
-0.714111,0.552368,
-0.671387,0.543213,
-0.634766,0.547791,
-0.601196,0.550842,
-0.570679,0.552368,
-0.538635,0.550842,
-0.517273,0.544739,
-0.497437,0.546265,
-0.476074,0.553894,
-0.465393,0.55542,
-0.462341,0.547791,
-0.453186,0.546265,
-0.454712,0.546265,
-0.454712,0.549316,
-0.462341,0.550842,
-0.466919,0.547791,
-0.4776,0.547791,
-0.492859,0.544739,
-0.514221,0.547791,
-0.527954,0.550842,
-0.547791,0.549316,
-0.569153,0.544739,
-0.590515,0.546265,
-0.610352,0.549316,
-0.634766,0.553894,
-0.65918,0.546265,
-0.683594,0.547791,
-0.712585,0.546265,
-0.744629,0.546265,
-0.776672,0.549316,
-0.808716,0.547791,
-0.839233,0.544739,
-0.872803,0.546265,
-0.901794,0.549316,
-0.926208,0.550842,
-0.952148,0.547791,
-0.975037,0.543213,
-0.994873,0.549316,
-1.01166,0.547791,
-1.02844,0.550842,
-1.0437,0.547791,
-1.05591,0.540161,
-1.07422,0.546265,
-1.08185,0.547791,
-1.09863,0.549316,
-1.10779,0.544739,
-1.11237,0.543213,
-1.11389,0.546265,
-1.11694,0.547791,
-1.11847,0.549316,
-1.11694,0.546265,
-1.11847,0.543213,
-1.11237,0.544739,
-1.10626,0.547791,
-1.09711,0.552368,
-1.08948,0.544739,
-1.0788,0.541687,
-1.07727,0.547791,
-1.06812,0.549316,
-1.06201,0.550842,
-1.05743,0.546265,
-1.05286,0.541687,
-1.04675,0.543213,
-1.0437,0.550842,
-1.04065,0.550842,
-1.04065,0.547791,
-1.03912,0.543213,
-1.03607,0.543213,
-1.03455,0.547791,
-1.0376,0.549316,
-1.03912,0.544739,
-1.04218,0.541687,
-1.04523,0.543213,
-1.05438,0.546265,
-1.06201,0.550842,
-1.07422,0.546265,
-1.0849,0.544739,
-1.09711,0.544739,
-1.11084,0.549316,
-1.12457,0.552368,
-1.14441,0.544739,
-1.15967,0.543213,
-1.17798,0.543213,
-1.19324,0.546265,
-1.20697,0.552368,
-1.22223,0.547791,
-1.23749,0.543213,
-1.25732,0.540161,
-1.27411,0.546265,
-1.28937,0.549316,
-1.3092,0.546265,
-1.32751,0.544739,
-1.3443,0.544739,
-1.35956,0.544739,
-1.38245,0.549316,
-1.40228,0.544739,
-1.42059,0.544739,
-1.4389,0.541687,
-1.46027,0.547791,
-1.4801,0.550842,
-1.49231,0.546265,
-1.50604,0.540161,
-1.51825,0.540161,
-1.53351,0.544739,
-1.55029,0.549316,
-1.56708,0.544739,
-1.57928,0.540161,
-1.5976,0.538635,
-1.61285,0.544739,
-1.63116,0.547791,
-1.64948,0.541687,
-1.66779,0.538635,
-1.6861,0.537109,
-1.70441,0.544739,
-1.71814,0.549316,
-1.74103,0.543213,
-1.75781,0.538635,
-1.77765,0.541687,
-1.79291,0.541687,
-1.8158,0.550842,
-1.83563,0.546265,
-1.84937,0.540161,
-1.86462,0.543213,
-1.87683,0.546265,
-1.89362,0.549316,
-1.90735,0.541687,
-1.92413,0.538635,
-1.93939,0.538635,
-1.9516,0.546265,
-1.97144,0.549316,
-1.98822,0.543213,
-2.00195,0.540161,
-2.01874,0.538635,
-2.03094,0.541687,
-2.04315,0.550842,
-2.05078,0.544739,
-2.06604,0.541687,
-2.07672,0.540161,
-2.0874,0.546265,
-2.09961,0.553894,
-2.10724,0.541687,
-2.11334,0.543213,
-2.11487,0.540161,
-2.11487,0.546265,
-2.11334,0.549316,
-2.10114,0.543213,
-2.08282,0.543213,
-2.06146,0.540161,
-2.02637,0.544739,
-1.98364,0.550842,
-1.93481,0.541687,
-1.88446,0.538635,
-1.82495,0.541687,
-1.76239,0.544739,
-1.69678,0.552368,
-1.62811,0.541687,
-1.5625,0.538635,
-1.49689,0.541687,
-1.42365,0.541687,
-1.35498,0.550842,
-1.28479,0.543213,
-1.2207,0.543213,
-1.15814,0.540161,
-1.10168,0.541687,
-1.04218,0.549316,
-0.985718,0.541687,
-0.939941,0.540161,
-0.895691,0.538635,
-0.85144,0.544739,
-0.816345,0.546265,
-0.784302,0.541687,
-0.750732,0.541687,
-0.727844,0.541687,
-0.709534,0.541687,
-0.692749,0.549316,
-0.680542,0.541687,
-0.668335,0.538635,
-0.663757,0.540161,
-0.662231,0.540161,
-0.660706,0.550842,
-0.666809,0.543213,
-0.671387,0.540161,
-0.679016,0.538635,
-0.692749,0.544739,
-0.706482,0.547791,
-0.721741,0.541687,
-0.740051,0.541687,
-0.759888,0.538635,
-0.773621,0.541687,
-0.794983,0.552368,
-0.811768,0.540161,
-0.836182,0.540161,
-0.854492,0.538635,
-0.880432,0.543213,
-0.90332,0.552368,
-0.926208,0.540161,
-0.953674,0.543213,
-0.98114,0.538635,
-1.01013,0.543213,
-1.0376,0.546265,
-1.06049,0.541687,
-1.08948,0.541687,
-1.11694,0.538635,
-1.14136,0.541687,
-1.17035,0.547791,
-1.19019,0.540161,
-1.21155,0.541687,
-1.22833,0.537109,
-1.24664,0.541687,
-1.2558,0.547791,
-1.26495,0.541687,
-1.27716,0.538635,
-1.28326,0.538635,
-1.28326,0.541687,
-1.28937,0.547791,
-1.28632,0.541687,
-1.28326,0.544739,
-1.28021,0.538635,
-1.28021,0.543213,
-1.27106,0.549316,
-1.26648,0.540161,
-1.2558,0.538635,
-1.24969,0.540161,
-1.24512,0.541687,
-1.24054,0.547791,
-1.23749,0.543213,
-1.23444,0.543213,
-1.22986,0.540161,
-1.22986,0.543213,
-1.22528,0.546265,
-1.22681,0.541687,
-1.22528,0.543213,
-1.22681,0.537109,
-1.22681,0.540161,
-1.22528,0.543213,
-1.22375,0.544739,
-1.22528,0.541687,
-1.22528,0.541687,
-1.22986,0.543213,
-1.23596,0.549316,
-1.24969,0.541687,
-1.2558,0.541687,
-1.2619,0.538635,
-1.27106,0.546265,
-1.28021,0.547791,
-1.29089,0.538635,
-1.30463,0.540161,
-1.31683,0.540161,
-1.33209,0.544739,
-1.34735,0.547791,
-1.35803,0.538635,
-1.37024,0.541687,
-1.39008,0.541687,
-1.40533,0.543213,
-1.4267,0.549316,
-1.44348,0.541687,
-1.46027,0.540161,
-1.48163,0.538635,
-1.49841,0.544739,
-1.5213,0.546265,
-1.53809,0.540161,
-1.56097,0.540161,
-1.58386,0.540161,
-1.61133,0.541687,
-1.63269,0.546265,
-1.6571,0.537109,
-1.67694,0.541687,
-1.69983,0.537109,
-1.72119,0.544739,
-1.7395,0.549316,
-1.76392,0.540161,
-1.77765,0.538635,
-1.79901,0.538635,
-1.82037,0.546265,
-1.83563,0.547791,
-1.85242,0.538635,
-1.87531,0.540161,
-1.89667,0.541687,
-1.9165,0.544739,
-1.93481,0.544739,
-1.94855,0.538635,
-1.96838,0.538635,
-1.98517,0.537109,
-2.00195,0.543213,
-2.01569,0.547791,
-2.02637,0.538635,
-2.0401,0.540161,
-2.05688,0.538635,
-2.07062,0.546265,
-2.08588,0.549316,
-2.10571,0.538635,
-2.1225,0.540161,
-2.13776,0.540161,
-2.15454,0.547791,
-2.1698,0.544739,
-2.18353,0.541687,
-2.20184,0.538635,
-2.20947,0.540161,
-2.22321,0.546265,
-2.23389,0.547791,
-2.24609,0.540161,
-2.25677,0.540161,
-2.26746,0.540161,
-2.27814,0.546265,
-2.29034,0.547791,
-2.30255,0.537109,
-2.31628,0.541687,
-2.32849,0.538635,
-2.3407,0.546265,
-2.34985,0.541687,
-2.35138,0.538635,
-2.34833,0.540161,
-2.33917,0.535583,
-2.32391,0.547791,
-2.2934,0.547791,
-2.25525,0.537109,
-2.21558,0.538635,
-2.16522,0.538635,
-2.10876,0.549316,
-2.04926,0.544739,
-1.98822,0.540161,
-1.9165,0.540161,
-1.84631,0.544739,
-1.77612,0.547791,
-1.70746,0.543213,
-1.64032,0.538635,
-1.57013,0.537109,
-1.50299,0.543213,
-1.43585,0.546265,
-1.37329,0.544739,
-1.31531,0.541687,
-1.25732,0.540161,
-1.20544,0.540161,
-1.15509,0.546265,
-1.10779,0.544739,
-1.06201,0.541687,
-1.02081,0.541687,
-0.98877,0.540161,
-0.958252,0.546265,
-0.932312,0.541687,
-0.909424,0.541687,
-0.889587,0.541687,
-0.874329,0.541687,
-0.868225,0.544739,
-0.866699,0.544739,
-0.869751,0.538635,
-0.875854,0.540161,
-0.88501,0.540161,
-0.888062,0.547791,
-0.901794,0.541687,
-0.920105,0.540161,
-0.932312,0.538635,
-0.9552,0.540161,
-0.973511,0.546265,
-0.991821,0.544739,
-1.01929,0.540161,
-1.04065,0.540161,
-1.06354,0.538635,
-1.08643,0.549316,
-1.11084,0.547791,
-1.13068,0.540161,
-1.15967,0.538635,
-1.18713,0.538635,
-1.21155,0.549316,
-1.24054,0.541687,
-1.26801,0.540161,
-1.297,0.541687,
-1.32294,0.541687,
-1.34735,0.547791,
-1.37482,0.541687,
-1.40228,0.541687,
-1.4267,0.538635,
-1.45111,0.538635,
-1.4679,0.547791,
-1.48926,0.541687,
-1.50452,0.538635,
-1.52283,0.538635,
-1.53503,0.540161,
-1.55029,0.549316,
-1.5564,0.544739,
-1.56403,0.537109,
-1.56555,0.538635,
-1.56403,0.538635,
-1.56555,0.546265,
-1.56403,0.541687,
-1.5625,0.538635,
-1.5564,0.538635,
-1.55334,0.540161,
-1.54419,0.547791,
-1.53809,0.544739,
-1.53046,0.537109,
-1.51978,0.537109,
-1.51215,0.538635,
-1.50146,0.547791,
-1.49689,0.544739,
-1.49231,0.540161,
-1.48468,0.537109,
-1.4801,0.537109,
-1.474,0.547791,
-1.474,0.544739,
-1.47247,0.541687,
-1.47705,0.537109,
-1.48315,0.540161,
-1.49231,0.547791,
-1.49841,0.547791,
-1.51062,0.541687,
-1.51978,0.538635,
-1.52893,0.540161,
-1.54266,0.544739,
-1.55487,0.543213,
-1.5686,0.538635,
-1.58081,0.537109,
-1.59607,0.541687,
-1.60828,0.544739,
-1.62659,0.543213,
-1.64032,0.537109,
-1.65863,0.538635,
-1.67389,0.538635,
-1.69067,0.547791,
-1.70441,0.541687,
-1.72424,0.541687,
-1.74255,0.537109,
-1.76239,0.538635,
-1.77917,0.547791,
-1.79901,0.543213,
-1.81427,0.541687,
-1.83411,0.537109,
-1.85852,0.538635,
-1.87683,0.546265,
-1.89362,0.543213,
-1.9165,0.543213,
-1.93024,0.537109,
-1.95007,0.544739,
-1.96533,0.543213,
-1.98517,0.546265,
-2.00195,0.538635,
-2.01874,0.540161,
-2.03705,0.541687,
-2.05231,0.544739,
-2.0752,0.543213,
-2.09503,0.540161,
-2.11182,0.535583,
-2.13013,0.541687,
-2.15454,0.544739,
-2.16827,0.543213,
-2.19116,0.540161,
-2.21252,0.537109,
-2.23083,0.540161,
-2.25372,0.544739,
-2.27203,0.540161,
-2.29034,0.538635,
-2.30255,0.534058,
-2.32086,0.537109,
-2.33612,0.544739,
-2.3468,0.546265,
-2.36664,0.538635,
-2.38037,0.537109,
-2.3941,0.534058,
-2.41241,0.546265,
-2.42767,0.541687,
-2.44598,0.540161,
-2.45972,0.538635,
-2.47803,0.540161,
-2.49329,0.540161,
-2.50854,0.543213,
-2.52686,0.537109,
-2.54211,0.535583,
-2.56042,0.537109,
-2.57416,0.544739,
-2.58789,0.544739,
-2.6001,0.538635,
-2.61078,0.534058,
-2.61688,0.540161,
-2.62756,0.543213,
-2.63519,0.541687,
-2.6413,0.535583,
-2.64282,0.535583,
-2.64893,0.540161,
-2.64282,0.543213,
-2.62909,0.541687,
-2.60925,0.541687,
-2.58179,0.537109,
-2.55127,0.537109,
-2.50244,0.544739,
-2.45514,0.540161,
-2.40021,0.538635,
-2.33612,0.537109,
-2.27509,0.538635,
-2.20642,0.543213,
-2.13623,0.543213,
-2.06146,0.540161,
-1.98975,0.535583,
-1.9165,0.538635,
-1.84784,0.541687,
-1.77612,0.544739,
-1.70593,0.543213,
-1.63879,0.538635,
-1.57623,0.537109,
-1.51672,0.543213,
-1.45721,0.541687,
-1.40076,0.543213,
-1.35193,0.535583,
-1.30157,0.540161,
-1.25732,0.546265,
-1.21613,0.541687,
-1.18103,0.544739,
-1.14746,0.538635,
-1.11847,0.540161,
-1.09711,0.543213,
-1.08185,0.544739,
-1.06354,0.543213,
-1.05743,0.538635,
-1.05438,0.537109,
-1.05591,0.544739,
-1.06049,0.547791,
-1.06354,0.541687,
-1.06964,0.535583,
-1.08185,0.537109,
-1.09253,0.543213,
-1.11237,0.543213,
-1.12457,0.540161,
-1.14441,0.538635,
-1.16272,0.535583,
-1.18408,0.544739,
-1.20544,0.544739,
-1.22833,0.537109,
-1.25427,0.538635,
-1.28326,0.540161,
-1.31226,0.543213,
-1.34277,0.543213,
-1.37482,0.540161,
-1.40533,0.540161,
-1.43738,0.537109,
-1.474,0.544739,
-1.50299,0.540161,
-1.53503,0.540161,
-1.56708,0.540161,
-1.59454,0.538635,
-1.62201,0.543213,
-1.64948,0.544739,
-1.67542,0.538635,
-1.6922,0.535583,
-1.71204,0.538635,
-1.72882,0.540161,
-1.74561,0.541687,
-1.75781,0.538635,
-1.77002,0.540161,
-1.77765,0.540161,
-1.77917,0.541687,
-1.77917,0.543213,
-1.77917,0.541687,
-1.77765,0.537109,
-1.77917,0.538635,
-1.7746,0.543213,
-1.76697,0.543213,
-1.76086,0.543213,
-1.75171,0.537109,
-1.74713,0.538635,
-1.74103,0.541687,
-1.72729,0.543213,
-1.72577,0.543213,
-1.71051,0.537109,
-1.70593,0.538635,
-1.6983,0.547791,
-1.69525,0.544739,
-1.69067,0.544739,
-1.6922,0.540161,
-1.6922,0.538635,
-1.69525,0.538635,
-1.6983,0.541687,
-1.70898,0.543213,
-1.71356,0.538635,
-1.71814,0.537109,
-1.72882,0.543213,
-1.73492,0.543213,
-1.74255,0.546265,
-1.75781,0.538635,
-1.76849,0.538635,
-1.7807,0.543213,
-1.79443,0.543213,
-1.80817,0.543213,
-1.81885,0.541687,
-1.83563,0.538635,
-1.85394,0.543213,
-1.87073,0.544739,
-1.89362,0.544739,
-1.90887,0.538635,
-1.93024,0.538635,
-1.94702,0.543213,
-1.96533,0.544739,
-1.98975,0.544739,
-2.01263,0.535583,
-2.034,0.538635,
-2.05536,0.543213,
-2.07367,0.541687,
-2.08893,0.543213,
-2.11029,0.538635,
-2.13623,0.537109,
-2.15759,0.543213,
-2.18353,0.546265,
-2.2049,0.544739,
-2.22626,0.540161,
-2.2522,0.537109,
-2.27203,0.543213,
-2.29492,0.543213,
-2.31476,0.546265,
-2.33612,0.540161,
-2.35443,0.538635,
-2.37427,0.540161,
-2.3941,0.543213,
-2.41241,0.544739,
-2.43073,0.537109,
-2.45209,0.538635,
-2.46582,0.544739,
-2.48718,0.541687,
-2.50549,0.544739,
-2.51923,0.540161,
-2.53906,0.535583,
-2.55432,0.541687,
-2.57416,0.538635,
-2.59399,0.544739,
-2.61078,0.538635,
-2.62756,0.537109,
-2.6413,0.540161,
-2.65656,0.540161,
-2.67334,0.549316,
-2.69165,0.538635,
-2.70386,0.534058,
-2.71912,0.540161,
-2.73285,0.543213,
-2.74658,0.543213,
-2.76184,0.538635,
-2.77405,0.535583,
-2.79236,0.538635,
-2.80457,0.541687,
-2.8183,0.546265,
-2.83356,0.538635,
-2.85034,0.537109,
-2.8595,0.540161,
-2.87476,0.544739,
-2.89154,0.544739,
-2.89764,0.538635,
-2.9068,0.537109,
-2.91748,0.541687,
-2.91443,0.540161,
-2.90527,0.543213,
-2.89307,0.541687,
-2.86713,0.535583,
-2.84271,0.541687,
-2.80609,0.541687,
-2.76184,0.541687,
-2.70996,0.540161,
-2.65503,0.540161,
-2.59247,0.543213,
-2.52991,0.543213,
-2.46277,0.543213,
-2.388,0.538635,
-2.31476,0.537109,
-2.23999,0.540161,
-2.17285,0.538635,
-2.09198,0.543213,
-2.02179,0.535583,
-1.95465,0.535583,
-1.88599,0.540161,
-1.8158,0.544739,
-1.76086,0.543213,
-1.70441,0.538635,
-1.64948,0.537109,
-1.60065,0.540161,
-1.5564,0.544739,
-1.51062,0.544739,
-1.474,0.537109,
-1.44043,0.534058,
-1.41296,0.541687,
-1.38855,0.540161,
-1.37177,0.541687,
-1.35651,0.537109,
-1.3504,0.534058,
-1.35498,0.541687,
-1.35498,0.538635,
-1.35651,0.543213,
-1.36261,0.535583,
-1.36719,0.537109,
-1.37787,0.541687,
-1.39008,0.540161,
-1.40381,0.541687,
-1.41907,0.535583,
-1.44043,0.535583,
-1.46027,0.543213,
-1.48315,0.538635,
-1.50757,0.541687,
-1.5274,0.535583,
-1.55487,0.534058,
-1.58081,0.537109,
-1.60828,0.540161,
-1.63879,0.543213,
-1.66779,0.540161,
-1.70135,0.534058,
-1.73187,0.535583,
-1.76697,0.538635,
-1.80206,0.538635,
-1.83716,0.538635,
-1.87378,0.534058,
-1.90887,0.538635,
-1.93634,0.541687,
-1.96686,0.543213,
-1.98975,0.544739,
-2.01416,0.534058,
-2.03552,0.540161,
-2.05688,0.541687,
-2.07825,0.541687,
-2.09045,0.541687,
-2.10266,0.534058,
-2.11182,0.538635,
-2.11334,0.540161,
-2.11792,0.541687,
-2.11334,0.540161,
-2.10419,0.534058,
-2.09961,0.537109,
-2.09198,0.538635,
-2.08435,0.541687,
-2.07825,0.541687,
-2.07214,0.537109,
-2.05841,0.540161,
-2.04926,0.538635,
-2.03705,0.540161,
-2.02179,0.541687,
-2.00806,0.537109,
-2.00195,0.538635,
-1.9928,0.538635,
-1.98059,0.538635,
-1.97754,0.537109,
-1.97449,0.535583,
-1.96838,0.540161,
-1.96228,0.540161,
-1.96381,0.541687,
-1.96228,0.540161,
-1.96381,0.537109,
-1.96381,0.537109,
-1.96838,0.538635,
-1.97144,0.540161,
-1.97601,0.537109,
-1.97906,0.535583,
-1.98212,0.535583,
-1.98975,0.540161,
-2.00043,0.541687,
-2.00958,0.538635,
-2.02179,0.540161,
-2.03705,0.537109,
-2.0462,0.537109,
-2.05536,0.541687,
-2.07062,0.540161,
-2.08282,0.534058,
-2.10114,0.537109,
-2.11487,0.538635,
-2.13928,0.538635,
-2.15607,0.538635,
-2.17438,0.534058,
-2.19269,0.537109,
-2.21252,0.537109,
-2.23236,0.540161,
-2.2522,0.540161,
-2.27356,0.535583,
-2.2934,0.540161,
-2.31018,0.537109,
-2.32697,0.541687,
-2.34375,0.532532,
-2.35901,0.532532,
-2.3819,0.538635,
-2.40021,0.540161,
-2.42004,0.541687,
-2.43835,0.534058,
-2.45514,0.527954,
-2.47345,0.535583,
-2.49176,0.535583,
-2.51312,0.537109,
-2.52991,0.535583,
-2.54822,0.535583,
-2.56653,0.537109,
-2.58942,0.537109,
-2.6123,0.541687,
-2.63519,0.535583,
-2.6535,0.534058,
-2.66876,0.535583,
-2.68555,0.537109,
-2.70538,0.538635,
-2.71759,0.532532,
-2.73438,0.534058,
-2.75421,0.540161,
-2.76794,0.535583,
-2.78778,0.537109,
-2.80304,0.535583,
-2.82135,0.52948,
-2.83508,0.537109,
-2.85645,0.538635,
-2.86713,0.538635,
-2.88544,0.532532,
-2.89917,0.535583,
-2.9129,0.537109,
-2.92969,0.538635,
-2.94647,0.538635,
-2.95258,0.537109,
-2.96326,0.535583,
-2.96173,0.535583,
-2.96021,0.535583,
-2.94495,0.538635,
-2.91901,0.535583,
-2.89307,0.534058,
-2.85034,0.537109,
-2.79999,0.538635,
-2.742,0.538635,
-2.68402,0.534058,
-2.62146,0.534058,
-2.55432,0.537109,
-2.48108,0.534058,
-2.40021,0.541687,
-2.32239,0.535583,
-2.24457,0.537109,
-2.16522,0.537109,
-2.08282,0.538635,
-2.00958,0.538635,
-1.93024,0.538635,
-1.85242,0.534058,
-1.7807,0.538635,
-1.70746,0.538635,
-1.64032,0.537109,
-1.57166,0.537109,
-1.51062,0.534058,
-1.45416,0.535583,
-1.40076,0.537109,
-1.35803,0.538635,
-1.31073,0.535583,
-1.27106,0.538635,
-1.23444,0.535583,
-1.20239,0.535583,
-1.17798,0.540161,
-1.15509,0.537109,
-1.13831,0.534058,
-1.1261,0.537109,
-1.12,0.540161,
-1.11542,0.541687,
-1.12,0.535583,
-1.12,0.535583,
-1.12457,0.538635,
-1.13373,0.537109,
-1.14441,0.540161,
-1.15967,0.535583,
-1.18103,0.532532,
-1.20239,0.537109,
-1.22833,0.540161,
-1.25427,0.538635,
-1.28632,0.534058,
-1.31378,0.534058,
-1.34583,0.537109,
-1.37482,0.532532,
-1.40381,0.540161,
-1.43585,0.537109,
-1.47095,0.534058,
-1.50146,0.537109,
-1.53198,0.534058,
-1.57013,0.541687,
-1.60217,0.534058,
-1.63727,0.534058,
-1.67084,0.537109,
-1.70288,0.535583,
-1.7334,0.537109,
-1.75629,0.535583,
-1.77917,0.534058,
-1.80206,0.535583,
-1.8219,0.538635,
-1.83716,0.538635,
-1.84937,0.534058,
-1.85547,0.535583,
-1.8631,0.534058,
-1.87073,0.537109,
-1.87531,0.537109,
-1.87378,0.534058,
-1.87073,0.535583,
-1.86768,0.532532,
-1.86005,0.537109,
-1.85394,0.535583,
-1.84479,0.52948,
-1.83716,0.535583,
-1.83105,0.534058,
-1.8219,0.535583,
-1.80817,0.535583,
-1.79749,0.535583,
-1.78528,0.532532,
-1.77307,0.535583,
-1.77002,0.535583,
-1.76239,0.535583,
-1.75476,0.534058,
-1.75018,0.534058,
-1.74713,0.534058,
-1.74713,0.537109,
-1.74408,0.538635,
-1.74866,0.532532,
-1.75476,0.535583,
-1.75629,0.537109,
-1.76849,0.537109,
-1.77155,0.537109,
-1.77765,0.534058,
-1.79596,0.52948,
-1.80664,0.537109,
-1.81885,0.537109,
-1.83258,0.537109,
-1.84937,0.535583,
-1.86615,0.534058,
-1.88599,0.537109,
-1.90735,0.535583,
-1.93176,0.534058,
-1.94855,0.532532,
-1.97296,0.532532,
-1.9928,0.532532,
-2.00958,0.537109,
-2.034,0.540161,
-2.05536,0.532532,
-2.07825,0.535583,
-2.10114,0.534058,
-2.1225,0.538635,
-2.14539,0.537109,
-2.17438,0.535583,
-2.19574,0.535583,
-2.21863,0.534058,
-2.24152,0.538635,
-2.26593,0.537109,
-2.28577,0.532532,
-2.31018,0.532532,
-2.33307,0.534058,
-2.35901,0.540161,
-2.38037,0.537109,
-2.40479,0.532532,
-2.42615,0.535583,
-2.45209,0.534058,
-2.47192,0.538635,
-2.49786,0.537109,
-2.5177,0.532532,
-2.53754,0.535583,
-2.56042,0.537109,
-2.57721,0.535583,
-2.59552,0.534058,
-2.61078,0.52948,
-2.63062,0.532532,
-2.64282,0.534058,
-2.66266,0.535583,
-2.67944,0.535583,
-2.70233,0.52948,
-2.72217,0.532532,
-2.742,0.535583,
-2.76031,0.538635,
-2.77863,0.535583,
-2.79846,0.527954,
-2.82288,0.532532,
-2.83966,0.534058,
-2.85645,0.540161,
-2.86865,0.535583,
-2.88544,0.532532,
-2.90222,0.534058,
-2.9129,0.534058,
-2.91595,0.537109,
-2.92816,0.534058,
-2.92358,0.534058,
-2.90985,0.532532,
-2.88696,0.532532,
-2.85492,0.538635,
-2.81372,0.535583,
-2.76031,0.527954,
-2.69623,0.534058,
-2.63214,0.532532,
-2.56042,0.537109,
-2.4826,0.537109,
-2.39258,0.534058,
-2.31323,0.52948,
-2.22473,0.532532,
-2.13318,0.537109,
-2.04315,0.532532,
-1.95007,0.534058,
-1.85547,0.534058,
-1.76392,0.532532,
-1.67694,0.535583,
-1.58997,0.534058,
-1.50452,0.532532,
-1.42365,0.534058,
-1.34277,0.52948,
-1.26953,0.537109,
-1.19781,0.535583,
-1.13831,0.52948,
-1.07422,0.532532,
-1.02081,0.535583,
-0.971985,0.535583,
-0.927734,0.535583,
-0.891113,0.534058,
-0.857544,0.535583,
-0.828552,0.534058,
-0.805664,0.538635,
-0.782776,0.537109,
-0.769043,0.532532,
-0.758362,0.527954,
-0.753784,0.52948,
-0.752258,0.537109,
-0.753784,0.535583,
-0.761414,0.527954,
-0.776672,0.532532,
-0.787354,0.532532,
-0.804138,0.538635,
-0.822449,0.534058,
-0.839233,0.527954,
-0.862122,0.534058,
-0.883484,0.534058,
-0.901794,0.537109,
-0.926208,0.534058,
-0.950623,0.52948,
-0.979614,0.534058,
-1.01013,0.532532,
-1.03912,0.535583,
-1.07117,0.538635,
-1.09863,0.52948,
-1.13831,0.52948,
-1.1734,0.52948,
-1.21002,0.534058,
-1.24359,0.535583,
-1.28174,0.532532,
-1.31531,0.534058,
-1.34735,0.532532,
-1.37939,0.538635,
-1.40381,0.534058,
-1.4328,0.532532,
-1.45569,0.537109,
-1.46942,0.532532,
-1.49231,0.538635,
-1.50604,0.535583,
-1.51825,0.527954,
-1.52435,0.532532,
-1.53198,0.527954,
-1.53809,0.537109,
-1.54114,0.535583,
-1.53809,0.532532,
-1.53809,0.52948,
-1.53656,0.535583,
-1.53198,0.537109,
-1.53351,0.534058,
-1.52893,0.527954,
-1.5274,0.52948,
-1.51825,0.527954,
-1.5152,0.538635,
-1.51215,0.537109,
-1.51215,0.527954,
-1.51672,0.52948,
-1.5152,0.532532,
-1.51215,0.535583,
-1.5152,0.537109,
-1.5152,0.534058,
-1.51825,0.527954,
-1.51978,0.532532,
-1.52435,0.535583,
-1.53503,0.538635,
-1.53809,0.526428,
-1.54877,0.534058,
-1.55945,0.534058,
-1.57318,0.537109,
-1.57928,0.540161,
-1.59454,0.524902,
-1.61133,0.532532,
-1.62659,0.52948,
-1.64185,0.538635,
-1.66016,0.537109,
-1.68152,0.532532,
-1.70441,0.52948,
-1.72577,0.532532,
-1.74561,0.537109,
-1.77002,0.537109,
-1.79443,0.527954,
-1.81885,0.534058,
-1.84631,0.52948,
-1.87378,0.538635,
-1.90125,0.534058,
-1.92108,0.527954,
-1.94397,0.532532,
-1.97144,0.527954,
-1.99738,0.537109,
-2.02026,0.538635,
-2.0462,0.532532,
-2.07214,0.52948,
-2.10114,0.534058,
-2.12097,0.538635,
-2.14386,0.535583,
-2.17285,0.52948,
-2.19574,0.532532,
-2.22168,0.534058,
-2.24762,0.535583,
-2.27203,0.538635,
-2.28882,0.532532,
-2.31934,0.534058,
-2.33917,0.532532,
-2.36053,0.535583,
-2.3819,0.537109,
-2.40021,0.532532,
-2.41852,0.52948,
-2.44293,0.532532,
-2.46429,0.538635,
-2.4826,0.537109,
-2.50549,0.52948,
-2.5238,0.535583,
-2.54059,0.534058,
-2.56042,0.537109,
-2.58484,0.538635,
-2.60468,0.532532,
-2.62451,0.534058,
-2.64282,0.535583,
-2.66266,0.537109,
-2.68555,0.535583,
-2.70233,0.532532,
-2.71454,0.532532,
-2.73895,0.534058,
-2.75879,0.537109,
-2.77405,0.535583,
-2.79083,0.52948,
-2.80609,0.532532,
-2.8183,0.52948,
-2.82898,0.538635,
-2.83356,0.537109,
-2.82898,0.532532,
-2.81372,0.534058,
-2.79236,0.52948,
-2.76337,0.538635,
-2.72522,0.537109,
-2.67487,0.534058,
-2.61841,0.535583,
-2.56195,0.534058,
-2.49634,0.538635,
-2.41852,0.540161,
-2.3407,0.532532,
-2.26135,0.532532,
-2.17285,0.534058,
-2.08893,0.540161,
-1.9928,0.537109,
-1.90582,0.532532,
-1.82495,0.532532,
-1.73492,0.534058,
-1.64642,0.537109,
-1.56403,0.535583,
-1.47705,0.534058,
-1.40228,0.532532,
-1.32751,0.534058,
-1.25427,0.537109,
-1.18713,0.538635,
-1.1261,0.538635,
-1.07422,0.532532,
-1.02234,0.534058,
-0.976563,0.538635,
-0.935364,0.540161,
-0.900269,0.534058,
-0.866699,0.52948,
-0.840759,0.532532,
-0.820923,0.541687,
-0.805664,0.538635,
-0.796509,0.532532,
-0.788879,0.535583,
-0.788879,0.535583,
-0.788879,0.538635,
-0.799561,0.537109,
-0.808716,0.538635,
-0.820923,0.535583,
-0.839233,0.538635,
-0.85144,0.540161,
-0.872803,0.538635,
-0.897217,0.534058,
-0.920105,0.535583,
-0.944519,0.537109,
-0.970459,0.541687,
-0.993347,0.540161,
-1.02539,0.540161,
-1.05896,0.538635,
-1.08948,0.537109,
-1.12762,0.540161,
-1.16577,0.541687,
-1.20239,0.537109,
-1.23596,0.538635,
-1.28174,0.538635,
-1.31531,0.540161,
-1.34888,0.538635,
-1.38092,0.537109,
-1.41602,0.537109,
-1.44806,0.538635,
-1.4801,0.538635,
-1.50757,0.538635,
-1.53656,0.537109,
-1.56097,0.535583,
-1.58081,0.540161,
-1.60065,0.541687,
-1.61438,0.538635,
-1.62354,0.537109,
-1.63269,0.537109,
-1.63269,0.537109,
-1.63574,0.543213,
-1.63422,0.541687,
-1.63269,0.538635,
-1.62811,0.535583,
-1.62048,0.537109,
-1.61438,0.541687,
-1.60828,0.540161,
-1.6037,0.541687,
-1.59912,0.535583,
-1.59454,0.540161,
-1.59149,0.543213,
-1.58997,0.543213,
-1.57928,0.537109,
-1.57471,0.535583,
-1.5686,0.541687,
-1.57013,0.543213,
-1.57013,0.543213,
-1.57471,0.541687,
-1.58386,0.538635,
-1.58844,0.541687,
-1.5976,0.541687,
-1.6098,0.540161,
-1.62048,0.540161,
-1.62811,0.537109,
-1.64185,0.540161,
-1.66016,0.541687,
-1.67389,0.541687,
-1.69067,0.538635,
-1.70898,0.537109,
-1.72882,0.541687,
-1.74561,0.540161,
-1.76544,0.541687,
-1.78375,0.541687,
-1.80969,0.538635,
-1.82953,0.540161,
-1.84937,0.543213,
-1.87531,0.541687,
-1.89819,0.540161,
-1.92108,0.537109,
-1.94855,0.543213,
-1.97296,0.547791,
-2.00806,0.543213,
-2.03247,0.543213,
-2.05994,0.538635,
-2.09045,0.544739,
-2.11639,0.546265,
-2.14233,0.543213,
-2.1698,0.543213,
-2.19574,0.538635,
-2.22168,0.543213,
-2.24457,0.549316,
-2.27051,0.543213,
-2.29492,0.543213,
-2.32086,0.538635,
-2.3468,0.543213,
-2.36816,0.547791,
-2.39563,0.543213,
-2.41547,0.546265,
-2.43988,0.537109,
-2.46429,0.543213,
-2.48566,0.543213,
-2.50549,0.541687,
-2.52991,0.541687,
-2.54669,0.541687,
-2.56958,0.544739,
-2.58484,0.549316,
-2.6001,0.544739,
-2.61078,0.541687,
-2.62756,0.537109,
-2.64435,0.546265,
-2.66418,0.547791,
-2.68097,0.546265,
-2.69928,0.543213,
-2.71759,0.537109,
-2.7359,0.546265,
-2.74811,0.547791,
-2.76489,0.546265,
-2.78015,0.546265,
-2.79694,0.540161,
-2.80914,0.546265,
-2.8183,0.549316,
-2.83661,0.547791,
-2.85187,0.546265,
-2.87018,0.541687,
-2.88391,0.549316,
-2.90527,0.550842,
-2.91901,0.546265,
-2.92969,0.546265,
-2.93579,0.543213,
-2.93884,0.544739,
-2.93579,0.547791,
-2.92969,0.547791,
-2.91138,0.544739,
-2.88239,0.540161,
-2.84424,0.549316,
-2.79694,0.550842,
-2.74963,0.549316,
-2.6886,0.547791,
-2.62146,0.543213,
-2.54974,0.549316,
-2.47345,0.549316,
-2.39258,0.547791,
-2.31323,0.546265,
-2.23236,0.540161,
-2.14844,0.547791,
-2.05994,0.552368,
-1.97449,0.549316,
-1.88751,0.546265,
-1.80359,0.540161,
-1.72424,0.547791,
-1.6449,0.552368,
-1.57013,0.547791,
-1.50146,0.549316,
-1.43738,0.541687,
-1.37024,0.546265,
-1.31531,0.55542,
-1.25885,0.549316,
-1.21307,0.550842,
-1.17645,0.543213,
-1.13831,0.549316,
-1.10779,0.549316,
-1.08185,0.550842,
-1.06049,0.549316,
-1.04523,0.541687,
-1.03607,0.550842,
-1.02692,0.550842,
-1.02234,0.552368,
-1.02692,0.547791,
-1.0376,0.540161,
-1.04828,0.549316,
-1.06201,0.552368,
-1.08337,0.549316,
-1.10779,0.546265,
-1.12762,0.543213,
-1.15662,0.552368,
-1.18713,0.550842,
-1.21765,0.552368,
-1.24969,0.547791,
-1.28784,0.544739,
-1.32599,0.552368,
-1.36719,0.550842,
-1.41144,0.550842,
-1.45416,0.550842,
-1.49231,0.546265,
-1.53809,0.550842,
-1.58386,0.552368,
-1.62811,0.550842,
-1.66931,0.550842,
-1.71356,0.543213,
-1.75171,0.549316,
-1.78375,0.552368,
-1.82037,0.550842,
-1.85242,0.550842,
-1.88141,0.541687,
-1.9104,0.552368,
-1.93176,0.552368,
-1.95007,0.550842,
-1.96533,0.549316,
-1.98212,0.541687,
-1.98822,0.553894,
-1.99127,0.553894,
-1.99127,0.552368,
-1.99127,0.552368,
-1.98669,0.543213,
-1.97754,0.552368,
-1.97601,0.556946,
-1.97449,0.553894,
-1.96686,0.553894,
-1.9577,0.544739,
-1.95465,0.552368,
-1.94397,0.55542,
-1.93939,0.550842,
-1.92719,0.55542,
-1.92413,0.547791,
-1.91345,0.552368,
-1.90735,0.55542,
-1.90277,0.553894,
-1.90582,0.552368,
-1.9043,0.544739,
-1.89819,0.550842,
-1.89972,0.552368,
-1.90277,0.553894,
-1.9043,0.553894,
-1.90887,0.543213,
-1.9165,0.552368,
-1.92719,0.553894,
-1.93024,0.552368,
-1.93634,0.552368,
-1.95007,0.543213,
-1.95923,0.552368,
-1.97296,0.55542,
-1.98669,0.552368,
-2.00195,0.552368,
-2.01569,0.544739,
-2.03247,0.553894,
-2.05078,0.553894,
-2.07214,0.556946,
-2.09351,0.553894,
-2.11029,0.546265,
-2.13776,0.552368,
-2.15759,0.553894,
-2.18506,0.55542,
-2.21405,0.550842,
-2.23999,0.544739,
-2.26288,0.552368,
-2.29492,0.556946,
-2.32544,0.55542,
-2.35443,0.552368,
-2.38495,0.546265,
-2.41241,0.550842,
-2.43225,0.55542,
-2.45972,0.55542,
-2.48413,0.552368,
-2.50092,0.544739,
-2.52838,0.553894,
-2.55432,0.55542,
-2.57721,0.553894,
-2.60162,0.552368,
-2.62451,0.543213,
-2.64893,0.55542,
-2.67029,0.556946,
-2.69012,0.553894,
-2.70538,0.553894,
-2.72675,0.546265,
-2.74963,0.55542,
-2.76642,0.553894,
-2.79388,0.552368,
-2.81219,0.552368,
-2.83813,0.546265,
-2.85645,0.556946,
-2.87781,0.556946,
-2.89612,0.553894,
-2.91595,0.553894,
-2.93732,0.547791,
-2.9541,0.553894,
-2.97241,0.553894,
-2.98462,0.553894,
-2.99988,0.553894,
-3.01819,0.546265,
-3.0365,0.552368,
-3.05176,0.552368,
-3.06854,0.55542,
-3.08075,0.556946,
-3.09906,0.544739,
-3.11737,0.55542,
-3.13721,0.556946,
-3.15247,0.556946,
-3.16772,0.553894,
-3.18146,0.547791,
-3.19977,0.553894,
-3.21655,0.553894,
-3.22876,0.55542,
-3.24097,0.552368,
-3.25775,0.547791,
-3.26385,0.55542,
-3.26538,0.552368,
-3.25775,0.556946,
-3.24554,0.552368,
-3.22418,0.546265,
-3.19214,0.556946,
-3.14941,0.552368,
-3.10211,0.55542,
-3.04413,0.552368,
-2.97546,0.547791,
-2.9068,0.552368,
-2.83813,0.552368,
-2.76337,0.55542,
-2.68707,0.552368,
-2.60315,0.547791,
-2.52075,0.553894,
-2.43683,0.553894,
-2.35291,0.55542,
-2.27051,0.553894,
-2.18964,0.544739,
-2.11487,0.553894,
-2.03247,0.556946,
-1.95465,0.55542,
-1.88141,0.549316,
-1.8158,0.543213,
-1.74866,0.558472,
-1.68762,0.556946,
-1.62964,0.55542,
-1.57776,0.552368,
-1.53198,0.549316,
-1.49231,0.556946,
-1.45264,0.556946,
-1.42059,0.553894,
-1.39923,0.550842,
-1.38397,0.544739,
-1.37177,0.55542,
-1.36566,0.55542,
-1.36414,0.553894,
-1.37024,0.549316,
-1.37329,0.547791,
-1.3855,0.558472,
-1.40076,0.556946,
-1.42365,0.550842,
-1.44806,0.550842,
-1.474,0.549316,
-1.50452,0.556946,
-1.53809,0.55542,
-1.57471,0.553894,
-1.61285,0.552368,
-1.64795,0.549316,
-1.68762,0.55542,
-1.72577,0.55542,
-1.76697,0.553894,
-1.80359,0.550842,
-1.84631,0.547791,
-1.89056,0.55542,
-1.93634,0.556946,
-1.98059,0.55542,
-2.02179,0.550842,
-2.06909,0.547791,
-2.11487,0.559998,
-2.15607,0.552368,
-2.19269,0.556946,
-2.22931,0.549316,
-2.2644,0.547791,
-2.28882,0.553894,
-2.31628,0.55542,
-2.33917,0.55542,
-2.35748,0.546265,
-2.36816,0.549316,
-2.38037,0.553894,
-2.38647,0.556946,
-2.388,0.552368,
-2.39105,0.546265,
-2.38647,0.549316,
-2.38647,0.55542,
-2.37885,0.552368,
-2.36664,0.553894,
-2.35748,0.544739,
-2.3468,0.549316,
-2.33154,0.556946,
-2.31781,0.55542,
-2.31018,0.552368,
-2.29492,0.550842,
-2.28729,0.550842,
-2.27356,0.553894,
-2.26288,0.553894,
-2.2522,0.552368,
-2.24762,0.546265,
-2.23999,0.550842,
-2.23694,0.553894,
-2.23389,0.55542,
-2.23694,0.552368,
-2.23846,0.549316,
-2.24457,0.549316,
-2.24609,0.552368,
-2.2522,0.553894,
-2.25677,0.549316,
-2.27051,0.547791,
-2.27966,0.547791,
-2.29034,0.552368,
-2.30255,0.55542,
-2.31934,0.552368,
-2.33307,0.546265,
-2.34833,0.549316,
-2.36969,0.550842,
-2.38647,0.552368,
-2.40173,0.550842,
-2.42157,0.546265,
-2.44446,0.550842,
-2.46277,0.553894,
-2.47803,0.552368,
-2.50092,0.552368,
-2.5238,0.546265,
-2.54669,0.547791,
-2.56653,0.552368,
-2.59094,0.556946,
-2.60925,0.552368,
-2.62909,0.544739,
-2.65656,0.550842,
-2.67334,0.55542,
-2.70233,0.55542,
-2.72522,0.553894,
-2.742,0.546265,
-2.76642,0.547791,
-2.79541,0.550842,
-2.8183,0.553894,
-2.84424,0.55542,
-2.86713,0.544739,
-2.89001,0.546265,
-2.90985,0.552368,
-2.93579,0.553894,
-2.96021,0.552368,
-2.97699,0.543213,
-2.99835,0.546265,
-3.01819,0.55542,
-3.03802,0.55542,
-3.05786,0.550842,
-3.07922,0.544739,
-3.10059,0.550842,
-3.11737,0.552368,
-3.14026,0.550842,
-3.15399,0.550842,
-3.17383,0.543213,
-3.19061,0.546265,
-3.20435,0.550842,
-3.22113,0.552368,
-3.23334,0.550842,
-3.24249,0.541687,
-3.25928,0.547791,
-3.26996,0.552368,
-3.28369,0.55542,
-3.29437,0.550842,
-3.30811,0.544739,
-3.31879,0.549316,
-3.33099,0.549316,
-3.34015,0.55542,
-3.35388,0.549316,
-3.36456,0.543213,
-3.3783,0.546265,
-3.38135,0.549316,
-3.3905,0.553894,
-3.39966,0.550842,
-3.41187,0.547791,
-3.42102,0.544739,
-3.41949,0.550842,
-3.42102,0.552368,
-3.41949,0.550842,
-3.40576,0.546265,
-3.3844,0.549316,
-3.35541,0.550842,
-3.32184,0.550842,
-3.27911,0.550842,
-3.22266,0.546265,
-3.1662,0.549316,
-3.09906,0.549316,
-3.02277,0.550842,
-2.94952,0.549316,
-2.87018,0.544739,
-2.78931,0.547791,
-2.70081,0.550842,
-2.61688,0.552368,
-2.53143,0.547791,
-2.44751,0.543213,
-2.36816,0.547791,
-2.28577,0.547791,
-2.20642,0.552368,
-2.13013,0.546265,
-2.05688,0.547791,
-1.98517,0.546265,
-1.91345,0.550842,
-1.84937,0.550842,
-1.79291,0.549316,
-1.7395,0.547791,
-1.68762,0.547791,
-1.64642,0.550842,
-1.60675,0.552368,
-1.57318,0.547791,
-1.54572,0.546265,
-1.52435,0.547791,
-1.50909,0.547791,
-1.49994,0.552368,
-1.49078,0.550842,
-1.48773,0.546265,
-1.48773,0.544739,
-1.49078,0.550842,
-1.50299,0.552368,
-1.52283,0.550842,
-1.54114,0.544739,
-1.56403,0.547791,
-1.59149,0.549316,
-1.61896,0.549316,
-1.64642,0.547791,
-1.67999,0.546265,
-1.71509,0.546265,
-1.74866,0.549316,
-1.78986,0.549316,
-1.83105,0.549316,
-1.87073,0.544739,
-1.91193,0.546265,
-1.95007,0.549316,
-1.99585,0.550842,
-2.04315,0.547791,
-2.09198,0.544739,
-2.13928,0.547791,
-2.18201,0.547791,
-2.22321,0.549316,
-2.26288,0.547791,
-2.30103,0.544739,
-2.33459,0.543213,
-2.36359,0.549316,
-2.38953,0.550842,
-2.41699,0.550842,
-2.43225,0.541687,
-2.44751,0.544739,
-2.45514,0.550842,
-2.46429,0.552368,
-2.46277,0.549316,
-2.46429,0.541687,
-2.46429,0.544739,
-2.45514,0.546265,
-2.44751,0.549316,
-2.43683,0.547791,
-2.42462,0.541687,
-2.40936,0.544739,
-2.39563,0.547791,
-2.38953,0.549316,
-2.37579,0.547791,
-2.36511,0.544739,
-2.35138,0.544739,
-2.33917,0.546265,
-2.32849,0.550842,
-2.32086,0.546265,
-2.31171,0.544739,
-2.30103,0.543213,
-2.29492,0.546265,
-2.2934,0.547791,
-2.2934,0.549316,
-2.2934,0.544739,
-2.28882,0.544739,
-2.28882,0.543213,
-2.29797,0.550842,
-2.2995,0.549316,
-2.30255,0.546265,
-2.31018,0.544739,
-2.31628,0.544739,
-2.32849,0.549316,
-2.34375,0.549316,
-2.35901,0.543213,
-2.37122,0.544739,
-2.38953,0.546265,
-2.40936,0.546265,
-2.42462,0.547791,
-2.44904,0.541687,
-2.47192,0.541687,
-2.49023,0.543213,
-2.5177,0.544739,
-2.53754,0.547791,
-2.56348,0.543213,
-2.59399,0.543213,
-2.61841,0.543213,
-2.64893,0.547791,
-2.67334,0.546265,
-2.69775,0.543213,
-2.72369,0.543213,
-2.75269,0.540161,
-2.7771,0.547791,
-2.80914,0.549316,
-2.83661,0.543213,
-2.8656,0.543213,
-2.89764,0.541687,
-2.92511,0.547791,
-2.95105,0.549316,
-2.97394,0.544739,
-2.99835,0.543213,
-3.02277,0.541687,
-3.04565,0.550842,
-3.06702,0.547791,
-3.09143,0.543213,
-3.11279,0.541687,
-3.13568,0.538635,
-3.15552,0.550842,
-3.17841,0.543213,
-3.19366,0.541687,
-3.2135,0.544739,
-3.23639,0.540161,
-3.25317,0.547791,
-3.26996,0.547791,
-3.28522,0.541687,
-3.30811,0.541687,
-3.32031,0.538635,
-3.3371,0.547791,
-3.35083,0.547791,
-3.36761,0.540161,
-3.3783,0.540161,
-3.39355,0.538635,
-3.41034,0.549316,
-3.42255,0.544739,
-3.43323,0.541687,
-3.45001,0.541687,
-3.46375,0.537109,
-3.479,0.546265,
-3.49579,0.547791,
-3.50494,0.543213,
-3.51868,0.543213,
-3.52936,0.538635,
-3.54309,0.543213,
-3.55377,0.544739,
-3.56598,0.543213,
-3.57208,0.541687,
-3.57971,0.540161,
-3.57971,0.549316,
-3.57819,0.549316,
-3.5675,0.544739,
-3.55377,0.541687,
-3.52478,0.538635,
-3.49121,0.547791,
-3.43933,0.546265,
-3.38287,0.546265,
-3.32184,0.540161,
-3.24707,0.537109,
-3.1723,0.546265,
-3.09601,0.544739,
-3.01208,0.544739,
-2.93274,0.541687,
-2.84729,0.537109,
-2.76489,0.543213,
-2.67944,0.547791,
-2.59705,0.544739,
-2.51617,0.541687,
-2.43378,0.540161,
-2.35596,0.544739,
-2.27814,0.546265,
-2.20642,0.543213,
-2.1347,0.543213,
-2.07062,0.540161,
-2.00958,0.546265,
-1.94855,0.547791,
-1.90125,0.546265,
-1.85089,0.543213,
-1.80664,0.538635,
-1.76697,0.543213,
-1.73035,0.544739,
-1.70288,0.540161,
-1.67542,0.540161,
-1.65863,0.541687,
-1.64642,0.547791,
-1.63727,0.547791,
-1.63422,0.541687,
-1.63727,0.543213,
-1.63879,0.540161,
-1.65405,0.546265,
-1.66321,0.547791,
-1.68762,0.541687,
-1.70441,0.543213,
-1.72424,0.540161,
-1.75171,0.546265,
-1.77765,0.546265,
-1.80359,0.543213,
-1.83563,0.540161,
-1.86615,0.540161,
-1.90125,0.546265,
-1.94244,0.546265,
-1.98212,0.541687,
-2.01874,0.541687,
-2.05994,0.543213,
-2.10419,0.544739,
-2.14996,0.547791,
-2.18964,0.544739,
-2.23389,0.541687,
-2.28424,0.538635,
-2.32239,0.546265,
-2.36511,0.546265,
-2.40479,0.544739,
-2.44446,0.540161,
-2.47803,0.537109,
-2.50244,0.543213,
-2.52838,0.544739,
-2.54822,0.541687,
-2.565,0.543213,
-2.58026,0.537109,
-2.58331,0.541687,
-2.58636,0.544739,
-2.58636,0.541687,
-2.58026,0.541687,
-2.56958,0.540161,
-2.56042,0.541687,
-2.54669,0.546265,
-2.52838,0.541687,
-2.50854,0.540161,
-2.49329,0.538635,
-2.47192,0.540161,
-2.45667,0.544739,
-2.43683,0.541687,
-2.42157,0.541687,
-2.40326,0.538635,
-2.39563,0.540161,
-2.38037,0.544739,
-2.36816,0.544739,
-2.36206,0.541687,
-2.35291,0.538635,
-2.35138,0.538635,
-2.35138,0.544739,
-2.34528,0.544739,
-2.34833,0.541687,
-2.34833,0.537109,
-2.34833,0.543213,
-2.35138,0.544739,
-2.35138,0.541687,
-2.35443,0.546265,
-2.36053,0.538635,
-2.36511,0.540161,
-2.37579,0.543213,
-2.3819,0.538635,
-2.39258,0.543213,
-2.40479,0.538635,
-2.41852,0.540161,
-2.43225,0.543213,
-2.44446,0.543213,
-2.45972,0.541687,
-2.48108,0.540161,
-2.49481,0.541687,
-2.5116,0.543213,
-2.53143,0.540161,
-2.54669,0.546265,
-2.56195,0.540161,
-2.58331,0.544739,
-2.6001,0.541687,
-2.61993,0.543213,
-2.63824,0.541687,
-2.6535,0.538635,
-2.67334,0.543213,
-2.69318,0.544739,
-2.71149,0.543213,
-2.73438,0.540161,
-2.74963,0.540161,
-2.77252,0.544739,
-2.79541,0.543213,
-2.81525,0.544739,
-2.83661,0.540161,
-2.8595,0.535583,
-2.87781,0.544739,
-2.90222,0.544739,
-2.91748,0.543213,
-2.93427,0.541687,
-2.9541,0.537109,
-2.97699,0.546265,
-2.99683,0.541687,
-3.01666,0.540161,
-3.03802,0.541687,
-3.05786,0.535583,
-3.0777,0.543213,
-3.09753,0.543213,
-3.11432,0.541687,
-3.13568,0.541687,
-3.15552,0.538635,
-3.17688,0.541687,
-3.19977,0.540161,
-3.2196,0.541687,
-3.23792,0.541687,
-3.25928,0.538635,
-3.27911,0.544739,
-3.2959,0.540161,
-3.31116,0.543213,
-3.32489,0.543213,
-3.3371,0.538635,
-3.34625,0.543213,
-3.35236,0.541687,
-3.35693,0.541687,
-3.3493,0.540161,
-3.33405,0.537109,
-3.30963,0.544739,
-3.27606,0.540161,
-3.22723,0.541687,
-3.1723,0.540161,
-3.10974,0.535583,
-3.03802,0.543213,
-2.96021,0.541687,
-2.87933,0.540161,
-2.79388,0.540161,
-2.70844,0.537109,
-2.62299,0.544739,
-2.53448,0.541687,
-2.43683,0.544739,
-2.34985,0.540161,
-2.25983,0.537109,
-2.17438,0.541687,
-2.08893,0.543213,
-2.00195,0.540161,
-1.91803,0.538635,
-1.83716,0.538635,
-1.76239,0.546265,
-1.68762,0.540161,
-1.61438,0.540161,
-1.5564,0.541687,
-1.49384,0.537109,
-1.44196,0.543213,
-1.39465,0.541687,
-1.35193,0.540161,
-1.31683,0.538635,
-1.29089,0.534058,
-1.26495,0.541687,
-1.24512,0.540161,
-1.23291,0.543213,
-1.22528,0.540161,
-1.22375,0.537109,
-1.22681,0.543213,
-1.23138,0.541687,
-1.24054,0.538635,
-1.24969,0.538635,
-1.26495,0.537109,
-1.28784,0.537109,
-1.31531,0.543213,
-1.3382,0.540161,
-1.36719,0.543213,
-1.39465,0.535583,
-1.42822,0.546265,
-1.46484,0.541687,
-1.50604,0.541687,
-1.54266,0.538635,
-1.58691,0.532532,
-1.62811,0.540161,
-1.67389,0.538635,
-1.71661,0.538635,
-1.76392,0.540161,
-1.80511,0.535583,
-1.85089,0.540161,
-1.89667,0.541687,
-1.94092,0.543213,
-1.98212,0.537109,
-2.01263,0.535583,
-2.04773,0.541687,
-2.07367,0.538635,
-2.10114,0.538635,
-2.12402,0.538635,
-2.14233,0.535583,
-2.16217,0.538635,
-2.17285,0.540161,
-2.18201,0.541687,
-2.18201,0.538635,
-2.18506,0.537109,
-2.18048,0.541687,
-2.17438,0.541687,
-2.16522,0.538635,
-2.15607,0.535583,
-2.14844,0.535583,
-2.13623,0.540161,
-2.11945,0.538635,
-2.10571,0.541687,
-2.09198,0.535583,
-2.0752,0.535583,
-2.06451,0.541687,
-2.05231,0.541687,
-2.03857,0.543213,
-2.02789,0.537109,
-2.01569,0.535583,
-2.00958,0.541687,
-2.00348,0.540161,
-1.99738,0.541687,
-1.98975,0.535583,
-1.98975,0.534058,
-1.98822,0.541687,
-1.98669,0.541687,
-1.98669,0.540161,
-1.98822,0.535583,
-1.99738,0.537109,
-2.005,0.540161,
-2.01111,0.540161,
-2.02637,0.543213,
-2.0401,0.534058,
-2.04926,0.534058,
-2.06909,0.541687,
-2.08435,0.541687,
-2.10876,0.543213,
-2.13013,0.532532,
-2.15302,0.535583,
-2.17285,0.540161,
-2.19574,0.537109,
-2.22015,0.537109,
-2.23999,0.534058,
-2.2644,0.537109,
-2.28882,0.538635,
-2.31323,0.543213,
-2.33459,0.538635,
-2.35748,0.537109,
-2.3819,0.535583,
-2.40936,0.540161,
-2.43225,0.537109,
-2.45972,0.540161,
-2.48413,0.537109,
-2.50854,0.535583,
-2.53143,0.540161,
-2.5528,0.537109,
-2.57416,0.537109,
-2.59247,0.538635,
-2.61688,0.534058,
-2.63367,0.538635,
-2.64893,0.538635,
-2.67181,0.537109,
-2.6886,0.532532,
-2.70996,0.534058,
-2.72827,0.538635,
-2.74658,0.535583,
-2.76947,0.540161,
-2.7832,0.52948,
-2.80304,0.535583,
-2.82898,0.538635,
-2.84729,0.537109,
-2.87018,0.535583,
-2.89001,0.535583,
-2.91443,0.535583,
-2.93732,0.538635,
-2.95868,0.538635,
-2.97852,0.541687,
-3.00293,0.537109,
-3.01819,0.534058,
-3.0365,0.538635,
-3.05023,0.538635,
-3.06549,0.540161,
-3.07617,0.532532,
-3.08685,0.535583,
-3.0899,0.535583,
-3.08533,0.538635,
-3.06854,0.540161,
-3.03955,0.535583,
-3.0014,0.532532,
-2.94952,0.538635,
-2.88696,0.538635,
-2.82135,0.537109,
-2.7359,0.532532,
-2.6535,0.534058,
-2.56195,0.537109,
-2.46887,0.537109,
-2.37579,0.537109,
-2.27203,0.532532,
-2.17285,0.534058,
-2.06909,0.537109,
-1.96838,0.534058,
-1.8631,0.538635,
-1.76849,0.534058,
-1.67542,0.532532,
-1.57776,0.540161,
-1.48315,0.535583,
-1.39465,0.538635,
-1.31226,0.535583,
-1.22986,0.534058,
-1.14899,0.538635,
-1.0849,0.534058,
-1.01624,0.540161,
-0.9552,0.532532,
-0.904846,0.532532,
-0.854492,0.538635,
-0.816345,0.534058,
-0.776672,0.540161,
-0.749207,0.534058,
-0.726318,0.535583,
-0.712585,0.535583,
-0.701904,0.540161,
-0.695801,0.537109,
-0.694275,0.527954,
-0.697327,0.527954,
-0.706482,0.537109,
-0.717163,0.537109,
-0.732422,0.537109,
-0.747681,0.52948,
-0.773621,0.532532,
-0.799561,0.537109,
-0.827026,0.535583,
-0.85144,0.537109,
-0.88501,0.527954,
-0.920105,0.534058,
-0.953674,0.535583,
-0.98877,0.537109,
-1.02844,0.535583,
-1.06506,0.532532,
-1.10626,0.532532,
-1.13983,0.537109,
-1.17798,0.535583,
-1.21307,0.538635,
-1.25732,0.534058,
-1.29395,0.52948,
-1.32904,0.535583,
-1.36871,0.535583,
-1.40228,0.535583,
-1.4328,0.527954,
-1.46332,0.527954,
-1.49078,0.540161,
-1.51062,0.538635,
-1.53351,0.538635,
-1.55182,0.534058,
-1.56097,0.534058,
-1.57166,0.535583,
-1.57928,0.537109,
-1.58081,0.534058,
-1.58539,0.532532,
-1.58691,0.532532,
-1.58997,0.540161,
-1.58997,0.535583,
-1.58539,0.537109,
-1.57928,0.52948,
-1.57166,0.527954,
-1.56555,0.535583,
-1.5564,0.532532,
-1.55182,0.538635,
-1.53961,0.532532,
-1.53351,0.527954,
-1.5274,0.537109,
-1.51978,0.534058,
-1.51215,0.535583,
-1.50909,0.52948,
-1.50757,0.527954,
-1.50452,0.537109,
-1.50757,0.532532,
-1.51062,0.537109,
-1.51825,0.52948,
-1.5274,0.534058,
-1.53503,0.537109,
-1.54419,0.534058,
-1.55792,0.535583,
-1.57166,0.527954,
-1.58691,0.52948,
-1.5976,0.537109,
-1.6037,0.535583,
-1.62201,0.537109,
-1.63727,0.527954,
-1.64948,0.526428,
-1.66779,0.534058,
-1.68304,0.532532,
-1.70441,0.535583,
-1.72272,0.527954,
-1.74561,0.527954,
-1.76544,0.535583,
-1.78986,0.532532,
-1.80969,0.535583,
-1.83563,0.532532,
-1.85394,0.527954,
-1.88141,0.535583,
-1.90735,0.534058,
-1.93787,0.534058,
-1.9577,0.527954,
-1.98517,0.526428,
-2.01111,0.537109,
-2.04315,0.52948,
-2.07214,0.538635,
-2.09961,0.527954,
-2.12555,0.527954,
-2.15302,0.535583,
-2.18353,0.532532,
-2.20947,0.535583,
-2.23236,0.527954,
-2.2583,0.524902,
-2.28882,0.537109,
-2.31628,0.532532,
-2.34222,0.532532,
-2.36511,0.523376,
-2.39105,0.526428,
-2.41547,0.534058,
-2.4353,0.532532,
-2.45972,0.537109,
-2.48413,0.527954,
-2.50702,0.526428,
-2.52991,0.534058,
-2.5528,0.532532,
-2.57568,0.535583,
-2.59552,0.526428,
-2.61841,0.524902,
-2.64282,0.534058,
-2.66266,0.534058,
-2.68097,0.537109,
-2.70081,0.527954,
-2.72217,0.526428,
-2.73743,0.537109,
-2.75269,0.532532,
-2.76337,0.538635,
-2.77252,0.526428,
-2.77405,0.527954,
-2.77405,0.534058,
-2.76337,0.537109,
-2.74811,0.535583,
-2.71759,0.527954,
-2.67639,0.527954,
-2.62451,0.534058,
-2.56805,0.532532,
-2.50397,0.534058,
-2.4292,0.526428,
-2.34833,0.526428,
-2.26593,0.535583,
-2.18048,0.535583,
-2.09198,0.535583,
-2.00043,0.526428,
-1.90887,0.527954,
-1.8158,0.535583,
-1.71814,0.537109,
-1.62659,0.52948,
-1.53503,0.52948,
-1.44348,0.527954,
-1.35803,0.532532,
-1.27411,0.535583,
-1.19171,0.534058,
-1.11542,0.52948,
-1.0437,0.52948,
-0.979614,0.535583,
-0.91095,0.537109,
-0.854492,0.534058,
-0.804138,0.532532,
-0.753784,0.527954,
-0.717163,0.538635,
-0.679016,0.535583,
-0.650024,0.534058,
-0.627136,0.52948,
-0.6073,0.527954,
-0.601196,0.535583,
-0.602722,0.537109,
-0.601196,0.534058,
-0.6073,0.52948,
-0.614929,0.524902,
-0.631714,0.538635,
-0.642395,0.534058,
-0.665283,0.537109,
-0.686646,0.527954,
-0.712585,0.52948,
-0.737,0.535583,
-0.762939,0.535583,
-0.793457,0.532532,
-0.823975,0.52948,
-0.854492,0.527954,
-0.891113,0.535583,
-0.926208,0.535583,
-0.965881,0.534058,
-1.0025,0.52948,
-1.03912,0.534058,
-1.08032,0.535583,
-1.11694,0.537109,
-1.15662,0.537109,
-1.19629,0.527954,
-1.23444,0.532532,
-1.27411,0.535583,
-1.30463,0.534058,
-1.33362,0.535583,
-1.36414,0.527954,
-1.3916,0.532532,
-1.41602,0.537109,
-1.43738,0.540161,
-1.45416,0.532532,
-1.46637,0.52948,
-1.47705,0.535583,
-1.49689,0.535583,
-1.50299,0.535583,
-1.50909,0.534058,
-1.51672,0.52948,
-1.5213,0.532532,
-1.52283,0.541687,
-1.52283,0.538635,
-1.51825,0.535583,
-1.51825,0.532532,
-1.51062,0.532532,
-1.50757,0.535583,
-1.49841,0.540161,
-1.49078,0.537109,
-1.48315,0.534058,
-1.47552,0.532532,
-1.4679,0.535583,
-1.46179,0.537109,
-1.45721,0.534058,
-1.45111,0.532532,
-1.45264,0.532532,
-1.44806,0.540161,
-1.45111,0.535583,
-1.45264,0.538635,
-1.45416,0.535583,
-1.46027,0.537109,
-1.46484,0.535583,
-1.47247,0.541687,
-1.48468,0.537109,
-1.49231,0.534058,
-1.51215,0.534058,
-1.52283,0.538635,
-1.54114,0.540161,
-1.56097,0.534058,
-1.58691,0.535583,
-1.6037,0.538635,
-1.62659,0.537109,
-1.64795,0.541687,
-1.66779,0.537109,
-1.69067,0.534058,
-1.71509,0.537109,
-1.73798,0.538635,
-1.76239,0.540161,
-1.79291,0.538635,
-1.81732,0.535583,
-1.84631,0.534058,
-1.87683,0.540161,
-1.90582,0.540161,
-1.93634,0.535583,
-1.96533,0.535583,
-1.9928,0.537109,
-2.01721,0.537109,
-2.04468,0.544739,
-2.06604,0.537109,
-2.09351,0.52948,
-2.11792,0.537109,
-2.14233,0.540161,
-2.16522,0.543213,
-2.18658,0.537109,
-2.21405,0.537109,
-2.23236,0.538635,
-2.25372,0.538635,
-2.27509,0.544739,
-2.29645,0.538635,
-2.31934,0.52948,
-2.34222,0.538635,
-2.36206,0.538635,
-2.38647,0.543213,
-2.40936,0.535583,
-2.42615,0.537109,
-2.45209,0.538635,
-2.47192,0.540161,
-2.49634,0.544739,
-2.51312,0.540161,
-2.53296,0.538635,
-2.5528,0.537109,
-2.57416,0.540161,
-2.59552,0.544739,
-2.6123,0.537109,
-2.63214,0.537109,
-2.65045,0.538635,
-2.66876,0.541687,
-2.68707,0.546265,
-2.70081,0.538635,
-2.71454,0.538635,
-2.72675,0.540161,
-2.73438,0.541687,
-2.74048,0.546265,
-2.74353,0.541687,
-2.73743,0.537109,
-2.72827,0.537109,
-2.70996,0.544739,
-2.68097,0.547791,
-2.6413,0.541687,
-2.59552,0.538635,
-2.53601,0.540161,
-2.47345,0.543213,
-2.40479,0.549316,
-2.33154,0.540161,
-2.25372,0.538635,
-2.16827,0.540161,
-2.08282,0.544739,
-2.00043,0.546265,
-1.91193,0.538635,
-1.82037,0.537109,
-1.73645,0.540161,
-1.64948,0.543213,
-1.56403,0.549316,
-1.4801,0.540161,
-1.39618,0.540161,
-1.31683,0.538635,
-1.24817,0.544739,
-1.17188,0.550842,
-1.10931,0.541687,
-1.04828,0.540161,
-0.993347,0.538635,
-0.944519,0.546265,
-0.897217,0.547791,
-0.857544,0.541687,
-0.830078,0.538635,
-0.798035,0.541687,
-0.776672,0.541687,
-0.759888,0.550842,
-0.747681,0.541687,
-0.743103,0.538635,
-0.738525,0.541687,
-0.744629,0.541687,
-0.752258,0.549316,
-0.762939,0.541687,
-0.778198,0.543213,
-0.798035,0.540161,
-0.819397,0.544739,
-0.842285,0.552368,
-0.872803,0.543213,
-0.901794,0.541687,
-0.935364,0.543213,
-0.965881,0.547791,
-1.0025,0.552368,
-1.03607,0.547791,
-1.07269,0.541687,
-1.11084,0.543213,
-1.14899,0.543213,
-1.18713,0.552368,
-1.22528,0.546265,
-1.26343,0.541687,
-1.3031,0.541687,
-1.3382,0.547791,
-1.37482,0.550842,
-1.40839,0.544739,
-1.43585,0.544739,
-1.46637,0.541687,
-1.48926,0.546265,
-1.50604,0.547791,
-1.52588,0.549316,
-1.53046,0.544739,
-1.54114,0.541687,
-1.54419,0.547791,
-1.54877,0.552368,
-1.54266,0.544739,
-1.54266,0.543213,
-1.53656,0.543213,
-1.5274,0.546265,
-1.51825,0.553894,
-1.49994,0.544739,
-1.48468,0.544739,
-1.474,0.544739,
-1.45721,0.549316,
-1.44196,0.553894,
-1.4328,0.544739,
-1.41754,0.544739,
-1.40533,0.544739,
-1.39465,0.546265,
-1.3855,0.553894,
-1.37482,0.546265,
-1.36566,0.544739,
-1.35956,0.543213,
-1.35803,0.549316,
-1.35193,0.550842,
-1.35498,0.543213,
-1.35345,0.546265,
-1.36261,0.543213,
-1.36719,0.549316,
-1.37482,0.556946,
-1.38702,0.546265,
-1.39465,0.546265,
-1.41296,0.543213,
-1.42517,0.549316,
-1.44196,0.55542,
-1.46332,0.547791,
-1.47095,0.549316,
-1.49536,0.544739,
-1.5152,0.549316,
-1.53503,0.558472,
-1.5564,0.547791,
-1.57928,0.547791,
-1.60522,0.544739,
-1.62659,0.550842,
-1.65253,0.556946,
-1.67694,0.547791,
-1.70441,0.546265,
-1.72729,0.543213,
-1.75171,0.552368,
-1.77307,0.556946,
-1.80206,0.549316,
-1.82953,0.549316,
-1.85242,0.547791,
-1.88141,0.552368,
-1.90887,0.556946,
-1.93634,0.547791,
-1.96533,0.549316,
-1.9928,0.544739,
-2.02026,0.553894,
-2.04773,0.552368,
-2.07367,0.550842,
-2.10114,0.543213,
-2.12708,0.546265,
-2.14844,0.550842,
-2.1759,0.553894,
-2.19879,0.550842,
-2.22015,0.547791,
-2.24304,0.547791,
-2.26593,0.550842,
-2.28271,0.552368,
-2.30713,0.550842,
-2.32544,0.547791,
-2.33917,0.546265,
-2.35748,0.553894,
-2.37579,0.55542,
-2.39105,0.550842,
-2.40936,0.552368,
-2.4292,0.546265,
-2.44598,0.552368,
-2.46429,0.556946,
-2.48413,0.552368,
-2.50397,0.549316,
-2.52228,0.549316,
-2.54059,0.552368,
-2.56348,0.553894,
-2.58331,0.549316,
-2.59705,0.550842,
-2.60773,0.547791,
-2.62604,0.552368,
-2.6413,0.556946,
-2.65198,0.549316,
-2.65961,0.55542,
-2.67029,0.549316,
-2.67487,0.55542,
-2.67334,0.559998,
-2.65808,0.547791,
-2.6413,0.547791,
-2.61078,0.550842,
-2.57568,0.556946,
-2.53296,0.558472,
-2.47803,0.552368,
-2.41699,0.553894,
-2.35138,0.546265,
-2.27661,0.55542,
-2.19574,0.556946,
-2.11639,0.549316,
-2.034,0.550842,
-1.94702,0.552368,
-1.86005,0.55542,
-1.77307,0.556946,
-1.68762,0.547791,
-1.5976,0.549316,
-1.51825,0.549316,
-1.43127,0.556946,
-1.34583,0.559998,
-1.27106,0.550842,
-1.19476,0.549316,
-1.12305,0.552368,
-1.05896,0.556946,
-0.994873,0.558472,
-0.93689,0.549316,
-0.886536,0.553894,
-0.837708,0.550842,
-0.798035,0.556946,
-0.758362,0.558472,
-0.730896,0.550842,
-0.708008,0.55542,
-0.689697,0.552368,
-0.67749,0.55542,
-0.668335,0.558472,
-0.669861,0.549316,
-0.674438,0.550842,
-0.686646,0.552368,
-0.70343,0.559998,
-0.720215,0.556946,
-0.738525,0.550842,
-0.761414,0.550842,
-0.788879,0.553894,
-0.817871,0.558472,
-0.848389,0.556946,
-0.881958,0.549316,
-0.915527,0.550842,
-0.952148,0.552368,
-0.994873,0.556946,
-1.04218,0.556946,
-1.08795,0.550842,
-1.13373,0.552368,
-1.18103,0.552368,
-1.22986,0.558472,
-1.27869,0.556946,
-1.32446,0.552368,
-1.36719,0.552368,
-1.41144,0.553894,
-1.45416,0.558472,
-1.49384,0.558472,
-1.53046,0.553894,
-1.56403,0.550842,
-1.58997,0.553894,
-1.61896,0.566101,
-1.63574,0.556946,
-1.64948,0.55542,
-1.66473,0.552368,
-1.67084,0.550842,
-1.68304,0.558472,
-1.6922,0.558472,
-1.69373,0.552368,
-1.69373,0.552368,
-1.69067,0.553894,
-1.68152,0.561523,
-1.67389,0.558472,
-1.66626,0.55542,
-1.64948,0.552368,
-1.63574,0.552368,
-1.62354,0.558472,
-1.61133,0.556946,
-1.60217,0.552368,
-1.59607,0.55542,
-1.58386,0.553894,
-1.57623,0.566101,
-1.56555,0.556946,
-1.56708,0.553894,
-1.5625,0.556946,
-1.56097,0.556946,
-1.55945,0.566101,
-1.5625,0.556946,
-1.56097,0.55542,
-1.57013,0.553894,
-1.57318,0.553894,
-1.58386,0.559998,
-1.59454,0.558472,
-1.6098,0.553894,
-1.62201,0.553894,
-1.63879,0.556946,
-1.65253,0.561523,
-1.67084,0.558472,
-1.68915,0.552368,
-1.70746,0.55542,
-1.72729,0.553894,
-1.75018,0.563049,
-1.77155,0.556946,
-1.79749,0.552368,
-1.81885,0.553894,
-1.84326,0.553894,
-1.87073,0.561523,
-1.89514,0.553894,
-1.9165,0.553894,
-1.93787,0.552368,
-1.96533,0.547791,
-1.98669,0.561523,
-2.01569,0.558472,
-2.03857,0.552368,
-2.06604,0.552368,
-2.09045,0.552368,
-2.11487,0.566101,
-2.13928,0.559998,
-2.1698,0.552368,
-2.19269,0.552368,
-2.2171,0.556946,
-2.23999,0.561523,
-2.26746,0.558472,
-2.2934,0.55542,
-2.31476,0.549316,
-2.34528,0.552368,
-2.36816,0.559998,
-2.388,0.559998,
-2.41547,0.553894,
-2.43225,0.550842,
-2.45361,0.552368,
-2.47498,0.567627,
-2.49329,0.558472,
-2.51617,0.553894,
-2.53143,0.552368,
-2.55127,0.556946,
-2.57111,0.561523,
-2.59552,0.556946,
-2.6123,0.553894,
-2.62756,0.553894,
-2.64435,0.553894,
-2.66418,0.563049,
-2.67792,0.556946,
-2.69928,0.550842,
-2.71149,0.552368,
-2.72675,0.556946,
-2.74353,0.559998,
-2.76337,0.559998,
-2.77557,0.553894,
-2.78778,0.55542,
-2.80304,0.55542,
-2.81372,0.559998,
-2.82898,0.559998,
-2.83661,0.552368,
-2.84576,0.553894,
-2.84882,0.55542,
-2.84882,0.561523,
-2.83813,0.556946,
-2.82135,0.55542,
-2.79388,0.553894,
-2.75726,0.55542,
-2.70844,0.558472,
-2.65503,0.558472,
-2.59094,0.556946,
-2.5238,0.558472,
-2.45056,0.556946,
-2.36816,0.558472,
-2.28882,0.556946,
-2.20642,0.556946,
-2.1225,0.55542,
-2.03552,0.553894,
-1.9516,0.558472,
-1.86462,0.558472,
-1.77917,0.556946,
-1.69067,0.55542,
-1.60675,0.553894,
-1.5274,0.563049,
-1.45264,0.559998,
-1.38397,0.553894,
-1.31836,0.553894,
-1.2558,0.552368,
-1.20239,0.559998,
-1.14899,0.561523,
-1.10474,0.553894,
-1.06506,0.553894,
-1.02844,0.552368,
-1.00098,0.559998,
-0.976563,0.558472,
-0.956726,0.55542,
-0.947571,0.552368,
-0.938416,0.550842,
-0.942993,0.561523,
-0.947571,0.558472,
-0.956726,0.553894,
-0.970459,0.550842,
-0.98877,0.552368,
-1.00861,0.559998,
-1.0376,0.556946,
-1.06506,0.55542,
-1.09406,0.553894,
-1.12762,0.553894,
-1.15967,0.559998,
-1.19629,0.558472,
-1.23291,0.553894,
-1.27411,0.552368,
-1.31531,0.550842,
-1.35803,0.558472,
-1.39923,0.559998,
-1.44806,0.550842,
-1.49384,0.550842,
-1.53961,0.550842,
-1.59149,0.556946,
-1.63574,0.556946,
-1.67847,0.552368,
-1.71661,0.553894,
-1.76086,0.553894,
-1.79749,0.558472,
-1.83563,0.556946,
-1.86768,0.553894,
-1.89667,0.550842,
-1.91803,0.550842,
-1.93939,0.556946,
-1.95923,0.556946,
-1.97296,0.552368,
-1.98517,0.552368,
-1.9928,0.550842,
-1.99738,0.558472,
-1.9989,0.556946,
-1.99127,0.556946,
-1.98669,0.553894,
-1.97906,0.553894,
-1.96991,0.556946,
-1.9577,0.558472,
-1.94702,0.558472,
-1.93329,0.552368,
-1.92413,0.552368,
-1.91345,0.556946,
-1.89972,0.55542,
-1.89362,0.553894,
-1.88446,0.552368,
-1.87683,0.550842,
-1.86615,0.556946,
-1.86005,0.558472,
-1.85394,0.55542,
-1.84937,0.550842,
-1.85547,0.550842,
-1.85242,0.558472,
-1.86005,0.559998,
-1.86157,0.55542,
-1.86615,0.552368,
-1.87683,0.550842,
-1.88751,0.55542,
-1.89056,0.558472,
-1.90582,0.552368,
-1.91956,0.552368,
-1.93481,0.549316,
-1.95007,0.556946,
-1.97296,0.553894,
-1.9928,0.553894,
-2.01263,0.550842,
-2.03552,0.550842,
-2.05383,0.553894,
-2.07214,0.556946,
-2.09198,0.552368,
-2.11792,0.553894,
-2.14233,0.552368,
-2.16827,0.55542,
-2.19116,0.553894,
-2.21863,0.553894,
-2.24915,0.552368,
-2.27661,0.550842,
-2.3056,0.556946,
-2.33002,0.552368,
-2.35901,0.55542,
-2.3819,0.550842,
-2.40936,0.549316,
-2.43835,0.553894,
-2.46582,0.553894,
-2.49634,0.553894,
-2.52686,0.550842,
-2.55432,0.550842,
-2.57568,0.55542,
-2.60315,0.556946,
-2.63214,0.55542,
-2.65656,0.550842,
-2.68402,0.550842,
-2.70844,0.558472,
-2.73438,0.556946,
-2.75574,0.553894,
-2.7771,0.549316,
-2.80304,0.547791,
-2.82288,0.55542,
-2.84424,0.556946,
-2.86865,0.556946,
-2.88544,0.549316,
-2.90527,0.549316,
-2.92664,0.553894,
-2.94189,0.55542,
-2.95868,0.556946,
-2.97394,0.549316,
-2.98767,0.550842,
-3.00751,0.558472,
-3.02277,0.55542,
-3.0426,0.552368,
-3.05328,0.547791,
-3.07465,0.549316,
-3.09143,0.553894,
-3.10669,0.556946,
-3.12347,0.556946,
-3.13568,0.552368,
-3.14941,0.547791,
-3.16467,0.550842,
-3.17535,0.552368,
-3.18146,0.559998,
-3.18604,0.547791,
-3.18909,0.546265,
-3.18146,0.55542,
-3.17383,0.553894,
-3.15704,0.55542,
-3.12805,0.547791,
-3.0899,0.549316,
-3.04413,0.553894,
-2.98309,0.553894,
-2.92053,0.553894,
-2.85187,0.550842,
-2.78015,0.547791,
-2.69928,0.552368,
-2.61841,0.550842,
-2.53906,0.55542,
-2.44751,0.550842,
-2.35901,0.549316,
-2.27051,0.550842,
-2.18353,0.550842,
-2.09503,0.552368,
-2.01111,0.552368,
-1.92719,0.546265,
-1.84326,0.549316,
-1.76544,0.553894,
-1.69067,0.553894,
-1.62506,0.546265,
-1.56097,0.549316,
-1.49841,0.549316,
-1.44196,0.553894,
-1.39313,0.553894,
-1.34888,0.550842,
-1.3092,0.547791,
-1.26801,0.549316,
-1.23596,0.552368,
-1.21613,0.552368,
-1.19629,0.552368,
-1.18408,0.547791,
-1.17798,0.552368,
-1.1673,0.552368,
-1.1734,0.553894,
-1.1795,0.547791,
-1.19171,0.543213,
-1.21002,0.550842,
-1.22833,0.549316,
-1.2558,0.550842,
-1.28021,0.550842,
-1.3092,0.544739,
-1.34277,0.549316,
-1.37482,0.550842,
-1.41602,0.552368,
-1.45874,0.547791,
-1.50146,0.546265,
-1.54266,0.552368,
-1.59149,0.550842,
-1.63574,0.55542,
-1.68304,0.549316,
-1.72882,0.546265,
-1.77612,0.550842,
-1.81885,0.549316,
-1.86768,0.552368,
-1.91193,0.549316,
-1.95313,0.546265,
-1.98975,0.550842,
-2.02637,0.549316,
-2.05841,0.550842,
-2.09198,0.544739,
-2.11639,0.546265,
-2.14233,0.550842,
-2.1637,0.550842,
-2.17743,0.552368,
-2.18811,0.546265,
-2.19421,0.546265,
-2.19574,0.546265,
-2.19116,0.550842,
-2.18811,0.550842,
-2.18353,0.546265,
-2.17743,0.544739,
-2.16217,0.549316,
-2.15454,0.550842,
-2.13928,0.552368,
-2.12555,0.547791,
-2.11029,0.544739,
-2.09503,0.549316,
-2.08282,0.550842,
-2.07367,0.552368,
-2.06451,0.550842,
-2.05383,0.540161,
-2.04468,0.549316,
-2.03705,0.549316,
-2.03094,0.549316,
-2.02789,0.549316,
-2.02637,0.543213,
-2.02789,0.549316,
-2.02789,0.549316,
-2.03705,0.550842,
-2.04315,0.552368,
-2.05536,0.540161,
-2.06604,0.547791,
-2.0752,0.550842,
-2.08588,0.549316,
-2.10114,0.552368,
-2.11487,0.543213,
-2.1347,0.549316,
-2.14539,0.549316,
-2.1637,0.550842,
-2.18201,0.547791,
-2.19727,0.544739,
-2.21863,0.546265,
-2.23999,0.546265,
-2.26135,0.550842,
-2.28424,0.549316,
-2.30865,0.544739,
-2.33612,0.546265,
-2.35901,0.546265,
-2.38647,0.549316,
-2.41241,0.550842,
-2.4353,0.543213,
-2.45819,0.546265,
-2.4826,0.549316,
-2.50244,0.550842,
-2.5238,0.546265,
-2.54974,0.546265,
-2.56958,0.546265,
-2.59247,0.544739,
-2.6123,0.550842,
-2.63367,0.544739,
-2.65198,0.543213,
-2.67029,0.546265,
-2.68402,0.546265,
-2.69928,0.549316,
-2.71301,0.546265,
-2.73132,0.543213,
-2.74353,0.546265,
-2.76031,0.546265,
-2.77557,0.546265,
-2.78931,0.547791,
-2.79541,0.543213,
-2.80457,0.546265,
-2.81372,0.546265,
-2.8244,0.549316,
-2.83051,0.544739,
-2.83813,0.544739,
-2.84271,0.547791,
-2.85645,0.546265,
-2.86102,0.547791,
-2.86865,0.546265,
-2.87933,0.544739,
-2.88239,0.547791,
-2.89307,0.543213,
-2.89917,0.549316,
-2.9068,0.543213,
-2.91748,0.541687,
-2.92664,0.546265,
-2.93274,0.546265,
-2.94037,0.547791,
-2.94495,0.541687,
-2.94647,0.541687,
-2.94952,0.544739,
-2.95258,0.543213,
-2.9541,0.546265,
-2.95258,0.544739,
-2.94495,0.543213,
-2.93274,0.544739,
-2.9129,0.544739,
-2.88239,0.549316,
-2.84424,0.544739,
-2.80151,0.541687,
-2.75421,0.546265,
-2.6947,0.544739,
-2.62909,0.547791,
-2.56042,0.544739,
-2.48718,0.538635,
-2.41089,0.543213,
-2.33307,0.546265,
-2.24762,0.547791,
-2.16522,0.540161,
-2.08435,0.540161,
-1.9989,0.543213,
-1.91345,0.546265,
-1.83258,0.544739,
-1.75934,0.540161,
-1.67847,0.541687,
-1.59912,0.544739,
-1.52435,0.543213,
-1.45264,0.549316,
-1.3916,0.540161,
-1.32751,0.541687,
-1.26953,0.547791,
-1.22375,0.543213,
-1.1795,0.546265,
-1.14441,0.543213,
-1.11237,0.541687,
-1.08795,0.543213,
-1.06354,0.544739,
-1.0498,0.546265,
-1.03912,0.541687,
-1.03607,0.540161,
-1.02997,0.543213,
-1.0376,0.541687,
-1.0437,0.549316,
-1.05591,0.540161,
-1.06964,0.541687,
-1.08337,0.541687,
-1.10474,0.543213,
-1.12762,0.546265,
-1.15509,0.543213,
-1.18408,0.540161,
-1.2146,0.543213,
-1.24817,0.541687,
-1.28326,0.544739,
-1.31989,0.543213,
-1.35956,0.543213,
-1.40533,0.543213,
-1.45111,0.543213,
-1.49536,0.544739,
-1.54114,0.543213,
-1.58997,0.541687,
-1.62964,0.543213,
-1.67694,0.540161,
-1.72272,0.546265,
-1.76239,0.541687,
-1.80511,0.538635,
-1.84479,0.541687,
-1.88141,0.546265,
-1.91193,0.546265,
-1.94244,0.541687,
-1.96533,0.540161,
-1.98822,0.540161,
-2.00806,0.544739,
-2.01569,0.546265,
-2.02179,0.541687,
-2.03247,0.538635,
-2.02637,0.540161,
-2.034,0.543213,
-2.02789,0.544739,
-2.02026,0.541687,
-2.01874,0.541687,
-2.01111,0.538635,
-2.00348,0.538635,
-1.99585,0.544739,
-1.98669,0.540161,
-1.97906,0.538635,
-1.97144,0.540161,
-1.96381,0.541687,
-1.95465,0.544739,
-1.95313,0.538635,
-1.94855,0.540161,
-1.94702,0.537109,
-1.94397,0.541687,
-1.93939,0.546265,
-1.93634,0.537109,
-1.93481,0.543213,
-1.93481,0.540161,
-1.93939,0.541687,
-1.9455,0.544739,
-1.9516,0.540161,
-1.9577,0.540161,
-1.96838,0.541687,
-1.97906,0.544739,
-1.99127,0.544739,
-2.00806,0.538635,
-2.02484,0.540161,
-2.0401,0.543213,
-2.06604,0.538635,
-2.0813,0.543213,
-2.10419,0.540161,
-2.12555,0.540161,
-2.15149,0.538635,
-2.1759,0.543213,
-2.19727,0.544739,
-2.21863,0.540161,
-2.24304,0.540161,
-2.27203,0.540161,
-2.2934,0.543213,
-2.32086,0.546265,
-2.34985,0.540161,
-2.38037,0.540161,
-2.40631,0.538635,
-2.43378,0.543213,
-2.45667,0.544739,
-2.48108,0.541687,
-2.50397,0.537109,
-2.52838,0.540161,
-2.55585,0.543213,
-2.58179,0.544739,
-2.60773,0.540161,
-2.63367,0.540161,
-2.66266,0.541687,
-2.68707,0.543213,
-2.71301,0.543213,
-2.73895,0.538635,
-2.76642,0.538635,
-2.79388,0.540161,
-2.81525,0.541687,
-2.83813,0.540161,
-2.8595,0.540161,
-2.88239,0.537109,
-2.90375,0.537109,
-2.92053,0.544739,
-2.94189,0.543213,
-2.96326,0.537109,
-2.98615,0.537109,
-3.00903,0.537109,
-3.0304,0.541687,
-3.05481,0.543213,
-3.07312,0.535583,
-3.09143,0.538635,
-3.11127,0.537109,
-3.1311,0.541687,
-3.14941,0.544739,
-3.16162,0.540161,
-3.18146,0.538635,
-3.18909,0.538635,
-3.20435,0.543213,
-3.2135,0.543213,
-3.22723,0.538635,
-3.24249,0.538635,
-3.2486,0.537109,
-3.25165,0.541687,
-3.24554,0.541687,
-3.23486,0.537109,
-3.2196,0.538635,
-3.19214,0.538635,
-3.15399,0.543213,
-3.10974,0.540161,
-3.05023,0.538635,
-2.98615,0.535583,
-2.9129,0.538635,
-2.83813,0.543213,
-2.76031,0.538635,
-2.67487,0.538635,
-2.58942,0.535583,
-2.50092,0.540161,
-2.41394,0.543213,
-2.32391,0.543213,
-2.23846,0.535583,
-2.14996,0.540161,
-2.06757,0.540161,
-1.98669,0.544739,
-1.90735,0.540161,
-1.83716,0.538635,
-1.76544,0.535583,
-1.6983,0.540161,
-1.63879,0.538635,
-1.58386,0.541687,
-1.53503,0.535583,
-1.49231,0.538635,
-1.45569,0.537109,
-1.41754,0.543213,
-1.38855,0.541687,
-1.36414,0.537109,
-1.34888,0.535583,
-1.33362,0.537109,
-1.32599,0.541687,
-1.31989,0.543213,
-1.32141,0.535583,
-1.32599,0.534058,
-1.33057,0.540161,
-1.34277,0.538635,
-1.35956,0.540161,
-1.37482,0.537109,
-1.39771,0.538635,
-1.41907,0.541687,
-1.44958,0.541687,
-1.47705,0.541687,
-1.50909,0.537109,
-1.54114,0.537109,
-1.57928,0.538635,
-1.61896,0.540161,
-1.66016,0.541687,
-1.70593,0.538635,
-1.75171,0.537109,
-1.79901,0.537109,
-1.84326,0.541687,
-1.88751,0.543213,
-1.93024,0.537109,
-1.97296,0.537109,
-2.01416,0.537109,
-2.05536,0.541687,
-2.09198,0.540161,
-2.12708,0.538635,
-2.15607,0.540161,
-2.18048,0.538635,
-2.20947,0.540161,
-2.22778,0.541687,
-2.24304,0.540161,
-2.2522,0.538635,
-2.26288,0.537109,
-2.26288,0.538635,
-2.2583,0.538635,
-2.25372,0.534058,
-2.23999,0.535583,
-2.22473,0.537109,
-2.20947,0.540161,
-2.19116,0.543213,
-2.17438,0.535583,
-2.16217,0.538635,
-2.14233,0.535583,
-2.12402,0.541687,
-2.11029,0.543213,
-2.09656,0.534058,
-2.0813,0.535583,
-2.06909,0.534058,
-2.05841,0.540161,
-2.04773,0.538635,
-2.04163,0.535583,
-2.03552,0.535583,
-2.03705,0.535583,
-2.034,0.538635,
-2.02789,0.537109,
-2.02179,0.534058,
-2.02789,0.535583,
-2.02484,0.537109,
-2.02789,0.537109,
-2.03094,0.541687,
-2.0401,0.535583,
-2.0462,0.537109,
-2.0462,0.537109,
-2.05536,0.541687,
-2.06757,0.538635,
-2.0813,0.532532,
-2.09503,0.537109,
-2.11182,0.535583,
-2.12555,0.538635,
-2.14386,0.540161,
-2.15759,0.534058,
-2.1759,0.537109,
-2.19269,0.534058,
-2.21558,0.540161,
-2.23694,0.537109,
-2.25525,0.534058,
-2.27661,0.537109,
-2.29797,0.532532,
-2.31781,0.540161,
-2.34375,0.535583,
-2.36359,0.52948,
-2.388,0.538635,
-2.41547,0.537109,
-2.4353,0.540161,
-2.45972,0.540161,
-2.48108,0.532532,
-2.49939,0.534058,
-2.51923,0.534058,
-2.54211,0.538635,
-2.56042,0.537109,
-2.58179,0.52948,
-2.60468,0.537109,
-2.62909,0.534058,
-2.64587,0.538635,
-2.66418,0.535583,
-2.68555,0.52948,
-2.70538,0.534058,
-2.72217,0.535583,
-2.73895,0.538635,
-2.75726,0.538635,
-2.77557,0.535583,
-2.79083,0.537109,
-2.80914,0.535583,
-2.83051,0.541687,
-2.84424,0.540161,
-2.86407,0.534058,
-2.88086,0.537109,
-2.89764,0.534058,
-2.9129,0.540161,
-2.92969,0.538635,
-2.94342,0.532532,
-2.95868,0.535583,
-2.97394,0.532532,
-2.98157,0.537109,
-2.9953,0.540161,
-3.00293,0.532532,
-3.01208,0.535583,
-3.01514,0.535583,
-3.01056,0.541687,
-3.00293,0.540161,
-2.98462,0.532532,
-2.96021,0.535583,
-2.91901,0.535583,
-2.87628,0.543213,
-2.81525,0.538635,
-2.75726,0.535583,
-2.6886,0.535583,
-2.60925,0.535583,
-2.53906,0.540161,
-2.45972,0.537109,
-2.37885,0.534058,
-2.29645,0.537109,
-2.21558,0.535583,
-2.13318,0.540161,
-2.05078,0.540161,
-1.97144,0.532532,
-1.89514,0.535583,
-1.8158,0.534058,
-1.74408,0.540161,
-1.67389,0.537109,
-1.60828,0.52948,
-1.54266,0.537109,
-1.48621,0.532532,
-1.4267,0.537109,
-1.37939,0.540161,
-1.33209,0.527954,
-1.30157,0.534058,
-1.26648,0.535583,
-1.24054,0.538635,
-1.21918,0.537109,
-1.20239,0.52948,
-1.19019,0.535583,
-1.18408,0.532532,
-1.18408,0.540161,
-1.18103,0.541687,
-1.18408,0.532532,
-1.19171,0.535583,
-1.2085,0.534058,
-1.2207,0.538635,
-1.24054,0.538635,
-1.25732,0.532532,
-1.28174,0.534058,
-1.31073,0.532532,
-1.33667,0.537109,
-1.36719,0.538635,
-1.40228,0.534058,
-1.43738,0.532532,
-1.4801,0.537109,
-1.51825,0.537109,
-1.5564,0.538635,
-1.59912,0.535583,
-1.63727,0.532532,
-1.68152,0.535583,
-1.72424,0.540161,
-1.76544,0.540161,
-1.81122,0.52948,
-1.85547,0.535583,
-1.90125,0.532532,
-1.94092,0.538635,
-1.97601,0.535583,
-2.00348,0.52948,
-2.02789,0.534058,
-2.05078,0.535583,
-2.06909,0.538635,
-2.07977,0.540161,
-2.0874,0.534058,
-2.09351,0.532532,
-2.09045,0.537109,
-2.09503,0.540161,
-2.08435,0.540161,
-2.07672,0.534058,
-2.05841,0.532532,
-2.04468,0.535583,
-2.02789,0.540161,
-2.01263,0.535583,
-1.99585,0.532532,
-1.98059,0.534058,
-1.96991,0.534058,
-1.95465,0.538635,
-1.94244,0.537109,
-1.93329,0.527954,
-1.92413,0.532532,
-1.91956,0.52948,
-1.9043,0.538635,
-1.89514,0.537109,
-1.88751,0.537109,
-1.88446,0.532532,
-1.87988,0.532532,
-1.87683,0.540161,
-1.87683,0.537109,
-1.87836,0.535583,
-1.88293,0.532532,
-1.88293,0.532532,
-1.88904,0.540161,
-1.90125,0.540161,
-1.90887,0.532532,
-1.92108,0.534058,
-1.93024,0.52948,
-1.94092,0.540161,
-1.95313,0.537109,
-1.97296,0.534058,
-1.98822,0.534058,
-2.00195,0.532532,
-2.01569,0.537109,
-2.03552,0.537109,
-2.05841,0.535583,
-2.07977,0.532532,
-2.09656,0.537109,
-2.11945,0.537109,
-2.13928,0.537109,
-2.16064,0.532532,
-2.18506,0.534058,
-2.20337,0.534058,
-2.22473,0.538635,
-2.24915,0.535583,
-2.2644,0.535583,
-2.28577,0.534058,
-2.31476,0.532532,
-2.33917,0.540161,
-2.36359,0.535583,
-2.38342,0.532532,
-2.40936,0.535583,
-2.42767,0.532532,
-2.44904,0.535583,
-2.4704,0.537109,
-2.49176,0.534058,
-2.50854,0.532532,
-2.52686,0.537109,
-2.54974,0.541687,
-2.57111,0.537109,
-2.58789,0.532532,
-2.6123,0.535583,
-2.62756,0.534058,
-2.64893,0.538635,
-2.66724,0.532532,
-2.6886,0.534058,
-2.70691,0.534058,
-2.72522,0.535583,
-2.74353,0.540161,
-2.76184,0.534058,
-2.77405,0.534058,
-2.79541,0.52948,
-2.80457,0.535583,
-2.82288,0.543213,
-2.83661,0.535583,
-2.84882,0.535583,
-2.85645,0.532532,
-2.8717,0.535583,
-2.8717,0.538635,
-2.87018,0.535583,
-2.85187,0.532532,
-2.82898,0.534058,
-2.79541,0.538635,
-2.74658,0.537109,
-2.6947,0.535583,
-2.62909,0.532532,
-2.55432,0.532532,
-2.47345,0.532532,
-2.39258,0.535583,
-2.30255,0.537109,
-2.21405,0.52948,
-2.12555,0.527954,
-2.034,0.534058,
-1.94397,0.535583,
-1.84937,0.534058,
-1.76086,0.534058,
-1.66931,0.52948,
-1.58691,0.537109,
-1.49841,0.537109,
-1.41602,0.535583,
-1.3443,0.535583,
-1.27411,0.527954,
-1.20239,0.534058,
-1.13678,0.534058,
-1.08032,0.535583,
-1.02692,0.535583,
-0.98114,0.526428,
-0.938416,0.534058,
-0.898743,0.537109,
-0.869751,0.534058,
-0.843811,0.532532,
-0.816345,0.534058,
-0.801086,0.537109,
-0.788879,0.541687,
-0.78125,0.534058,
-0.778198,0.52948,
-0.779724,0.52948,
-0.785828,0.537109,
-0.788879,0.538635,
-0.802612,0.537109,
-0.820923,0.534058,
-0.840759,0.526428,
-0.85907,0.537109,
-0.883484,0.538635,
-0.906372,0.534058,
-0.93689,0.532532,
-0.959778,0.532532,
-0.990295,0.535583,
-1.02386,0.538635,
-1.05743,0.535583,
-1.09406,0.535583,
-1.12457,0.526428,
-1.16577,0.534058,
-1.19629,0.540161,
-1.23749,0.534058,
-1.27563,0.532532,
-1.3092,0.527954,
-1.3443,0.537109,
-1.38092,0.538635,
-1.40839,0.534058,
-1.43738,0.534058,
-1.46484,0.527954,
-1.48315,0.537109,
-1.50604,0.540161,
-1.52435,0.532532,
-1.53961,0.532532,
-1.55792,0.527954,
-1.56708,0.535583,
-1.57471,0.540161,
-1.57776,0.534058,
-1.57318,0.537109,
-1.57166,0.526428,
-1.56403,0.534058,
-1.55487,0.540161,
-1.54572,0.535583,
-1.53351,0.535583,
-1.52283,0.526428,
-1.51215,0.535583,
-1.49384,0.540161,
-1.48315,0.537109,
-1.4679,0.52948,
-1.45874,0.527954,
-1.44653,0.535583,
-1.43127,0.538635,
-1.42212,0.534058,
-1.41754,0.535583,
-1.40839,0.527954,
-1.40381,0.538635,
-1.40076,0.537109,
-1.39771,0.532532,
-1.39771,0.532532,
-1.39923,0.526428,
-1.40076,0.535583,
-1.40839,0.538635,
-1.41449,0.538635,
-1.42365,0.537109,
-1.42975,0.527954,
-1.44196,0.538635,
-1.45569,0.535583,
-1.4679,0.540161,
-1.48163,0.534058,
-1.49384,0.527954,
-1.50909,0.535583,
-1.5274,0.538635,
-1.54419,0.540161,
-1.56097,0.534058,
-1.58081,0.52948,
-1.60217,0.535583,
-1.62811,0.538635,
-1.64642,0.535583,
-1.66779,0.532532,
-1.69067,0.527954,
-1.71356,0.535583,
-1.73798,0.537109,
-1.76086,0.535583,
-1.78528,0.532532,
-1.80969,0.527954,
-1.83563,0.532532,
-1.86157,0.538635,
-1.88293,0.532532,
-1.90582,0.535583,
-1.93329,0.526428,
-1.95618,0.537109,
-1.98212,0.535583,
-2.005,0.537109,
-2.02789,0.534058,
-2.05078,0.523376,
-2.07214,0.534058,
-2.09198,0.538635,
-2.11334,0.534058,
-2.13013,0.535583,
-2.15302,0.526428,
-2.17285,0.535583,
-2.18506,0.537109,
-2.20337,0.534058,
-2.22015,0.534058,
-2.23846,0.526428,
-2.25525,0.534058,
-2.27661,0.534058,
-2.29492,0.534058,
-2.31628,0.537109,
-2.33307,0.526428,
-2.34985,0.537109,
-2.36511,0.535583,
-2.3819,0.535583,
-2.39716,0.535583,
-2.41241,0.526428,
-2.42615,0.534058,
-2.43683,0.537109,
-2.45056,0.535583,
-2.45514,0.538635,
-2.46429,0.523376,
-2.46277,0.532532,
-2.45514,0.538635,
-2.43225,0.537109,
-2.40631,0.52948,
-2.37427,0.521851,
-2.32391,0.534058,
-2.27051,0.535583,
-2.20947,0.537109,
-2.13928,0.52948,
-2.06451,0.523376,
-1.98364,0.535583,
-1.90125,0.534058,
-1.81427,0.535583,
-1.72272,0.535583,
-1.63116,0.524902,
-1.54114,0.534058,
-1.45721,0.535583,
-1.36566,0.538635,
-1.28174,0.534058,
-1.19781,0.524902,
-1.11847,0.538635,
-1.04218,0.534058,
-0.967407,0.537109,
-0.901794,0.535583,
-0.831604,0.524902,
-0.773621,0.537109,
-0.714111,0.535583,
-0.665283,0.535583,
-0.622559,0.534058,
-0.579834,0.526428,
-0.546265,0.537109,
-0.518799,0.535583,
-0.489807,0.535583,
-0.469971,0.534058,
-0.460815,0.526428,
-0.454712,0.534058,
-0.457764,0.537109,
-0.460815,0.534058,
-0.463867,0.535583,
-0.480652,0.521851,
-0.494385,0.537109,
-0.511169,0.535583,
-0.532532,0.535583,
-0.549316,0.532532,
-0.572205,0.523376,
-0.59967,0.534058,
-0.62561,0.535583,
-0.653076,0.535583,
-0.68512,0.534058,
-0.721741,0.524902,
-0.759888,0.532532,
-0.793457,0.538635,
-0.823975,0.535583,
-0.862122,0.535583,
-0.897217,0.521851,
-0.941467,0.534058,
-0.975037,0.535583,
-1.01166,0.52948,
-1.04675,0.532532,
-1.07269,0.521851,
-1.10321,0.537109,
-1.1322,0.535583,
-1.15814,0.532532,
-1.17493,0.534058,
-1.19629,0.524902,
-1.21307,0.535583,
-1.2207,0.534058,
-1.23291,0.532532,
-1.24207,0.532532,
-1.24664,0.524902,
-1.24664,0.537109,
-1.24207,0.535583,
-1.23291,0.532532,
-1.22375,0.532532,
-1.21765,0.524902,
-1.20697,0.534058,
-1.19476,0.535583,
-1.18713,0.532532,
-1.17493,0.532532,
-1.16577,0.521851,
-1.15204,0.532532,
-1.14288,0.535583,
-1.1322,0.535583,
-1.12152,0.535583,
-1.11542,0.521851,
-1.11237,0.535583,
-1.11084,0.535583,
-1.10779,0.534058,
-1.10779,0.534058,
-1.10931,0.523376,
-1.11084,0.532532,
-1.11237,0.534058,
-1.11694,0.534058,
-1.12305,0.534058,
-1.1322,0.526428,
-1.13983,0.535583,
-1.14899,0.534058,
-1.15662,0.52948,
-1.16577,0.534058,
-1.18103,0.526428,
-1.19629,0.52948,
-1.21155,0.52948,
-1.22681,0.532532,
-1.24664,0.535583,
-1.26343,0.523376,
-1.28326,0.532532,
-1.30463,0.52948,
-1.32446,0.534058,
-1.34888,0.532532,
-1.37177,0.523376,
-1.39313,0.534058,
-1.41754,0.52948,
-1.44196,0.532532,
-1.46484,0.52948,
-1.49536,0.523376,
-1.51825,0.532532,
-1.54266,0.532532,
-1.5686,0.52948,
-1.59302,0.527954,
-1.62048,0.521851,
-1.64642,0.534058,
-1.67542,0.534058,
-1.70288,0.52948,
-1.73187,0.534058,
-1.75629,0.524902,
-1.77917,0.534058,
-1.80817,0.52948,
-1.83716,0.534058,
-1.86462,0.532532,
-1.89362,0.521851,
-1.9165,0.535583,
-1.93939,0.532532,
-1.96533,0.527954,
-1.98517,0.532532,
-2.00958,0.523376,
-2.03247,0.532532,
-2.05688,0.532532,
-2.08435,0.52948,
-2.10876,0.532532,
-2.13318,0.523376,
-2.15454,0.535583,
-2.18048,0.52948,
-2.19879,0.52948,
-2.22168,0.526428,
-2.24457,0.524902,
-2.25983,0.534058,
-2.27814,0.534058,
-2.29034,0.532532,
-2.30713,0.524902,
-2.33154,0.520325,
-2.34528,0.534058,
-2.35596,0.534058,
-2.37427,0.52948,
-2.38495,0.527954,
-2.39716,0.524902,
-2.40021,0.537109,
-2.39716,0.534058,
-2.38953,0.52948,
-2.37122,0.52948,
-2.34985,0.524902,
-2.30865,0.52948,
-2.2583,0.534058,
-2.20337,0.532532,
-2.1347,0.527954,
-2.06146,0.523376,
-1.98517,0.534058,
-1.90582,0.532532,
-1.82648,0.532532,
-1.74561,0.526428,
-1.66473,0.520325,
-1.57471,0.534058,
-1.49384,0.534058,
-1.40533,0.534058,
-1.32599,0.526428,
-1.24512,0.523376,
-1.17035,0.527954,
-1.09253,0.532532,
-1.02386,0.534058,
-0.952148,0.52948,
-0.892639,0.523376,
-0.836182,0.534058,
-0.779724,0.532532,
-0.733948,0.52948,
-0.695801,0.524902,
-0.657654,0.524902,
-0.624084,0.534058,
-0.602722,0.52948,
-0.588989,0.527954,
-0.57373,0.526428,
-0.569153,0.526428,
-0.566101,0.532532,
-0.566101,0.532532,
-0.57373,0.534058,
-0.58136,0.526428,
-0.596619,0.527954,
-0.613403,0.532532,
-0.63324,0.532532,
-0.657654,0.52948,
-0.683594,0.526428,
-0.71106,0.523376,
-0.744629,0.532532,
-0.78125,0.532532,
-0.816345,0.52948,
-0.854492,0.524902,
-0.889587,0.524902,
-0.93689,0.527954,
-0.975037,0.532532,
-1.01776,0.532532,
-1.06049,0.523376,
-1.10626,0.524902,
-1.15051,0.534058,
-1.18866,0.532532,
-1.22833,0.52948,
-1.26343,0.526428,
-1.29395,0.523376,
-1.32904,0.52948,
-1.36261,0.534058,
-1.38702,0.532532,
-1.40839,0.523376,
-1.42975,0.523376,
-1.44653,0.527954,
-1.46179,0.52948,
-1.46942,0.524902,
-1.48163,0.521851,
-1.48315,0.521851,
-1.49078,0.527954,
-1.49384,0.526428,
-1.49078,0.527954,
-1.48315,0.523376,
-1.47552,0.524902,
-1.46332,0.532532,
-1.45416,0.532532,
-1.44196,0.527954,
-1.43433,0.521851,
-1.42212,0.527954,
-1.41144,0.527954,
-1.40076,0.527954,
-1.38855,0.52948,
-1.37329,0.523376,
-1.36871,0.523376,
-1.36261,0.526428,
-1.35803,0.532532,
-1.35498,0.52948,
-1.35345,0.524902,
-1.35345,0.523376,
-1.35803,0.527954,
-1.36566,0.52948,
-1.36871,0.526428,
-1.37787,0.520325,
-1.38855,0.524902,
-1.40076,0.527954,
-1.41602,0.527954,
-1.4267,0.532532,
-1.43585,0.520325,
-1.45111,0.523376,
-1.46942,0.532532,
-1.48773,0.532532,
-1.50452,0.534058,
-1.52283,0.521851,
-1.54266,0.521851,
-1.56403,0.526428,
-1.59149,0.532532,
-1.61133,0.526428,
-1.63422,0.518799,
-1.66168,0.523376,
-1.68152,0.52948,
-1.70593,0.532532,
-1.72882,0.527954,
-1.75476,0.523376,
-1.77612,0.524902,
-1.80511,0.534058,
-1.82953,0.532532,
-1.85547,0.526428,
-1.88446,0.521851,
-1.9104,0.524902,
-1.93634,0.527954,
-1.96381,0.52948,
-1.98669,0.526428,
-2.01263,0.520325,
-2.034,0.523376,
-2.05994,0.52948,
-2.0813,0.527954,
-2.10724,0.526428,
-2.1347,0.524902,
-2.15912,0.526428,
-2.18353,0.526428,
-2.20795,0.534058,
-2.23389,0.524902,
-2.25525,0.523376,
-2.27814,0.521851,
-2.30103,0.527954,
-2.32697,0.527954,
-2.34528,0.526428,
-2.36816,0.520325,
-2.38953,0.524902,
-2.40936,0.527954,
-2.42767,0.527954,
-2.44751,0.526428,
-2.46429,0.521851,
-2.48413,0.523376,
-2.49786,0.526428,
-2.5238,0.527954,
-2.54059,0.532532,
-2.56042,0.520325,
-2.58179,0.521851,
-2.59857,0.524902,
-2.61688,0.52948,
-2.62909,0.524902,
-2.64435,0.524902,
-2.65656,0.524902,
-2.66571,0.526428,
-2.67334,0.52948,
-2.67639,0.527954,
-2.67029,0.520325,
-2.65808,0.521851,
-2.63824,0.524902,
-2.6123,0.532532,
-2.57568,0.527954,
-2.53143,0.523376,
-2.47345,0.521851,
-2.41241,0.524902,
-2.34375,0.52948,
-2.27051,0.526428,
-2.19269,0.521851,
-2.11487,0.523376,
-2.02789,0.527954,
-1.94702,0.52948,
-1.86157,0.526428,
-1.78223,0.523376,
-1.69983,0.521851,
-1.61438,0.523376,
-1.53351,0.52948,
-1.45416,0.52948,
-1.38245,0.523376,
-1.31073,0.523376,
-1.24054,0.527954,
-1.17645,0.52948,
-1.12,0.523376,
-1.06812,0.524902,
-1.01929,0.524902,
-0.976563,0.526428,
-0.938416,0.52948,
-0.904846,0.524902,
-0.881958,0.524902,
-0.863647,0.523376,
-0.848389,0.523376,
-0.840759,0.527954,
-0.837708,0.527954,
-0.839233,0.521851,
-0.846863,0.524902,
-0.856018,0.526428,
-0.874329,0.526428,
-0.895691,0.527954,
-0.917053,0.523376,
-0.944519,0.520325,
-0.978088,0.523376,
-1.01318,0.52948,
-1.0498,0.524902,
-1.08643,0.523376,
-1.1261,0.523376,
-1.17035,0.523376,
-1.2146,0.526428,
-1.2619,0.526428,
-1.31226,0.523376,
-1.35803,0.520325,
-1.40839,0.524902,
-1.45264,0.526428,
-1.50299,0.527954,
-1.55182,0.523376,
-1.59454,0.520325,
-1.63879,0.523376,
-1.67999,0.527954,
-1.72119,0.526428,
-1.74866,0.521851,
-1.78986,0.523376,
-1.81427,0.526428,
-1.84021,0.52948,
-1.8631,0.526428,
-1.88293,0.520325,
-1.89362,0.521851,
-1.90277,0.523376,
-1.90582,0.52948,
-1.90735,0.524902,
-1.9043,0.520325,
-1.89667,0.521851,
-1.88446,0.523376,
-1.87683,0.524902,
-1.8692,0.526428,
-1.85852,0.521851,
-1.84326,0.523376,
-1.82953,0.526428,
-1.81732,0.526428,
-1.80664,0.526428,
-1.79291,0.523376,
-1.77917,0.521851,
-1.76697,0.524902,
-1.75476,0.526428,
-1.74713,0.524902,
-1.73798,0.521851,
-1.73035,0.523376,
-1.72729,0.523376,
-1.72729,0.526428,
-1.72882,0.524902,
-1.73187,0.523376,
-1.7334,0.521851,
-1.7395,0.523376,
-1.74561,0.526428,
-1.75476,0.527954,
-1.75934,0.523376,
-1.77002,0.521851,
-1.77917,0.521851,
-1.79749,0.527954,
-1.80969,0.521851,
-1.83258,0.518799,
-1.84937,0.521851,
-1.87378,0.520325,
-1.89514,0.524902,
-1.91498,0.523376,
-1.93634,0.523376,
-1.96228,0.523376,
-1.98517,0.518799,
-2.01263,0.527954,
-2.03857,0.524902,
-2.06757,0.524902,
-2.09198,0.523376,
-2.11639,0.521851,
-2.13623,0.526428,
-2.16064,0.526428,
-2.18506,0.524902,
-2.211,0.526428,
-2.23694,0.520325,
-2.26288,0.524902,
-2.28577,0.52948,
-2.31628,0.521851,
-2.34375,0.521851,
-2.36969,0.523376,
-2.39563,0.532532,
-2.42615,0.526428,
-2.44904,0.523376,
-2.47803,0.523376,
-2.50549,0.521851,
-2.53143,0.532532,
-2.55737,0.524902,
-2.58331,0.521851,
-2.60925,0.521851,
-2.63062,0.520325,
-2.65045,0.527954,
-2.67029,0.524902,
-2.69318,0.524902,
-2.71301,0.523376,
-2.73132,0.520325,
-2.75574,0.524902,
-2.77405,0.527954,
-2.79083,0.521851,
-2.80457,0.521851,
-2.82135,0.520325,
-2.83813,0.52948,
-2.85645,0.524902,
-2.87323,0.524902,
-2.88391,0.521851,
-2.89764,0.517273,
-2.91138,0.524902,
-2.92511,0.527954,
-2.93732,0.526428,
-2.95105,0.521851,
-2.96783,0.517273,
-2.97852,0.526428,
-2.98615,0.532532,
-2.99683,0.521851,
-3.0014,0.523376,
-3.0014,0.517273,
-2.99835,0.524902,
-2.9892,0.523376,
-2.97241,0.524902,
-2.94952,0.521851,
-2.91595,0.517273,
-2.8717,0.521851,
-2.8244,0.521851,
-2.76184,0.524902,
-2.70081,0.521851,
-2.62604,0.517273,
-2.55127,0.523376,
-2.47192,0.526428,
-2.39258,0.526428,
-2.30865,0.521851,
-2.22473,0.518799,
-2.14081,0.523376,
-2.05994,0.524902,
-1.97906,0.524902,
-1.90277,0.521851,
-1.82648,0.520325,
-1.75476,0.527954,
-1.68152,0.526428,
-1.61285,0.523376,
-1.55029,0.521851,
-1.49078,0.520325,
-1.43127,0.526428,
-1.38245,0.526428,
-1.33972,0.524902,
-1.29852,0.521851,
-1.26495,0.518799,
-1.23749,0.526428,
-1.21613,0.526428,
-1.20239,0.526428,
-1.19019,0.521851,
-1.17798,0.520325,
-1.18103,0.527954,
-1.17645,0.527954,
-1.18408,0.523376,
-1.19171,0.520325,
-1.20544,0.521851,
-1.22223,0.52948,
-1.24817,0.52948,
-1.26953,0.523376,
-1.30005,0.523376,
-1.33209,0.518799,
-1.36871,0.523376,
-1.40381,0.527954,
-1.43738,0.521851,
-1.48163,0.521851,
-1.52283,0.521851,
-1.56097,0.527954,
-1.61133,0.526428,
-1.65863,0.524902,
-1.70746,0.524902,
-1.75476,0.518799,
-1.80359,0.526428,
-1.85089,0.523376,
-1.89972,0.526428,
-1.94702,0.524902,
-1.98669,0.520325,
-2.02789,0.524902,
-2.06451,0.527954,
-2.09503,0.524902,
-2.11945,0.523376,
-2.14386,0.520325,
-2.16064,0.521851,
-2.17896,0.526428,
-2.18353,0.524902,
-2.19269,0.521851,
-2.19116,0.521851,
-2.18964,0.523376,
-2.18658,0.526428,
-2.17743,0.523376,
-2.16522,0.524902,
-2.14996,0.520325,
-2.13013,0.520325,
-2.11334,0.527954,
-2.09045,0.524902,
-2.07825,0.523376,
-2.05536,0.518799,
-2.04468,0.524902,
-2.02637,0.524902,
-2.00958,0.523376,
-1.99585,0.524902,
-1.98517,0.521851,
-1.97601,0.523376,
-1.96686,0.526428,
-1.95923,0.523376,
-1.9577,0.524902,
-1.96228,0.520325,
-1.95618,0.524902,
-1.95465,0.526428,
-1.95465,0.526428,
-1.9577,0.523376,
-1.96228,0.521851,
-1.96228,0.521851,
-1.97296,0.524902,
-1.97601,0.524902,
-1.98669,0.521851,
-2.00043,0.518799,
-2.00958,0.527954,
-2.02179,0.527954,
-2.04163,0.524902,
-2.05536,0.526428,
-2.07062,0.518799,
-2.0874,0.526428,
-2.10724,0.526428,
-2.1286,0.524902,
-2.14996,0.521851,
-2.17285,0.520325,
-2.19727,0.524902,
-2.21558,0.526428,
-2.24304,0.523376,
-2.26288,0.524902,
-2.2934,0.521851,
-2.31476,0.524902,
-2.3407,0.524902,
-2.36511,0.523376,
-2.38495,0.523376,
-2.41241,0.520325,
-2.43835,0.524902,
-2.46277,0.52948,
-2.48718,0.526428,
-2.50854,0.523376,
-2.53448,0.521851,
-2.56042,0.526428,
-2.58331,0.523376,
-2.60925,0.524902,
-2.63214,0.524902,
-2.65503,0.521851,
-2.67487,0.526428,
-2.69928,0.526428,
-2.71912,0.523376,
-2.73895,0.521851,
-2.75574,0.520325,
-2.771,0.526428,
-2.78931,0.524902,
-2.81525,0.524902,
-2.83356,0.523376,
-2.84882,0.521851,
-2.86865,0.527954,
-2.89154,0.523376,
-2.9129,0.524902,
-2.92969,0.524902,
-2.94495,0.523376,
-2.96326,0.527954,
-2.97852,0.526428,
-2.9953,0.524902,
-3.00903,0.521851,
-3.02429,0.520325,
-3.03497,0.526428,
-3.04718,0.526428,
-3.05786,0.523376,
-3.05939,0.520325,
-3.06244,0.520325,
-3.05786,0.527954,
-3.03802,0.526428,
-3.00903,0.524902,
-2.97241,0.524902,
-2.92664,0.521851,
-2.87323,0.526428,
-2.80914,0.524902,
-2.73895,0.523376,
-2.65961,0.521851,
-2.58331,0.518799,
-2.49939,0.526428,
-2.41852,0.524902,
-2.32697,0.526428,
-2.24762,0.523376,
-2.15912,0.521851,
-2.0752,0.526428,
-1.99127,0.524902,
-1.90735,0.524902,
-1.828,0.523376,
-1.74561,0.521851,
-1.67084,0.526428,
-1.5976,0.524902,
-1.53046,0.526428,
-1.46484,0.523376,
-1.40381,0.521851,
-1.35193,0.524902,
-1.3031,0.524902,
-1.2558,0.523376,
-1.22223,0.523376,
-1.18561,0.517273,
-1.15814,0.523376,
-1.13678,0.526428,
-1.12,0.524902,
-1.11237,0.523376,
-1.10779,0.515747,
-1.10931,0.526428,
-1.11542,0.526428,
-1.12762,0.526428,
-1.13983,0.523376,
-1.15662,0.518799,
-1.18103,0.523376,
-1.2085,0.526428,
-1.23444,0.521851,
-1.26495,0.524902,
-1.30005,0.520325,
-1.3382,0.524902,
-1.37787,0.524902,
-1.41907,0.524902,
-1.45874,0.520325,
-1.50146,0.517273,
-1.54419,0.526428,
-1.59149,0.527954,
-1.64032,0.524902,
-1.68915,0.523376,
-1.7334,0.520325,
-1.7807,0.521851,
-1.828,0.524902,
-1.8692,0.526428,
-1.9104,0.524902,
-1.9516,0.523376,
-1.98669,0.524902,
-2.02179,0.527954,
-2.04926,0.524902,
-2.07214,0.524902,
-2.08893,0.520325,
-2.10571,0.526428,
-2.11639,0.524902,
-2.1225,0.526428,
-2.1286,0.523376,
-2.12402,0.520325,
-2.12708,0.527954,
-2.11945,0.523376,
-2.11029,0.521851,
-2.09656,0.520325,
-2.08435,0.518799,
-2.0752,0.524902,
-2.06146,0.523376,
-2.05078,0.523376,
-2.03857,0.520325,
-2.01874,0.518799,
-2.00348,0.526428,
-1.98975,0.526428,
-1.97449,0.527954,
-1.96533,0.524902,
-1.95313,0.517273,
-1.94397,0.524902,
-1.93939,0.520325,
-1.93176,0.523376,
-1.92413,0.523376,
-1.92261,0.518799,
-1.91956,0.526428,
-1.91803,0.521851,
-1.92108,0.523376,
-1.92719,0.518799,
-1.93176,0.518799,
-1.93481,0.523376,
-1.94397,0.523376,
-1.95313,0.520325,
-1.96228,0.520325,
-1.97754,0.518799,
-1.9928,0.523376,
-2.00653,0.521851,
-2.02332,0.523376,
-2.03857,0.520325,
-2.05383,0.521851,
-2.07062,0.523376,
-2.08893,0.523376,
-2.11029,0.523376,
-2.13318,0.521851,
-2.14996,0.520325,
-2.17285,0.523376,
-2.19116,0.523376,
-2.21405,0.524902,
-2.23999,0.523376,
-2.25983,0.520325,
-2.28729,0.524902,
-2.30865,0.521851,
-2.33917,0.521851,
-2.36206,0.518799,
-2.38953,0.520325,
-2.41699,0.524902,
-2.44598,0.523376,
-2.4704,0.523376,
-2.49329,0.521851,
-2.51923,0.520325,
-2.54364,0.526428,
-2.56958,0.527954,
-2.59705,0.523376,
-2.61993,0.518799,
-2.6413,0.520325,
-2.66266,0.524902,
-2.68707,0.521851,
-2.71149,0.520325,
-2.73285,0.520325,
-2.74658,0.520325,
-2.76642,0.526428,
-2.78778,0.524902,
-2.80914,0.523376,
-2.83051,0.520325,
-2.84882,0.520325,
-2.86865,0.520325,
-2.88544,0.523376,
-2.90985,0.523376,
-2.92511,0.521851,
-2.94342,0.520325,
-2.96173,0.524902,
-2.97852,0.523376,
-2.99072,0.524902,
-3.00598,0.518799,
-3.01971,0.520325,
-3.03192,0.523376,
-3.0426,0.521851,
-3.0426,0.523376,
-3.04413,0.521851,
-3.03345,0.518799,
-3.01208,0.523376,
-2.98004,0.523376,
-2.93579,0.524902,
-2.88391,0.520325,
-2.82288,0.520325,
-2.75269,0.521851,
-2.67487,0.521851,
-2.59705,0.523376,
-2.51617,0.521851,
-2.42615,0.518799,
-2.33459,0.523376,
-2.24609,0.521851,
-2.15302,0.520325,
-2.05994,0.518799,
-1.96381,0.520325,
-1.87225,0.523376,
-1.77917,0.521851,
-1.6922,0.524902,
-1.60675,0.520325,
-1.52893,0.517273,
-1.45416,0.523376,
-1.37787,0.521851,
-1.31531,0.524902,
-1.25122,0.521851,
-1.19476,0.517273,
-1.14594,0.526428,
-1.09863,0.521851,
-1.06049,0.523376,
-1.02997,0.517273,
-1.00555,0.518799,
-0.982666,0.521851,
-0.971985,0.526428,
-0.956726,0.526428,
-0.9552,0.517273,
-0.950623,0.515747,
-0.9552,0.524902,
-0.964355,0.523376,
-0.976563,0.524902,
-0.993347,0.518799,
-1.01013,0.515747,
-1.02997,0.518799,
-1.05438,0.526428,
-1.07727,0.523376,
-1.10626,0.521851,
-1.13831,0.517273,
-1.1673,0.521851,
-1.19781,0.521851,
-1.23444,0.521851,
-1.26648,0.518799,
-1.31073,0.521851,
-1.34888,0.524902,
-1.38245,0.518799,
-1.42517,0.518799,
-1.46179,0.520325,
-1.50452,0.515747,
-1.53809,0.523376,
-1.57776,0.520325,
-1.61438,0.523376,
-1.65253,0.520325,
-1.68915,0.515747,
-1.71814,0.523376,
-1.74561,0.521851,
-1.76544,0.526428,
-1.7868,0.518799,
-1.80206,0.518799,
-1.80969,0.523376,
-1.81885,0.521851,
-1.82648,0.523376,
-1.82648,0.518799,
-1.82037,0.518799,
-1.81885,0.523376,
-1.81274,0.523376,
-1.81122,0.521851,
-1.80054,0.515747,
-1.79596,0.518799,
-1.78223,0.521851,
-1.77155,0.521851,
-1.76392,0.524902,
-1.75171,0.518799,
-1.74408,0.515747,
-1.7334,0.524902,
-1.72577,0.521851,
-1.72119,0.518799,
-1.70898,0.520325,
-1.70135,0.518799,
-1.6983,0.523376,
-1.68915,0.521851,
-1.69067,0.523376,
-1.68152,0.518799,
-1.6861,0.517273,
-1.6922,0.523376,
-1.69373,0.517273,
-1.69525,0.520325,
-1.70288,0.518799,
-1.71356,0.515747,
-1.72424,0.521851,
-1.73492,0.521851,
-1.75018,0.524902,
-1.76239,0.518799,
-1.77612,0.520325,
-1.79443,0.521851,
-1.80664,0.520325,
-1.8219,0.521851,
-1.84174,0.517273,
-1.85852,0.520325,
-1.87988,0.521851,
-1.89819,0.521851,
-1.91956,0.518799,
-1.93787,0.515747,
-1.96381,0.515747,
-1.98364,0.518799,
-2.00653,0.518799,
-2.02637,0.520325,
-2.04468,0.515747,
-2.06757,0.517273,
-2.0874,0.520325,
-2.11029,0.521851,
-2.1347,0.523376,
-2.15454,0.517273,
-2.17896,0.515747,
-2.2049,0.520325,
-2.22778,0.517273,
-2.24762,0.524902,
-2.27051,0.514221,
-2.2934,0.517273,
-2.31628,0.523376,
-2.3407,0.520325,
-2.36206,0.523376,
-2.38495,0.517273,
-2.40326,0.514221,
-2.4292,0.524902,
-2.44904,0.520325,
-2.47345,0.520325,
-2.49176,0.518799,
-2.51465,0.517273,
-2.53754,0.521851,
-2.5589,0.518799,
-2.58484,0.523376,
-2.60773,0.518799,
-2.62909,0.514221,
-2.6535,0.526428,
-2.67029,0.518799,
-2.69623,0.523376,
-2.72064,0.515747,
-2.74048,0.517273,
-2.76489,0.524902,
-2.78931,0.521851,
-2.80762,0.521851,
-2.82745,0.518799,
-2.84424,0.520325,
-2.86255,0.523376,
-2.87018,0.518799,
-2.87933,0.520325,
-2.88239,0.517273,
-2.88391,0.515747,
-2.87323,0.524902,
-2.85034,0.520325,
-2.82135,0.520325,
-2.77557,0.517273,
-2.72217,0.515747,
-2.66876,0.524902,
-2.59705,0.518799,
-2.5238,0.521851,
-2.44293,0.515747,
-2.36053,0.514221,
-2.27356,0.523376,
-2.18353,0.520325,
-2.09351,0.520325,
-2.00195,0.515747,
-1.90582,0.515747,
-1.8158,0.521851,
-1.72272,0.520325,
-1.63422,0.520325,
-1.54266,0.514221,
-1.45874,0.515747,
-1.38245,0.520325,
-1.30615,0.523376,
-1.23291,0.521851,
-1.16577,0.515747,
-1.11084,0.515747,
-1.05286,0.520325,
-1.00098,0.518799,
-0.953674,0.520325,
-0.917053,0.512695,
-0.878906,0.511169,
-0.848389,0.521851,
-0.827026,0.517273,
-0.811768,0.520325,
-0.804138,0.512695,
-0.796509,0.514221,
-0.794983,0.524902,
-0.802612,0.520325,
-0.813293,0.520325,
-0.828552,0.515747,
-0.842285,0.514221,
-0.866699,0.521851,
-0.883484,0.518799,
-0.904846,0.518799,
-0.930786,0.515747,
-0.961304,0.515747,
-0.990295,0.520325,
-1.01929,0.518799,
-1.05286,0.520325,
-1.08795,0.514221,
-1.12305,0.514221,
-1.16272,0.521851,
-1.20697,0.518799,
-1.24664,0.521851,
-1.28784,0.515747,
-1.32599,0.517273,
-1.36871,0.524902,
-1.40839,0.518799,
-1.45264,0.520325,
-1.48315,0.518799,
-1.51978,0.515747,
-1.55334,0.524902,
-1.58081,0.518799,
-1.60828,0.520325,
-1.62964,0.518799,
-1.64642,0.515747,
-1.65863,0.521851,
-1.67084,0.521851,
-1.67542,0.520325,
-1.68304,0.518799,
-1.68915,0.514221,
-1.69067,0.521851,
-1.68152,0.518799,
-1.67542,0.521851,
-1.66626,0.517273,
-1.6571,0.517273,
-1.64642,0.520325,
-1.63269,0.520325,
-1.61896,0.520325,
-1.6037,0.518799,
-1.58539,0.514221,
-1.57318,0.523376,
-1.56097,0.520325,
-1.54572,0.521851,
-1.53503,0.515747,
-1.5274,0.514221,
-1.5152,0.524902,
-1.51215,0.518799,
-1.50452,0.518799,
-1.49841,0.514221,
-1.49536,0.512695,
-1.49536,0.520325,
-1.49384,0.518799,
-1.49994,0.518799,
-1.50452,0.512695,
-1.50909,0.511169,
-1.51672,0.520325,
-1.51978,0.517273,
-1.53046,0.520325,
-1.54266,0.514221,
-1.55792,0.511169,
-1.57013,0.521851,
-1.58997,0.517273,
-1.60675,0.517273,
-1.62506,0.517273,
-1.64642,0.512695,
-1.66473,0.521851,
-1.68762,0.520325,
-1.71814,0.520325,
-1.74255,0.511169,
-1.77002,0.512695,
-1.79749,0.520325,
-1.82648,0.521851,
-1.85242,0.518799,
-1.88293,0.512695,
-1.91345,0.512695,
-1.93939,0.517273,
-1.96686,0.518799,
-1.99585,0.520325,
-2.02637,0.515747,
-2.05231,0.509644,
-2.07672,0.518799,
-2.10419,0.518799,
-2.12708,0.520325,
-2.14691,0.517273,
-2.1759,0.514221,
-2.20642,0.518799,
-2.22931,0.518799,
-2.2522,0.518799,
-2.27509,0.514221,
-2.2995,0.512695,
-2.32239,0.520325,
-2.3468,0.521851,
-2.36969,0.517273,
-2.3941,0.514221,
-2.42004,0.509644,
-2.44293,0.518799,
-2.46735,0.520325,
-2.48871,0.520325,
-2.5116,0.514221,
-2.53448,0.511169,
-2.5528,0.518799,
-2.57416,0.517273,
-2.59399,0.520325,
-2.61688,0.511169,
-2.63519,0.509644,
-2.65045,0.523376,
-2.66418,0.521851,
-2.67792,0.518799,
-2.69623,0.515747,
-2.71301,0.514221,
-2.73285,0.520325,
-2.74658,0.520325,
-2.76031,0.518799,
-2.77557,0.512695,
-2.78168,0.511169,
-2.78625,0.518799,
-2.77405,0.520325,
-2.76642,0.517273,
-2.74506,0.515747,
-2.72064,0.512695,
-2.67944,0.518799,
-2.62909,0.518799,
-2.57263,0.517273,
-2.51617,0.514221,
-2.45056,0.514221,
-2.37885,0.518799,
-2.3056,0.517273,
-2.22321,0.517273,
-2.13928,0.512695,
-2.05078,0.512695,
-1.96838,0.518799,
-1.87836,0.520325,
-1.79901,0.521851,
-1.71509,0.511169,
-1.63727,0.506592,
-1.5625,0.509644,
-1.48621,0.508118,
-1.42059,0.511169,
-1.35193,0.506592,
-1.28784,0.511169,
-1.23444,0.512695,
-1.18256,0.515747,
-1.13373,0.514221,
-1.09558,0.509644,
-1.06354,0.512695,
-1.0376,0.517273,
-1.01471,0.517273,
-0.994873,0.515747,
-0.984192,0.508118,
-0.971985,0.517273,
-0.971985,0.517273,
-0.970459,0.515747,
-0.979614,0.518799,
-0.990295,0.508118,
-1.00708,0.515747,
-1.02386,0.515747,
-1.04218,0.515747,
-1.06354,0.515747,
-1.08795,0.506592,
-1.11847,0.512695,
