-2.58942,0.723267,
-2.61841,0.675964,
-2.64893,0.634766,
-2.67487,0.639343,
-2.69928,0.715637,
-2.7298,0.724792,
-2.75726,0.672913,
-2.78015,0.634766,
-2.80762,0.643921,
-2.83356,0.715637,
-2.85645,0.724792,
-2.87628,0.675964,
-2.89459,0.631714,
-2.91443,0.642395,
-2.94037,0.717163,
-2.96021,0.724792,
-2.98462,0.669861,
-3.00446,0.634766,
-3.02734,0.640869,
-3.04413,0.682068,
-3.06549,0.727844,
-3.08685,0.675964,
-3.11279,0.631714,
-3.12805,0.642395,
-3.13721,0.717163,
-3.15094,0.730896,
-3.16925,0.67749,
-3.18604,0.63324,
-3.2074,0.645447,
-3.22418,0.718689,
-3.24249,0.732422,
-3.25623,0.674438,
-3.27301,0.634766,
-3.29132,0.643921,
-3.30353,0.717163,
-3.31573,0.730896,
-3.32947,0.680542,
-3.34625,0.634766,
-3.35693,0.640869,
-3.37524,0.717163,
-3.39508,0.733948,
-3.40881,0.679016,
-3.41797,0.631714,
-3.43323,0.650024,
-3.44391,0.715637,
-3.45459,0.730896,
-3.46375,0.674438,
-3.479,0.63324,
-3.49579,0.627136,
-3.5141,0.727844,
-3.53088,0.733948,
-3.54614,0.67749,
-3.56445,0.628662,
-3.58734,0.643921,
-3.60565,0.714111,
-3.62549,0.732422,
-3.64685,0.675964,
-3.66821,0.631714,
-3.69263,0.645447,
-3.72009,0.723267,
-3.73993,0.730896,
-3.76282,0.679016,
-3.78571,0.628662,
-3.80402,0.640869,
-3.82996,0.718689,
-3.84369,0.735474,
-3.85895,0.67749,
-3.87878,0.628662,
-3.89252,0.639343,
-3.90625,0.714111,
-3.91235,0.733948,
-3.91235,0.67749,
-3.9093,0.631714,
-3.90015,0.643921,
-3.8681,0.712585,
-3.82538,0.730896,
-3.77045,0.67749,
-3.69568,0.621033,
-3.60718,0.645447,
-3.50952,0.71106,
-3.39203,0.732422,
-3.26538,0.674438,
-3.13263,0.62561,
-2.98767,0.646973,
-2.83813,0.714111,
-2.67792,0.735474,
-2.51617,0.67749,
-2.34375,0.627136,
-2.17438,0.640869,
-2.005,0.712585,
-1.84021,0.732422,
-1.67847,0.67749,
-1.52893,0.624084,
-1.38397,0.643921,
-1.25122,0.709534,
-1.12152,0.743103,
-0.999451,0.665283,
-0.88501,0.628662,
-0.787354,0.646973,
-0.697327,0.712585,
-0.608826,0.737,
-0.540161,0.671387,
-0.474548,0.63324,
-0.416565,0.646973,
-0.369263,0.706482,
-0.328064,0.733948,
-0.296021,0.668335,
-0.274658,0.627136,
-0.260925,0.648499,
-0.254822,0.712585,
-0.254822,0.753784,
-0.259399,0.672913,
-0.267029,0.627136,
-0.283813,0.643921,
-0.305176,0.712585,
-0.328064,0.730896,
-0.360107,0.674438,
-0.395203,0.62561,
-0.434875,0.650024,
-0.476074,0.709534,
-0.518799,0.733948,
-0.564575,0.671387,
-0.604248,0.62561,
-0.65155,0.642395,
-0.692749,0.709534,
-0.737,0.732422,
-0.787354,0.665283,
-0.842285,0.595093,
-0.892639,0.642395,
-0.946045,0.706482,
-1.00403,0.735474,
-1.05286,0.67749,
-1.11389,0.631714,
-1.17493,0.646973,
-1.23291,0.721741,
-1.28784,0.732422,
-1.34735,0.666809,
-1.40381,0.631714,
-1.45569,0.643921,
-1.50604,0.712585,
-1.54877,0.732422,
-1.58844,0.674438,
-1.62811,0.627136,
-1.66168,0.646973,
-1.68915,0.709534,
-1.70746,0.733948,
-1.72577,0.672913,
-1.74408,0.627136,
-1.75934,0.65155,
-1.77002,0.709534,
-1.7746,0.730896,
-1.78375,0.682068,
-1.78223,0.628662,
-1.7868,0.657654,
-1.78375,0.714111,
-1.7807,0.727844,
-1.76849,0.669861,
-1.75476,0.642395,
-1.74103,0.65155,
-1.72882,0.708008,
-1.71509,0.726318,
-1.6983,0.671387,
-1.68304,0.628662,
-1.67084,0.65155,
-1.64948,0.709534,
-1.64032,0.733948,
-1.62354,0.669861,
-1.61743,0.628662,
-1.60522,0.653076,
-1.59912,0.708008,
-1.59302,0.738525,
-1.58844,0.671387,
-1.58539,0.628662,
-1.58539,0.654602,
-1.58997,0.714111,
-1.59149,0.730896,
-1.60065,0.666809,
-1.6098,0.628662,
-1.62201,0.654602,
-1.63116,0.71106,
-1.6449,0.730896,
-1.66626,0.666809,
-1.68304,0.62561,
-1.70135,0.65155,
-1.71814,0.71106,
-1.73798,0.732422,
-1.76086,0.669861,
-1.78375,0.627136,
-1.80969,0.653076,
-1.84021,0.71106,
-1.86615,0.730896,
-1.88904,0.666809,
-1.9165,0.613403,
-1.94092,0.657654,
-1.97296,0.708008,
-2.00348,0.727844,
-2.03552,0.669861,
-2.06757,0.62561,
-2.09961,0.656128,
-2.1347,0.709534,
-2.1637,0.737,
-2.19574,0.668335,
-2.22626,0.640869,
-2.2644,0.662231,
-2.28882,0.708008,
-2.31934,0.778198,
-2.35596,0.660706,
-2.38495,0.619507,
-2.41852,0.65918,
-2.45209,0.706482,
-2.47955,0.727844,
-2.51617,0.665283,
-2.54364,0.613403,
-2.57721,0.727844,
-2.60773,0.708008,
-2.63977,0.740051,
-2.67334,0.669861,
-2.70538,0.624084,
-2.73438,0.660706,
-2.76947,0.706482,
-2.79541,0.727844,
-2.82135,0.666809,
-2.84424,0.6073,
-2.87323,0.662231,
-2.89917,0.706482,
-2.93427,0.727844,
-2.96631,0.666809,
-2.9953,0.624084,
-3.02124,0.662231,
-3.04718,0.71106,
-3.07465,0.730896,
-3.10516,0.668335,
-3.13721,0.62561,
-3.16467,0.65918,
-3.18756,0.706482,
-3.21503,0.727844,
-3.24097,0.668335,
-3.27148,0.611877,
-3.29742,0.657654,
-3.31726,0.708008,
-3.34015,0.721741,
-3.35846,0.662231,
-3.38135,0.621033,
-3.39966,0.653076,
-3.42407,0.70343,
-3.44238,0.71106,
-3.45917,0.665283,
-3.48053,0.624084,
-3.49731,0.674438,
-3.51257,0.704956,
-3.52783,0.724792,
-3.54462,0.662231,
-3.55835,0.622559,
-3.5675,0.656128,
-3.58276,0.715637,
-3.59192,0.723267,
-3.6026,0.662231,
-3.61481,0.622559,
-3.62854,0.656128,
-3.6377,0.706482,
-3.65601,0.724792,
-3.66821,0.662231,
-3.68347,0.617981,
-3.69263,0.654602,
-3.70026,0.71106,
-3.71857,0.720215,
-3.7323,0.662231,
-3.74908,0.616455,
-3.76282,0.65155,
-3.77655,0.706482,
-3.79486,0.717163,
-3.80554,0.65918,
-3.82233,0.616455,
-3.83606,0.656128,
-3.85437,0.71106,
-3.87421,0.717163,
-3.88794,0.669861,
-3.90625,0.621033,
-3.92456,0.662231,
-3.94135,0.709534,
-3.96118,0.718689,
-3.98102,0.654602,
-4.00391,0.619507,
-4.02832,0.653076,
-4.04663,0.686646,
-4.06952,0.721741,
-4.09241,0.65918,
-4.11072,0.614929,
-4.13513,0.657654,
-4.15039,0.71106,
-4.16565,0.715637,
-4.18243,0.668335,
-4.19617,0.613403,
-4.20532,0.65918,
-4.20685,0.704956,
-4.19312,0.715637,
-4.17328,0.666809,
-4.13971,0.617981,
-4.0863,0.662231,
-4.02832,0.709534,
-3.95508,0.718689,
-3.862,0.662231,
-3.75824,0.617981,
-3.6377,0.665283,
-3.508,0.706482,
-3.37219,0.715637,
-3.22266,0.660706,
-3.06702,0.614929,
-2.90985,0.680542,
-2.74048,0.765991,
-2.57111,0.712585,
-2.40326,0.657654,
-2.23236,0.614929,
-2.06909,0.645447,
-1.9104,0.709534,
-1.75781,0.714111,
-1.60675,0.65918,
-1.46332,0.608826,
-1.33514,0.65918,
-1.2085,0.708008,
-1.08795,0.721741,
-0.98114,0.65918,
-0.889587,0.602722,
-0.805664,0.657654,
-0.735474,0.706482,
-0.669861,0.714111,
-0.613403,0.662231,
-0.570679,0.610352,
-0.52948,0.653076,
-0.497437,0.708008,
-0.480652,0.715637,
-0.466919,0.65918,
-0.457764,0.605774,
-0.450134,0.654602,
-0.454712,0.68512,
-0.463867,0.712585,
-0.476074,0.662231,
-0.498962,0.601196,
-0.520325,0.653076,
-0.546265,0.692749,
-0.579834,0.714111,
-0.611877,0.657654,
-0.646973,0.608826,
-0.686646,0.665283,
-0.730896,0.71106,
-0.773621,0.741577,
-0.819397,0.665283,
-0.869751,0.6073,
-0.921631,0.656128,
-0.973511,0.708008,
-1.02539,0.709534,
-1.0788,0.666809,
-1.13678,0.604248,
-1.19171,0.65155,
-1.24512,0.708008,
-1.3031,0.712585,
-1.36566,0.660706,
-1.42822,0.602722,
-1.48468,0.650024,
-1.53961,0.691223,
-1.59607,0.712585,
-1.64032,0.656128,
-1.68152,0.601196,
-1.73035,0.653076,
-1.76392,0.709534,
-1.80054,0.714111,
-1.83105,0.671387,
-1.86462,0.59967,
-1.88446,0.6073,
-1.90582,0.709534,
-1.91956,0.704956,
-1.93024,0.65918,
-1.93481,0.6073,
-1.93634,0.645447,
-1.93634,0.704956,
-1.93787,0.709534,
-1.93176,0.660706,
-1.91956,0.601196,
-1.91345,0.639343,
-1.89819,0.712585,
-1.88599,0.706482,
-1.87225,0.660706,
-1.86005,0.595093,
-1.84174,0.648499,
-1.82953,0.708008,
-1.80969,0.709534,
-1.79596,0.657654,
-1.78223,0.595093,
-1.7746,0.645447,
-1.76239,0.708008,
-1.74408,0.708008,
-1.73492,0.660706,
-1.72577,0.605774,
-1.71509,0.653076,
-1.70441,0.709534,
-1.69525,0.732422,
-1.69067,0.656128,
-1.67999,0.592041,
-1.67847,0.643921,
-1.67999,0.70343,
-1.67847,0.709534,
-1.68304,0.654602,
-1.68152,0.657654,
-1.69373,0.604248,
-1.70746,0.709534,
-1.72729,0.715637,
-1.7395,0.656128,
-1.75476,0.588989,
-1.76849,0.640869,
-1.7807,0.701904,
-1.80359,0.671387,
-1.82495,0.650024,
-1.84479,0.590515,
-1.87225,0.640869,
-1.89972,0.715637,
-1.93176,0.706482,
-1.9577,0.657654,
-1.98212,0.627136,
-2.01111,0.636292,
-2.0401,0.712585,
-2.07062,0.70343,
-2.10114,0.654602,
-2.13318,0.598145,
-2.16217,0.636292,
-2.19727,0.709534,
-2.22626,0.704956,
-2.25677,0.654602,
-2.29187,0.593567,
-2.32239,0.640869,
-2.35138,0.708008,
-2.38037,0.70343,
-2.40936,0.656128,
-2.43835,0.613403,
-2.46735,0.631714,
-2.49481,0.708008,
-2.5238,0.70343,
-2.55585,0.653076,
-2.58636,0.590515,
-2.61688,0.628662,
-2.64587,0.71106,
-2.67792,0.682068,
-2.70844,0.654602,
-2.73743,0.590515,
-2.76489,0.631714,
-2.79083,0.709534,
-2.81677,0.701904,
-2.84119,0.65155,
-2.86865,0.595093,
-2.89459,0.686646,
-2.91595,0.706482,
-2.94342,0.70343,
-2.96936,0.662231,
-2.98615,0.59967,
-3.00903,0.636292,
-3.03497,0.71106,
-3.05481,0.700378,
-3.07922,0.688171,
-3.10059,0.592041,
-3.12195,0.62561,
-3.14484,0.706482,
-3.1601,0.704956,
-3.18146,0.657654,
-3.19672,0.592041,
-3.21808,0.631714,
-3.23334,0.709534,
-3.24249,0.701904,
-3.25317,0.653076,
-3.26385,0.590515,
-3.27759,0.631714,
-3.28979,0.706482,
-3.30353,0.709534,
-3.31879,0.639343,
-3.3371,0.598145,
-3.35388,0.627136,
-3.36609,0.708008,
-3.38135,0.70343,
-3.3905,0.653076,
-3.40576,0.593567,
-3.4256,0.619507,
-3.43628,0.709534,
-3.45001,0.70343,
-3.46527,0.672913,
-3.479,0.590515,
-3.49121,0.624084,
-3.50494,0.708008,
-3.52173,0.701904,
-3.53241,0.654602,
-3.5553,0.595093,
-3.5675,0.622559,
-3.58276,0.704956,
-3.60107,0.704956,
-3.62396,0.654602,
-3.63922,0.593567,
-3.66058,0.622559,
-3.67432,0.71106,
-3.69415,0.704956,
-3.71094,0.65155,
-3.73077,0.595093,
-3.75214,0.617981,
-3.77197,0.706482,
-3.78876,0.704956,
-3.80859,0.650024,
-3.83453,0.59967,
-3.85284,0.619507,
-3.86658,0.71106,
-3.87573,0.704956,
-3.88031,0.65155,
-3.88794,0.595093,
-3.87878,0.619507,
-3.86658,0.709534,
-3.84064,0.706482,
-3.80249,0.62561,
-3.75061,0.563049,
-3.66974,0.614929,
-3.58734,0.706482,
-3.48663,0.694275,
-3.3783,0.648499,
-3.2608,0.601196,
-3.13721,0.6073,
-2.99835,0.706482,
-2.85492,0.706482,
-2.70233,0.656128,
-2.5528,0.601196,
-2.38953,0.614929,
-2.23083,0.704956,
-2.07214,0.706482,
-1.9104,0.654602,
-1.74561,0.595093,
-1.59454,0.619507,
-1.44196,0.701904,
-1.30005,0.712585,
-1.1673,0.650024,
-1.04065,0.588989,
-0.927734,0.614929,
-0.813293,0.704956,
-0.714111,0.708008,
-0.613403,0.65155,
-0.535583,0.59967,
-0.462341,0.604248,
-0.393677,0.70343,
-0.32959,0.714111,
-0.27771,0.653076,
-0.231934,0.59967,
-0.19989,0.613403,
-0.167847,0.704956,
-0.14801,0.706482,
-0.128174,0.654602,
-0.119019,0.598145,
-0.119019,0.611877,
-0.120544,0.704956,
-0.126648,0.71106,
-0.137329,0.653076,
-0.15564,0.595093,
-0.17395,0.614929,
-0.198364,0.704956,
-0.221252,0.709534,
-0.248718,0.653076,
-0.280762,0.595093,
-0.315857,0.611877,
-0.35553,0.701904,
-0.396729,0.709534,
-0.437927,0.636292,
-0.483704,0.593567,
-0.52948,0.611877,
-0.57373,0.700378,
-0.622559,0.708008,
-0.674438,0.657654,
-0.726318,0.598145,
-0.779724,0.614929,
-0.834656,0.700378,
-0.87738,0.709534,
-0.923157,0.654602,
-0.968933,0.593567,
-1.01318,0.616455,
-1.0498,0.701904,
-1.0849,0.708008,
-1.12,0.657654,
-1.14899,0.598145,
-1.17493,0.613403,
-1.19476,0.700378,
-1.21307,0.695801,
-1.22986,0.610352,
-1.24664,0.595093,
-1.25427,0.616455,
-1.26648,0.700378,
-1.26801,0.708008,
-1.26801,0.654602,
-1.26648,0.592041,
-1.26343,0.614929,
-1.2558,0.71106,
-1.24817,0.712585,
-1.24359,0.65155,
-1.23138,0.593567,
-1.21918,0.613403,
-1.2085,0.692749,
-1.19629,0.708008,
-1.18103,0.671387,
-1.1673,0.608826,
-1.15814,0.627136,
-1.15051,0.698853,
-1.13831,0.715637,
-1.12762,0.657654,
-1.12152,0.598145,
-1.11542,0.616455,
-1.10931,0.688171,
-1.09863,0.71106,
-1.09406,0.640869,
-1.09253,0.59967,
-1.091,0.611877,
-1.09406,0.688171,
-1.09406,0.714111,
-1.09406,0.656128,
-1.10474,0.598145,
-1.10474,0.613403,
-1.11084,0.688171,
-1.12,0.712585,
-1.12915,0.656128,
-1.14746,0.592041,
-1.16272,0.613403,
-1.18408,0.686646,
-1.20087,0.714111,
-1.22375,0.653076,
-1.24817,0.598145,
-1.26801,0.613403,
-1.29242,0.665283,
-1.31683,0.715637,
-1.34277,0.657654,
-1.36871,0.59967,
-1.39465,0.613403,
-1.42822,0.683594,
-1.45569,0.715637,
-1.48926,0.662231,
-1.52588,0.59967,
-1.56097,0.59967,
-1.59912,0.689697,
-1.63422,0.715637,
-1.66779,0.656128,
-1.70288,0.6073,
-1.74103,0.660706,
-1.77307,0.68512,
-1.80206,0.71106,
-1.83411,0.640869,
-1.86462,0.604248,
-1.88904,0.621033,
-1.91956,0.680542,
-1.94702,0.718689,
-1.97601,0.653076,
-2.00348,0.604248,
-2.03247,0.611877,
-2.05536,0.701904,
-2.0813,0.727844,
-2.10876,0.656128,
-2.13318,0.605774,
-2.15759,0.619507,
-2.18201,0.680542,
-2.20947,0.720215,
-2.23389,0.656128,
-2.24609,0.601196,
-2.27051,0.619507,
-2.2934,0.682068,
-2.31476,0.720215,
-2.33459,0.656128,
-2.36053,0.6073,
-2.38037,0.619507,
-2.40173,0.682068,
-2.41852,0.720215,
-2.4292,0.657654,
-2.44751,0.602722,
-2.45667,0.619507,
-2.47192,0.682068,
-2.48871,0.720215,
-2.49939,0.656128,
-2.51617,0.604248,
-2.53601,0.619507,
-2.5528,0.680542,
-2.57111,0.718689,
-2.58789,0.654602,
-2.60468,0.605774,
-2.62299,0.622559,
-2.64282,0.675964,
-2.65198,0.724792,
-2.66571,0.656128,
-2.67792,0.614929,
-2.6947,0.622559,
-2.70386,0.67749,
-2.71912,0.724792,
-2.7298,0.65918,
-2.74048,0.590515,
-2.76337,0.62561,
-2.77863,0.674438,
-2.79694,0.720215,
-2.81219,0.656128,
-2.83203,0.608826,
-2.84729,0.62561,
-2.86102,0.675964,
-2.87476,0.735474,
-2.89001,0.654602,
-2.90375,0.610352,
-2.91901,0.62561,
-2.93121,0.674438,
-2.94952,0.721741,
-2.96783,0.660706,
-2.98309,0.622559,
-3.00446,0.643921,
-3.02277,0.656128,
-3.0426,0.778198,
-3.05786,0.654602,
-3.07617,0.613403,
-3.0899,0.62561,
-3.10822,0.683594,
-3.12347,0.724792,
-3.13873,0.665283,
-3.15857,0.614929,
-3.17535,0.631714,
-3.19061,0.674438,
-3.19519,0.723267,
-3.20129,0.65918,
-3.20435,0.613403,
-3.19977,0.628662,
-3.17841,0.674438,
-3.14636,0.721741,
-3.10211,0.657654,
-3.04718,0.616455,
-2.97852,0.63324,
-2.89459,0.672913,
-2.80304,0.717163,
-2.70233,0.65918,
-2.58636,0.616455,
-2.46887,0.631714,
-2.34222,0.683594,
-2.21252,0.718689,
-2.0752,0.657654,
-1.93787,0.614929,
-1.79901,0.636292,
-1.65405,0.671387,
-1.5152,0.715637,
-1.37329,0.679016,
-1.24054,0.619507,
-1.11389,0.636292,
-0.993347,0.672913,
-0.880432,0.724792,
-0.772095,0.660706,
-0.680542,0.621033,
-0.590515,0.636292,
-0.509644,0.671387,
-0.439453,0.718689,
-0.37384,0.65918,
-0.325012,0.619507,
-0.282288,0.636292,
-0.244141,0.669861,
-0.218201,0.718689,
-0.201416,0.657654,
-0.193787,0.593567,
-0.192261,0.640869,
-0.201416,0.669861,
-0.215149,0.715637,
-0.227356,0.662231,
-0.254822,0.621033,
-0.271606,0.645447,
-0.302124,0.682068,
-0.335693,0.718689,
-0.37384,0.662231,
-0.410461,0.621033,
-0.453186,0.642395,
-0.498962,0.668335,
-0.540161,0.714111,
-0.587463,0.642395,
-0.631714,0.619507,
-0.680542,0.640869,
-0.733948,0.668335,
-0.785828,0.717163,
-0.836182,0.662231,
-0.886536,0.622559,
-0.939941,0.645447,
-0.996399,0.668335,
-1.05133,0.715637,
-1.10474,0.660706,
-1.17035,0.619507,
-1.22375,0.642395,
-1.28632,0.668335,
-1.34277,0.715637,
-1.40076,0.665283,
-1.45569,0.621033,
-1.51215,0.643921,
-1.57013,0.65918,
-1.62048,0.714111,
-1.66931,0.65918,
-1.71356,0.627136,
-1.75476,0.645447,
-1.78528,0.665283,
-1.81885,0.715637,
-1.84326,0.662231,
-1.87073,0.62561,
-1.89362,0.646973,
-1.9104,0.668335,
-1.92261,0.715637,
-1.93176,0.660706,
-1.93787,0.628662,
-1.94397,0.656128,
-1.9455,0.666809,
-1.94244,0.714111,
-1.93176,0.675964,
-1.92719,0.624084,
-1.9165,0.642395,
-1.90735,0.666809,
-1.89514,0.715637,
-1.88141,0.662231,
-1.87378,0.62561,
-1.86462,0.646973,
-1.85089,0.665283,
-1.83716,0.680542,
-1.828,0.660706,
-1.81885,0.624084,
-1.80969,0.645447,
-1.80664,0.675964,
-1.80359,0.715637,
-1.80206,0.662231,
-1.80054,0.622559,
-1.80054,0.601196,
-1.79901,0.656128,
-1.79749,0.721741,
-1.80206,0.666809,
-1.80969,0.628662,
-1.8158,0.643921,
-1.828,0.662231,
-1.84326,0.717163,
-1.85547,0.674438,
-1.87378,0.628662,
-1.88904,0.643921,
-1.90277,0.668335,
-1.92413,0.712585,
-1.94855,0.668335,
-1.96686,0.617981,
-1.99127,0.642395,
-2.01263,0.662231,
-2.03552,0.712585,
-2.06451,0.666809,
-2.09198,0.622559,
-2.11945,0.645447,
-2.14691,0.665283,
-2.17743,0.715637,
-2.20642,0.666809,
-2.23846,0.631714,
-2.26288,0.639343,
-2.29797,0.660706,
-2.33002,0.714111,
-2.36206,0.668335,
-2.39258,0.628662,
-2.42004,0.642395,
-2.45361,0.666809,
-2.48566,0.714111,
-2.51617,0.662231,
-2.54822,0.627136,
-2.58331,0.642395,
-2.61993,0.674438,
-2.65045,0.717163,
-2.68555,0.666809,
-2.72064,0.63324,
-2.75269,0.643921,
-2.77863,0.666809,
-2.81372,0.714111,
-2.84271,0.67749,
-2.86865,0.627136,
-2.89917,0.643921,
-2.92969,0.662231,
-2.95868,0.71106,
-2.98767,0.668335,
-3.01666,0.631714,
-3.04871,0.636292,
-3.07617,0.666809,
-3.09906,0.71106,
-3.12347,0.666809,
-3.14789,0.62561,
-3.17078,0.643921,
-3.19672,0.665283,
-3.21655,0.712585,
-3.24097,0.672913,
-3.26233,0.627136,
-3.28522,0.634766,
-3.30505,0.662231,
-3.32336,0.714111,
-3.3432,0.675964,
-3.36151,0.62561,
-3.38287,0.634766,
-3.40576,0.669861,
-3.42255,0.71106,
-3.44238,0.67749,
-3.45764,0.628662,
-3.479,0.637817,
-3.49579,0.671387,
-3.5141,0.71106,
-3.53241,0.680542,
-3.55072,0.62561,
-3.56598,0.634766,
-3.58429,0.669861,
-3.59802,0.714111,
-3.61176,0.68512,
-3.63007,0.624084,
-3.64685,0.634766,
-3.66516,0.671387,
-3.68347,0.709534,
-3.69873,0.68512,
-3.71704,0.616455,
-3.73535,0.63324,
-3.75519,0.674438,
-3.77045,0.712585,
-3.79181,0.68512,
-3.81165,0.627136,
-3.8269,0.628662,
-3.84369,0.668335,
-3.86963,0.71106,
-3.88184,0.701904,
-3.90472,0.621033,
-3.93066,0.628662,
-3.9566,0.674438,
-3.97644,0.71106,
-3.99628,0.691223,
-4.01306,0.622559,
-4.03595,0.570679,
-4.05273,0.672913,
-4.07104,0.712585,
-4.08783,0.688171,
-4.10004,0.622559,
-4.11072,0.63324,
-4.11377,0.675964,
-4.11377,0.709534,
-4.10614,0.689697,
-4.08325,0.62561,
-4.05273,0.628662,
-4.00848,0.674438,
-3.9566,0.708008,
-3.88184,0.692749,
-3.80402,0.622559,
-3.71552,0.619507,
-3.61176,0.682068,
-3.49731,0.709534,
-3.37524,0.692749,
-3.24554,0.631714,
-3.11279,0.624084,
-2.97089,0.669861,
-2.82745,0.709534,
-2.68402,0.691223,
-2.53296,0.621033,
-2.388,0.613403,
-2.24915,0.674438,
-2.11182,0.71106,
-1.98364,0.70343,
-1.85852,0.624084,
-1.73645,0.63324,
-1.62964,0.669861,
-1.52435,0.706482,
-1.42365,0.704956,
-1.33209,0.611877,
-1.2558,0.624084,
-1.18561,0.662231,
-1.12,0.683594,
-1.06812,0.692749,
-1.01929,0.628662,
-0.985718,0.627136,
-0.952148,0.682068,
-0.924683,0.71106,
-0.906372,0.692749,
-0.901794,0.62561,
-0.895691,0.624084,
-0.898743,0.668335,
-0.900269,0.706482,
-0.909424,0.698853,
-0.926208,0.624084,
-0.944519,0.622559,
-0.970459,0.671387,
-0.991821,0.70343,
-1.02081,0.695801,
-1.05591,0.622559,
-1.09558,0.622559,
-1.13831,0.674438,
-1.18561,0.706482,
-1.22833,0.688171,
-1.27869,0.6073,
-1.32751,0.588989,
-1.38245,0.671387,
-1.43585,0.709534,
-1.49078,0.700378,
-1.55182,0.619507,
-1.6098,0.631714,
-1.67084,0.665283,
-1.73187,0.666809,
-1.78528,0.691223,
-1.85089,0.62561,
-1.90735,0.622559,
-1.96686,0.669861,
-2.02637,0.70343,
-2.08588,0.695801,
-2.13776,0.617981,
-2.18811,0.619507,
-2.23389,0.671387,
-2.27661,0.706482,
-2.31171,0.70343,
-2.3407,0.619507,
-2.37732,0.624084,
-2.40173,0.669861,
-2.42157,0.701904,
-2.43988,0.749207,
-2.45361,0.616455,
-2.45819,0.614929,
-2.46582,0.668335,
-2.46277,0.701904,
-2.45819,0.700378,
-2.45361,0.616455,
-2.44751,0.619507,
-2.4353,0.668335,
-2.4231,0.704956,
-2.40479,0.700378,
-2.388,0.616455,
-2.36969,0.617981,
-2.34985,0.668335,
-2.33307,0.70343,
-2.31018,0.701904,
-2.29187,0.613403,
-2.27814,0.610352,
-2.25983,0.674438,
-2.24304,0.70343,
-2.22473,0.701904,
-2.20947,0.613403,
-2.19421,0.617981,
-2.18353,0.668335,
-2.17438,0.706482,
-2.16522,0.701904,
-2.16064,0.62561,
-2.15607,0.614929,
-2.15302,0.671387,
-2.15302,0.70343,
-2.15149,0.704956,
-2.15454,0.619507,
-2.15912,0.611877,
-2.16827,0.669861,
-2.17438,0.70343,
-2.18964,0.700378,
-2.19727,0.617981,
-2.21405,0.616455,
-2.22931,0.666809,
-2.24915,0.704956,
-2.26288,0.692749,
-2.28424,0.617981,
-2.3056,0.614929,
-2.32544,0.666809,
-2.34985,0.70343,
-2.37122,0.700378,
-2.39868,0.619507,
-2.4231,0.614929,
-2.44904,0.668335,
-2.47498,0.70343,
-2.49939,0.70343,
-2.52838,0.619507,
-2.5589,0.613403,
-2.59247,0.668335,
-2.62146,0.700378,
-2.65198,0.691223,
-2.68402,0.627136,
-2.71149,0.624084,
-2.742,0.669861,
-2.76947,0.70343,
-2.79541,0.70343,
-2.82898,0.621033,
-2.86255,0.610352,
-2.89459,0.665283,
-2.92816,0.701904,
-2.95868,0.701904,
-2.98615,0.619507,
-3.01666,0.611877,
-3.04413,0.666809,
-3.06549,0.70343,
-3.09601,0.700378,
-3.12347,0.624084,
-3.14941,0.608826,
-3.17535,0.662231,
-3.19672,0.70343,
-3.22723,0.70343,
-3.25012,0.622559,
-3.27759,0.610352,
-3.30505,0.674438,
-3.32336,0.701904,
-3.35083,0.708008,
-3.37372,0.621033,
-3.39355,0.614929,
-3.41339,0.668335,
-3.43323,0.70343,
-3.45459,0.714111,
-3.47443,0.622559,
-3.49121,0.611877,
-3.51563,0.660706,
-3.53699,0.700378,
-3.5614,0.695801,
-3.58124,0.598145,
-3.60107,0.610352,
-3.62244,0.65918,
-3.64075,0.704956,
-3.65753,0.701904,
-3.67432,0.624084,
-3.6911,0.6073,
-3.71552,0.662231,
-3.73077,0.70343,
-3.74603,0.698853,
-3.76282,0.628662,
-3.78113,0.610352,
-3.79639,0.660706,
-3.81012,0.701904,
-3.83148,0.700378,
-3.84674,0.619507,
-3.86658,0.611877,
-3.88336,0.65918,
-3.89709,0.700378,
-3.91235,0.698853,
-3.92609,0.621033,
-3.93982,0.605774,
-3.95203,0.65918,
-3.96729,0.704956,
-3.98254,0.700378,
-3.9978,0.621033,
-4.01001,0.604248,
-4.01917,0.660706,
-4.0329,0.700378,
-4.03748,0.700378,
-4.039,0.621033,
-4.02985,0.601196,
-4.01764,0.660706,
-3.9917,0.704956,
-3.95203,0.695801,
-3.90167,0.634766,
-3.84369,0.58136,
-3.7796,0.662231,
-3.70331,0.704956,
-3.60718,0.695801,
-3.50342,0.616455,
-3.39355,0.604248,
-3.26843,0.660706,
-3.13568,0.706482,
-3.0014,0.694275,
-2.85797,0.616455,
-2.72064,0.6073,
-2.57416,0.660706,
-2.43225,0.704956,
-2.28424,0.698853,
-2.14996,0.621033,
-2.02026,0.605774,
-1.89362,0.660706,
-1.76697,0.704956,
-1.64642,0.692749,
-1.53198,0.610352,
-1.4328,0.608826,
-1.3382,0.65918,
-1.25732,0.701904,
-1.17645,0.692749,
-1.10779,0.622559,
-1.04828,0.608826,
-0.993347,0.65918,
-0.941467,0.706482,
-0.901794,0.692749,
-0.869751,0.621033,
-0.846863,0.608826,
-0.827026,0.657654,
-0.813293,0.701904,
-0.802612,0.692749,
-0.802612,0.617981,
-0.813293,0.605774,
-0.823975,0.657654,
-0.842285,0.704956,
-0.868225,0.700378,
-0.889587,0.636292,
-0.915527,0.608826,
-0.947571,0.671387,
-0.982666,0.701904,
-1.01471,0.695801,
-1.05286,0.622559,
-1.091,0.587463,
-1.13068,0.657654,
-1.17493,0.701904,
-1.22375,0.689697,
-1.26801,0.622559,
-1.31989,0.605774,
-1.37482,0.657654,
-1.43127,0.689697,
-1.49078,0.689697,
-1.55029,0.622559,
-1.61285,0.605774,
-1.66779,0.660706,
-1.72424,0.701904,
-1.7807,0.689697,
-1.83868,0.624084,
-1.88446,0.605774,
-1.94092,0.656128,
-1.98975,0.700378,
-2.03552,0.740051,
-2.07672,0.622559,
-2.12097,0.602722,
-2.15912,0.650024,
-2.19116,0.704956,
-2.21863,0.674438,
-2.24609,0.636292,
-2.2644,0.604248,
-2.27966,0.665283,
-2.29492,0.701904,
-2.3056,0.691223,
-2.31323,0.627136,
-2.31934,0.610352,
-2.31934,0.665283,
-2.31628,0.709534,
-2.31476,0.689697,
-2.30713,0.63324,
-2.2934,0.610352,
-2.27661,0.662231,
-2.25525,0.71106,
-2.23694,0.686646,
-2.2171,0.627136,
-2.19727,0.608826,
-2.18201,0.662231,
-2.1637,0.701904,
-2.14539,0.691223,
-2.12555,0.622559,
-2.10571,0.610352,
-2.0874,0.665283,
-2.07214,0.717163,
-2.05383,0.688171,
-2.0401,0.624084,
-2.02789,0.610352,
-2.02026,0.656128,
-2.01416,0.70343,
-2.00958,0.68512,
-2.00348,0.624084,
-2.00043,0.605774,
-2.00043,0.665283,
-2.00043,0.704956,
-2.005,0.682068,
-2.01569,0.62561,
-2.02179,0.6073,
-2.03247,0.672913,
-2.04315,0.70343,
-2.05536,0.686646,
-2.06909,0.624084,
-2.0874,0.671387,
-2.10724,0.665283,
-2.1286,0.704956,
-2.14691,0.679016,
-2.16064,0.627136,
-2.17896,0.611877,
-2.19879,0.67749,
-2.22321,0.706482,
-2.24762,0.67749,
-2.27661,0.621033,
-2.30255,0.610352,
-2.33459,0.666809,
-2.36664,0.70343,
-2.39716,0.674438,
-2.4231,0.621033,
-2.45514,0.610352,
-2.48108,0.662231,
-2.50549,0.704956,
-2.53143,0.671387,
-2.55585,0.617981,
-2.58636,0.613403,
-2.61841,0.665283,
-2.63977,0.708008,
-2.66724,0.674438,
-2.69623,0.621033,
-2.7298,0.613403,
-2.75726,0.666809,
-2.77863,0.704956,
-2.80762,0.674438,
-2.83203,0.622559,
-2.85187,0.614929,
-2.87933,0.662231,
-2.9068,0.706482,
-2.92816,0.672913,
-2.95563,0.627136,
-2.97699,0.617981,
-3.00293,0.674438,
-3.0304,0.758362,
-3.05634,0.674438,
-3.07617,0.62561,
-3.10364,0.613403,
-3.13416,0.665283,
-3.15247,0.70343,
-3.17535,0.672913,
-3.19519,0.62561,
-3.2196,0.613403,
-3.24554,0.662231,
-3.26385,0.706482,
-3.28827,0.674438,
-3.31116,0.617981,
-3.33405,0.611877,
-3.36151,0.657654,
-3.38135,0.683594,
-3.40576,0.675964,
-3.43018,0.621033,
-3.45154,0.613403,
-3.47137,0.666809,
-3.49121,0.708008,
-3.5141,0.674438,
-3.52936,0.585938,
-3.54614,0.613403,
-3.56293,0.669861,
-3.57971,0.708008,
-3.58887,0.675964,
-3.60565,0.622559,
-3.62549,0.616455,
-3.64075,0.668335,
-3.65601,0.708008,
-3.66669,0.672913,
-3.67126,0.624084,
-3.67432,0.616455,
-3.66669,0.666809,
-3.65448,0.71106,
-3.62549,0.671387,
-3.59344,0.619507,
-3.54767,0.617981,
-3.48816,0.668335,
-3.42102,0.708008,
-3.3371,0.675964,
-3.24097,0.617981,
-3.13873,0.617981,
-3.02734,0.666809,
-2.90527,0.71106,
-2.77863,0.668335,
-2.6535,0.614929,
-2.51617,0.619507,
-2.37732,0.665283,
-2.23846,0.712585,
-2.09503,0.675964,
-1.9577,0.617981,
-1.82495,0.619507,
-1.69373,0.666809,
-1.56555,0.71106,
-1.44958,0.660706,
-1.3382,0.619507,
-1.23444,0.621033,
-1.13983,0.675964,
-1.04675,0.714111,
-0.965881,0.717163,
-0.886536,0.627136,
-0.820923,0.624084,
-0.764465,0.662231,
-0.71106,0.715637,
-0.671387,0.657654,
-0.636292,0.619507,
-0.610352,0.621033,
-0.595093,0.665283,
-0.582886,0.715637,
-0.58136,0.666809,
-0.582886,0.617981,
-0.592041,0.611877,
-0.602722,0.65918,
-0.614929,0.718689,
-0.63324,0.662231,
-0.65918,0.614929,
-0.691223,0.617981,
-0.717163,0.666809,
-0.750732,0.717163,
-0.785828,0.669861,
-0.827026,0.614929,
-0.869751,0.621033,
-0.914001,0.668335,
-0.959778,0.720215,
-1.00708,0.671387,
-1.05286,0.614929,
-1.10168,0.622559,
-1.14899,0.669861,
-1.19476,0.723267,
-1.25122,0.662231,
-1.30463,0.613403,
-1.35956,0.621033,
-1.41602,0.665283,
-1.4679,0.721741,
-1.51978,0.669861,
-1.57166,0.619507,
-1.62048,0.610352,
-1.67084,0.666809,
-1.71356,0.718689,
-1.75476,0.671387,
-1.79138,0.614929,
-1.82648,0.619507,
-1.85394,0.665283,
-1.88446,0.70343,
-1.90887,0.671387,
-1.93329,0.613403,
-1.95618,0.621033,
-1.97601,0.666809,
-1.98975,0.720215,
-2.00348,0.675964,
-2.00806,0.613403,
-2.01569,0.62561,
-2.01874,0.671387,
-2.01874,0.718689,
-2.01569,0.67749,
-2.00195,0.611877,
-1.99127,0.619507,
-1.97906,0.668335,
-1.96686,0.723267,
-1.95007,0.683594,
-1.93634,0.611877,
-1.91345,0.619507,
-1.90125,0.665283,
-1.88446,0.715637,
-1.86462,0.680542,
-1.85089,0.624084,
-1.84021,0.640869,
-1.83105,0.669861,
-1.8158,0.720215,
-1.80511,0.683594,
-1.79596,0.611877,
-1.78375,0.614929,
-1.77917,0.662231,
-1.77307,0.721741,
-1.77612,0.695801,
-1.7746,0.617981,
-1.77765,0.611877,
-1.78986,0.666809,
-1.79749,0.727844,
-1.80359,0.688171,
-1.81122,0.601196,
-1.82953,0.622559,
-1.84326,0.668335,
-1.86005,0.730896,
-1.87683,0.691223,
-1.89667,0.611877,
-1.9165,0.622559,
-1.94092,0.672913,
-1.96533,0.726318,
-1.98669,0.691223,
-2.01569,0.614929,
-2.04468,0.622559,
-2.07367,0.671387,
-2.10266,0.732422,
-2.12555,0.689697,
-2.15454,0.611877,
-2.18353,0.611877,
-2.21252,0.666809,
-2.24152,0.730896,
-2.27356,0.691223,
-2.30103,0.616455,
-2.33612,0.62561,
-2.36664,0.671387,
-2.3941,0.712585,
-2.4231,0.692749,
-2.45667,0.6073,
-2.48871,0.624084,
-2.51923,0.668335,
-2.54669,0.727844,
-2.57111,0.695801,
-2.59705,0.613403,
-2.62146,0.62561,
-2.65045,0.67749,
-2.67487,0.726318,
-2.70233,0.712585,
-2.73132,0.621033,
-2.75574,0.680542,
-2.78015,0.654602,
-2.80151,0.737,
-2.82745,0.70343,
-2.84882,0.619507,
-2.8717,0.628662,
-2.89307,0.671387,
-2.91138,0.715637,
-2.93884,0.657654,
-2.96173,0.598145,
-2.98615,0.613403,
-3.00598,0.672913,
-3.02429,0.732422,
-3.04413,0.695801,
-3.06549,0.598145,
-3.0838,0.621033,
-3.10059,0.672913,
-3.125,0.746155,
-3.14941,0.701904,
-3.16925,0.614929,
-3.18756,0.619507,
-3.2074,0.666809,
-3.22418,0.733948,
-3.24707,0.692749,
-3.26843,0.610352,
-3.28674,0.616455,
-3.30811,0.674438,
-3.32489,0.730896,
-3.34473,0.708008,
-3.36151,0.613403,
-3.37982,0.617981,
-3.39813,0.666809,
-3.41949,0.732422,
-3.43475,0.704956,
-3.45306,0.610352,
-3.47443,0.616455,
-3.48816,0.668335,
-3.49884,0.732422,
-3.51715,0.706482,
-3.53088,0.610352,
-3.54614,0.611877,
-3.55377,0.666809,
-3.54919,0.733948,
-3.53851,0.706482,
-3.52325,0.616455,
-3.49426,0.611877,
-3.45764,0.668335,
-3.41034,0.732422,
-3.34625,0.70343,
-3.27148,0.6073,
-3.18756,0.601196,
-3.09753,0.671387,
-2.98615,0.726318,
-2.8717,0.71106,
-2.74506,0.614929,
-2.61688,0.610352,
-2.48108,0.668335,
-2.34833,0.723267,
-2.20642,0.698853,
-2.07214,0.616455,
-1.93481,0.6073,
-1.80206,0.675964,
-1.66473,0.732422,
-1.53503,0.715637,
-1.41296,0.636292,
-1.29547,0.608826,
-1.18866,0.669861,
-1.08337,0.730896,
-0.990295,0.71106,
-0.901794,0.614929,
-0.816345,0.6073,
-0.741577,0.657654,
-0.671387,0.727844,
-0.616455,0.727844,
-0.566101,0.610352,
-0.523376,0.6073,
-0.488281,0.657654,
-0.462341,0.723267,
-0.444031,0.712585,
-0.430298,0.614929,
-0.422668,0.605774,
-0.419617,0.660706,
-0.421143,0.726318,
-0.42572,0.714111,
-0.436401,0.613403,
-0.453186,0.610352,
-0.468445,0.666809,
-0.491333,0.723267,
-0.517273,0.718689,
-0.543213,0.619507,
-0.572205,0.608826,
-0.59967,0.666809,
-0.631714,0.732422,
-0.668335,0.712585,
-0.697327,0.621033,
-0.738525,0.610352,
-0.773621,0.666809,
-0.817871,0.718689,
-0.865173,0.71106,
-0.909424,0.616455,
-0.958252,0.605774,
-1.01013,0.65918,
-1.05133,0.720215,
-1.10321,0.71106,
-1.15051,0.617981,
-1.19476,0.567627,
-1.24054,0.665283,
-1.28021,0.720215,
-1.32446,0.715637,
-1.35956,0.613403,
-1.39923,0.605774,
-1.42975,0.668335,
-1.46027,0.759888,
-1.48926,0.732422,
-1.51978,0.619507,
-1.53961,0.602722,
-1.5625,0.660706,
-1.57928,0.727844,
-1.58691,0.715637,
-1.6037,0.624084,
-1.6098,0.602722,
-1.62048,0.665283,
-1.62048,0.723267,
-1.62048,0.712585,
-1.62201,0.63324,
-1.61896,0.604248,
-1.61438,0.669861,
-1.60828,0.721741,
-1.60217,0.714111,
-1.59149,0.62561,
-1.58081,0.614929,
-1.57166,0.666809,
-1.5564,0.718689,
-1.53961,0.71106,
-1.53656,0.62561,
-1.52893,0.598145,
-1.5213,0.669861,
-1.5152,0.720215,
-1.50604,0.712585,
-1.50299,0.604248,
-1.49841,0.59967,
-1.49994,0.666809,
-1.50146,0.717163,
-1.49841,0.709534,
-1.49536,0.62561,
-1.49994,0.604248,
-1.50604,0.680542,
-1.51062,0.701904,
-1.5213,0.727844,
-1.53198,0.63324,
-1.53961,0.601196,
-1.54877,0.671387,
-1.56097,0.715637,
-1.56708,0.709534,
-1.57928,0.627136,
-1.59149,0.601196,
-1.6037,0.662231,
-1.62354,0.712585,
-1.63574,0.704956,
-1.65405,0.628662,
-1.67084,0.595093,
-1.69067,0.662231,
-1.70746,0.708008,
-1.7334,0.701904,
-1.76392,0.645447,
-1.79138,0.6073,
-1.81885,0.723267,
-1.84784,0.708008,
-1.87378,0.71106,
-1.90582,0.631714,
-1.93939,0.590515,
-1.96838,0.660706,
-1.99738,0.709534,
-2.02179,0.70343,
-2.05231,0.636292,
-2.07977,0.593567,
-2.10571,0.65918,
-2.13623,0.709534,
-2.16827,0.704956,
-2.19879,0.634766,
-2.23236,0.601196,
-2.26135,0.666809,
-2.29034,0.714111,
-2.32086,0.706482,
-2.34985,0.640869,
-2.37732,0.610352,
-2.40479,0.666809,
-2.43073,0.706482,
-2.45667,0.700378,
-2.48718,0.639343,
-2.50854,0.595093,
-2.52686,0.650024,
-2.55127,0.715637,
-2.57111,0.70343,
-2.59857,0.639343,
-2.61536,0.601196,
-2.64435,0.665283,
-2.66266,0.752258,
-2.68402,0.657654,
-2.70081,0.640869,
-2.71759,0.593567,
-2.73285,0.657654,
-2.74658,0.700378,
-2.76489,0.698853,
-2.7771,0.643921,
-2.78931,0.592041,
-2.80304,0.662231,
-2.8183,0.708008,
-2.83661,0.689697,
-2.84882,0.634766,
-2.86713,0.588989,
-2.88391,0.67749,
-2.89917,0.700378,
-2.91595,0.689697,
-2.93427,0.643921,
-2.95563,0.593567,
-2.97089,0.666809,
-2.99072,0.701904,
-3.0014,0.692749,
-3.01819,0.645447,
-3.0365,0.593567,
-3.05176,0.657654,
-3.06702,0.700378,
-3.08685,0.668335,
-3.11279,0.642395,
-3.12805,0.6073,
-3.15247,0.657654,
-3.17078,0.694275,
-3.18756,0.689697,
-3.2074,0.643921,
-3.22723,0.575256,
-3.24249,0.662231,
-3.25928,0.695801,
-3.27606,0.682068,
-3.28827,0.642395,
-3.29132,0.592041,
-3.30353,0.660706,
-3.29895,0.695801,
-3.29132,0.683594,
-3.27301,0.646973,
-3.2486,0.593567,
-3.21198,0.665283,
-3.1662,0.694275,
-3.11279,0.682068,
-3.04108,0.657654,
-2.96173,0.592041,
-2.87781,0.656128,
-2.78625,0.694275,
-2.68402,0.680542,
-2.57263,0.645447,
-2.45667,0.593567,
-2.33612,0.65918,
-2.21252,0.701904,
-2.08588,0.691223,
-1.96838,0.648499,
-1.84784,0.595093,
-1.72729,0.657654,
-1.60675,0.691223,
-1.49078,0.637817,
-1.38397,0.643921,
-1.28021,0.604248,
-1.18713,0.645447,
-1.09558,0.694275,
-1.01471,0.680542,
-0.938416,0.65155,
-0.866699,0.59967,
-0.802612,0.657654,
-0.743103,0.689697,
-0.694275,0.675964,
-0.65155,0.650024,
-0.616455,0.602722,
-0.592041,0.662231,
-0.569153,0.692749,
-0.55542,0.67749,
-0.543213,0.65918,
-0.538635,0.601196,
-0.537109,0.654602,
-0.543213,0.704956,
-0.55542,0.679016,
-0.564575,0.650024,
-0.579834,0.598145,
-0.598145,0.650024,
-0.622559,0.686646,
-0.640869,0.672913,
-0.665283,0.619507,
-0.691223,0.59967,
-0.721741,0.654602,
-0.752258,0.671387,
-0.787354,0.67749,
-0.822449,0.648499,
-0.85907,0.601196,
-0.90332,0.653076,
-0.939941,0.686646,
-0.979614,0.674438,
-1.02081,0.646973,
-1.06201,0.598145,
-1.10474,0.65155,
-1.14594,0.683594,
-1.18408,0.669861,
-1.22223,0.65155,
-1.2619,0.598145,
-1.30463,0.650024,
-1.34583,0.683594,
-1.38092,0.672913,
-1.42059,0.646973,
-1.45264,0.598145,
-1.48163,0.650024,
-1.50757,0.706482,
-1.53198,0.682068,
-1.55029,0.643921,
-1.56403,0.598145,
-1.57471,0.650024,
-1.58081,0.679016,
-1.58386,0.656128,
-1.58844,0.645447,
-1.58691,0.601196,
-1.58691,0.648499,
-1.58691,0.682068,
-1.57776,0.671387,
-1.57623,0.621033,
-1.57166,0.585938,
-1.56403,0.653076,
-1.55334,0.679016,
-1.54266,0.669861,
-1.53351,0.643921,
-1.52435,0.619507,
-1.51672,0.645447,
-1.50299,0.749207,
-1.49384,0.674438,
-1.48468,0.646973,
-1.474,0.598145,
-1.46484,0.645447,
-1.46027,0.683594,
-1.45264,0.675964,
-1.44806,0.642395,
-1.44196,0.598145,
-1.44653,0.645447,
-1.44653,0.683594,
-1.44653,0.668335,
-1.44806,0.656128,
-1.45569,0.598145,
-1.45721,0.646973,
-1.45721,0.679016,
-1.46637,0.666809,
-1.47095,0.640869,
-1.48163,0.598145,
-1.49689,0.614929,
-1.50909,0.683594,
-1.52588,0.672913,
-1.54266,0.645447,
-1.56708,0.595093,
-1.58997,0.639343,
-1.6098,0.682068,
-1.63422,0.67749,
-1.66016,0.646973,
-1.68304,0.595093,
-1.71356,0.639343,
-1.73798,0.682068,
-1.76239,0.726318,
-1.79138,0.640869,
-1.8219,0.604248,
-1.85089,0.640869,
-1.87531,0.679016,
-1.90277,0.660706,
-1.93634,0.642395,
-1.96381,0.598145,
-1.9928,0.636292,
-2.03094,0.680542,
-2.05688,0.679016,
-2.08893,0.645447,
-2.11945,0.582886,
-2.14844,0.636292,
-2.17896,0.680542,
-2.20947,0.683594,
-2.24152,0.643921,
-2.27203,0.6073,
-2.29797,0.628662,
-2.32391,0.682068,
-2.35443,0.682068,
-2.38495,0.640869,
-2.40936,0.59967,
-2.4353,0.631714,
-2.46124,0.680542,
-2.48108,0.679016,
-2.50092,0.640869,
-2.52228,0.598145,
-2.54669,0.639343,
-2.56805,0.686646,
-2.59094,0.683594,
-2.6123,0.642395,
-2.63672,0.605774,
-2.66266,0.631714,
-2.6886,0.689697,
-2.70996,0.68512,
-2.72675,0.640869,
-2.74506,0.587463,
-2.76337,0.627136,
-2.78625,0.683594,
-2.80151,0.68512,
-2.81525,0.642395,
-2.83508,0.59967,
-2.84729,0.621033,
-2.86865,0.686646,
-2.88239,0.68512,
-2.89917,0.634766,
-2.90985,0.682068,
-2.92358,0.621033,
-2.93732,0.679016,
-2.94952,0.68512,
-2.96326,0.645447,
-2.97241,0.602722,
-2.98615,0.621033,
-2.99683,0.682068,
-3.01208,0.686646,
-3.02429,0.645447,
-3.03955,0.601196,
-3.05634,0.619507,
-3.06854,0.680542,
-3.08533,0.691223,
-3.09753,0.642395,
-3.11432,0.605774,
-3.12653,0.614929,
-3.14026,0.683594,
-3.15247,0.691223,
-3.16772,0.637817,
-3.18756,0.601196,
-3.2074,0.605774,
-3.22418,0.680542,
-3.23944,0.689697,
-3.25928,0.653076,
-3.28217,0.616455,
-3.302,0.621033,
-3.31879,0.680542,
-3.33099,0.691223,
-3.35083,0.642395,
-3.37372,0.605774,
-3.3905,0.617981,
-3.41187,0.68512,
-3.4317,0.701904,
-3.45764,0.637817,
-3.48053,0.6073,
-3.49884,0.616455,
-3.51715,0.680542,
-3.53394,0.692749,
-3.54614,0.639343,
-3.55835,0.605774,
-3.57208,0.616455,
-3.57971,0.674438,
-3.58124,0.692749,
-3.57513,0.643921,
-3.56445,0.601196,
-3.54462,0.616455,
-3.51715,0.683594,
-3.47595,0.691223,
-3.42865,0.639343,
-3.36304,0.621033,
-3.28674,0.614929,
-3.20129,0.694275,
-3.10516,0.695801,
-3.00446,0.639343,
-2.89307,0.605774,
-2.7771,0.619507,
-2.66113,0.688171,
-2.53754,0.692749,
-2.41394,0.65155,
-2.29034,0.585938,
-2.16522,0.610352,
-2.03705,0.683594,
-1.91345,0.694275,
-1.79749,0.639343,
-1.68152,0.662231,
-1.57471,0.587463,
-1.46637,0.688171,
-1.36719,0.692749,
-1.28174,0.639343,
-1.19629,0.605774,
-1.1261,0.608826,
-1.05743,0.688171,
-1.00098,0.691223,
-0.950623,0.639343,
-0.907898,0.582886,
-0.871277,0.613403,
-0.842285,0.689697,
-0.813293,0.692749,
-0.798035,0.637817,
-0.782776,0.611877,
-0.772095,0.611877,
-0.772095,0.675964,
-0.773621,0.679016,
-0.775146,0.642395,
-0.785828,0.604248,
-0.799561,0.611877,
-0.811768,0.744629,
-0.831604,0.692749,
-0.849915,0.639343,
-0.880432,0.621033,
-0.906372,0.616455,
-0.933838,0.686646,
-0.965881,0.694275,
-0.999451,0.639343,
-1.03607,0.616455,
-1.06506,0.610352,
-1.09558,0.68512,
-1.13373,0.694275,
-1.17188,0.639343,
-1.21155,0.602722,
-1.25275,0.611877,
-1.29395,0.68512,
-1.3382,0.694275,
-1.38855,0.639343,
-1.42822,0.605774,
-1.4679,0.613403,
-1.50452,0.694275,
-1.53961,0.701904,
-1.57928,0.643921,
-1.6037,0.610352,
-1.63574,0.616455,
-1.66016,0.688171,
-1.68762,0.700378,
-1.70593,0.643921,
-1.72577,0.605774,
-1.7334,0.611877,
-1.74866,0.68512,
-1.75934,0.695801,
-1.76849,0.643921,
-1.77612,0.604248,
-1.78986,0.611877,
-1.79138,0.686646,
-1.79291,0.701904,
-1.79291,0.646973,
-1.78528,0.613403,
-1.78223,0.627136,
-1.7746,0.686646,
-1.76392,0.698853,
-1.75629,0.645447,
-1.74713,0.59967,
-1.73492,0.578308,
-1.72424,0.669861,
-1.71204,0.700378,
-1.69983,0.642395,
-1.69373,0.611877,
-1.6861,0.611877,
-1.67999,0.698853,
-1.67084,0.718689,
-1.66626,0.688171,
-1.66473,0.587463,
-1.66779,0.617981,
-1.67542,0.688171,
-1.67847,0.701904,
-1.67999,0.648499,
-1.68152,0.604248,
-1.6922,0.610352,
-1.69983,0.683594,
-1.70898,0.701904,
-1.71814,0.646973,
-1.72882,0.605774,
-1.74255,0.610352,
-1.75629,0.68512,
-1.76849,0.71106,
-1.78986,0.643921,
-1.80511,0.605774,
-1.828,0.608826,
-1.84784,0.692749,
-1.87073,0.70343,
-1.89514,0.650024,
-1.91956,0.604248,
-1.94244,0.608826,
-1.96533,0.68512,
-1.98669,0.70343,
-2.00806,0.646973,
-2.03552,0.6073,
-2.05994,0.613403,
-2.0874,0.665283,
-2.11487,0.695801,
-2.13776,0.643921,
-2.1698,0.604248,
-2.19574,0.611877,
-2.22015,0.688171,
-2.24762,0.70343,
-2.27661,0.650024,
-2.30103,0.59967,
-2.32544,0.611877,
-2.35138,0.68512,
-2.37427,0.706482,
-2.40021,0.650024,
-2.41852,0.588989,
-2.44751,0.621033,
-2.46582,0.686646,
-2.49329,0.704956,
-2.51923,0.65155,
-2.54059,0.602722,
-2.56348,0.614929,
-2.58636,0.691223,
-2.60773,0.70343,
-2.63062,0.648499,
-2.65656,0.601196,
-2.67639,0.611877,
-2.70081,0.683594,
-2.72064,0.704956,
-2.74658,0.640869,
-2.76489,0.604248,
-2.78778,0.617981,
-2.80914,0.688171,
-2.83203,0.706482,
-2.85187,0.650024,
-2.87323,0.601196,
-2.89612,0.614929,
-2.90985,0.686646,
-2.93121,0.704956,
-2.94952,0.650024,
-2.97089,0.605774,
-2.98767,0.613403,
-3.00903,0.686646,
-3.03192,0.704956,
-3.04718,0.650024,
-3.06702,0.604248,
-3.08685,0.611877,
-3.10669,0.686646,
-3.12347,0.70343,
-3.14178,0.650024,
-3.16467,0.602722,
-3.18298,0.617981,
-3.20129,0.68512,
-3.2135,0.704956,
-3.22876,0.650024,
-3.2486,0.593567,
-3.26233,0.617981,
-3.27148,0.68512,
-3.28217,0.701904,
-3.29132,0.648499,
-3.30353,0.611877,
-3.31573,0.613403,
-3.32794,0.694275,
-3.3371,0.701904,
-3.35083,0.648499,
-3.35999,0.602722,
-3.37372,0.614929,
-3.38593,0.665283,
-3.39355,0.701904,
-3.40576,0.654602,
-3.41644,0.613403,
-3.42255,0.616455,
-3.43323,0.688171,
-3.44238,0.701904,
-3.45154,0.654602,
-3.4668,0.601196,
-3.48206,0.621033,
-3.49884,0.686646,
-3.51715,0.701904,
-3.53699,0.650024,
-3.55835,0.604248,
-3.57971,0.617981,
-3.59802,0.683594,
-3.61938,0.694275,
-3.63464,0.646973,
-3.65601,0.601196,
-3.67737,0.613403,
-3.69568,0.686646,
-3.72009,0.709534,
-3.74146,0.646973,
-3.76129,0.601196,
-3.78876,0.617981,
-3.80554,0.68512,
-3.82996,0.714111,
-3.84674,0.645447,
-3.87115,0.601196,
-3.88794,0.624084,
-3.90625,0.680542,
-3.92151,0.701904,
-3.92914,0.656128,
-3.93677,0.579834,
-3.94287,0.614929,
-3.93524,0.683594,
-3.91693,0.701904,
-3.89862,0.640869,
-3.86353,0.604248,
-3.8208,0.616455,
-3.75824,0.682068,
-3.68652,0.698853,
-3.6026,0.646973,
-3.5141,0.598145,
-3.41949,0.605774,
-3.31421,0.686646,
-3.20282,0.695801,
-3.0777,0.650024,
-2.95258,0.601196,
-2.8244,0.622559,
-2.6947,0.686646,
-2.56653,0.70343,
-2.4353,0.645447,
-2.30865,0.605774,
-2.18201,0.622559,
-2.05231,0.68512,
-1.93329,0.704956,
-1.82495,0.645447,
-1.71814,0.604248,
-1.6098,0.627136,
-1.51672,0.682068,
-1.4267,0.70343,
-1.3443,0.643921,
-1.26953,0.604248,
-1.20239,0.624084,
-1.14746,0.68512,
-1.09711,0.704956,
-1.05438,0.643921,
-1.01624,0.601196,
-0.987244,0.62561,
-0.967407,0.683594,
-0.952148,0.700378,
-0.949097,0.642395,
-0.952148,0.602722,
-0.965881,0.624084,
-0.970459,0.683594,
-0.987244,0.701904,
-1.00708,0.646973,
-1.02539,0.59967,
-1.05133,0.628662,
-1.07574,0.683594,
-1.10626,0.70343,
-1.13678,0.640869,
-1.16272,0.601196,
-1.19781,0.628662,
-1.23291,0.688171,
-1.26495,0.70343,
-1.29852,0.643921,
-1.3382,0.601196,
-1.38092,0.634766,
-1.41907,0.683594,
-1.45569,0.70343,
-1.49994,0.643921,
-1.54114,0.598145,
-1.58691,0.634766,
-1.62964,0.688171,
-1.67084,0.701904,
-1.71204,0.645447,
-1.75476,0.605774,
-1.78986,0.637817,
-1.8219,0.686646,
-1.85242,0.70343,
-1.88751,0.642395,
-1.9165,0.601196,
-1.94244,0.639343,
-1.96381,0.683594,
-1.98059,0.706482,
-1.9989,0.637817,
-2.01263,0.59967,
-2.02179,0.637817,
-2.02484,0.68512,
-2.03247,0.686646,
-2.034,0.613403,
-2.03247,0.569153,
-2.03094,0.63324,
-2.02026,0.666809,
-2.01416,0.706482,
-2.00195,0.639343,
-1.98822,0.601196,
-1.97601,0.65918,
-1.9577,0.68512,
-1.94855,0.67749,
-1.93481,0.640869,
-1.92261,0.604248,
-1.9104,0.63324,
-1.90125,0.680542,
-1.88446,0.70343,
-1.86615,0.639343,
-1.85852,0.602722,
-1.85089,0.628662,
-1.84326,0.680542,
-1.83868,0.695801,
-1.83563,0.640869,
-1.82495,0.588989,
-1.82037,0.627136,
-1.81274,0.67749,
-1.80664,0.695801,
-1.80817,0.640869,
-1.80817,0.595093,
-1.80969,0.628662,
-1.8158,0.682068,
-1.82495,0.704956,
-1.83258,0.639343,
-1.84479,0.604248,
-1.86157,0.636292,
-1.87378,0.691223,
-1.88141,0.700378,
-1.90125,0.637817,
-1.91498,0.598145,
-1.93939,0.640869,
-1.96228,0.648499,
-1.98212,0.708008,
-2.00348,0.627136,
-2.03094,0.590515,
-2.05078,0.631714,
-2.07825,0.680542,
-2.10724,0.694275,
-2.1347,0.640869,
-2.16827,0.590515,
-2.19421,0.63324,
-2.21863,0.683594,
-2.24457,0.68512,
-2.27356,0.637817,
-2.2934,0.592041,
-2.32086,0.634766,
-2.35138,0.666809,
-2.37122,0.695801,
-2.39563,0.642395,
-2.42462,0.588989,
-2.45056,0.636292,
-2.47345,0.683594,
-2.50549,0.689697,
-2.52686,0.634766,
-2.55585,0.588989,
-2.58026,0.639343,
-2.60162,0.682068,
-2.62604,0.689697,
-2.65198,0.639343,
-2.67334,0.588989,
-2.69623,0.640869,
-2.71301,0.682068,
-2.73285,0.688171,
-2.75574,0.639343,
-2.7771,0.587463,
-2.79999,0.640869,
-2.82288,0.686646,
-2.83966,0.689697,
-2.86102,0.637817,
-2.88086,0.587463,
-2.90222,0.637817,
-2.92358,0.68512,
-2.94342,0.688171,
-2.96173,0.639343,
-2.97699,0.579834,
-2.99377,0.639343,
-3.00598,0.686646,
-3.02734,0.688171,
-3.04108,0.639343,
-3.05481,0.582886,
-3.07007,0.639343,
-3.08228,0.68512,
-3.09601,0.691223,
-3.11127,0.637817,
-3.12805,0.624084,
-3.14636,0.622559,
-3.1601,0.683594,
-3.17535,0.686646,
-3.19061,0.631714,
-3.20435,0.584412,
-3.2135,0.637817,
-3.22571,0.686646,
-3.23486,0.686646,
-3.24249,0.639343,
-3.25012,0.582886,
-3.2608,0.636292,
-3.26996,0.686646,
-3.28217,0.686646,
-3.2959,0.637817,
-3.31116,0.582886,
-3.32489,0.63324,
-3.34015,0.686646,
-3.35083,0.688171,
-3.36304,0.636292,
-3.38135,0.578308,
-3.39508,0.631714,
-3.41644,0.686646,
-3.42865,0.68512,
-3.44391,0.634766,
-3.46375,0.584412,
-3.47748,0.636292,
-3.49731,0.686646,
-3.51105,0.683594,
-3.52325,0.645447,
-3.54462,0.587463,
-3.5675,0.63324,
-3.58734,0.686646,
-3.60413,0.686646,
-3.63007,0.642395,
-3.65143,0.572205,
-3.67126,0.627136,
-3.68652,0.686646,
-3.70636,0.688171,
-3.72925,0.636292,
-3.75214,0.585938,
-3.77045,0.62561,
-3.78876,0.686646,
-3.80402,0.682068,
-3.82843,0.636292,
-3.84064,0.58136,
-3.8559,0.619507,
-3.86353,0.689697,
-3.8681,0.686646,
-3.86658,0.634766,
-3.85284,0.579834,
-3.83453,0.619507,
-3.80249,0.68512,
-3.75977,0.686646,
-3.70483,0.640869,
-3.64685,0.584412,
-3.57208,0.621033,
-3.48663,0.68512,
-3.39355,0.683594,
-3.28979,0.640869,
-3.18146,0.579834,
-3.06702,0.621033,
-2.94495,0.701904,
-2.82593,0.683594,
-2.69623,0.634766,
-2.56653,0.58136,
-2.44293,0.616455,
-2.31781,0.680542,
-2.19421,0.675964,
-2.07977,0.622559,
-1.96686,0.579834,
-1.85394,0.613403,
-1.74866,0.683594,
-1.64795,0.68512,
-1.56097,0.636292,
-1.47552,0.578308,
-1.40228,0.611877,
-1.33362,0.683594,
-1.26801,0.682068,
-1.2146,0.63324,
-1.16577,0.57373,
-1.12457,0.611877,
-1.09406,0.682068,
-1.06964,0.680542,
-1.0498,0.636292,
-1.03912,0.57373,
-1.02997,0.593567,
-1.02692,0.680542,
-1.02844,0.65918,
-1.04065,0.642395,
-1.05286,0.569153,
-1.07422,0.616455,
-1.09558,0.68512,
-1.11847,0.674438,
-1.14288,0.634766,
-1.17035,0.588989,
-1.19781,0.602722,
-1.22528,0.683594,
-1.2558,0.682068,
-1.28479,0.636292,
-1.31836,0.57373,
-1.35498,0.598145,
-1.3916,0.650024,
-1.4328,0.682068,
-1.48163,0.631714,
-1.5274,0.570679,
-1.57318,0.602722,
-1.62201,0.680542,
-1.67084,0.679016,
-1.71509,0.63324,
-1.76392,0.575256,
-1.80817,0.608826,
-1.84937,0.682068,
-1.88904,0.680542,
-1.92108,0.636292,
-1.95618,0.566101,
-1.98364,0.602722,
-2.00653,0.680542,
-2.02637,0.680542,
-2.0462,0.634766,
-2.06604,0.572205,
-2.0874,0.598145,
-2.10114,0.682068,
-2.10724,0.683594,
-2.11334,0.627136,
-2.11639,0.572205,
-2.11639,0.608826,
-2.11487,0.683594,
-2.11029,0.680542,
-2.10266,0.627136,
-2.09503,0.567627,
-2.0874,0.595093,
-2.07825,0.683594,
-2.06604,0.682068,
-2.04926,0.628662,
-2.03705,0.561523,
-2.01569,0.595093,
-2.00195,0.680542,
-1.98822,0.688171,
-1.97601,0.634766,
-1.96533,0.567627,
-1.95618,0.593567,
-1.94244,0.683594,
-1.93329,0.683594,
-1.92413,0.627136,
-1.91498,0.570679,
-1.90582,0.592041,
-1.90125,0.669861,
-1.89056,0.653076,
-1.88751,0.611877,
-1.89056,0.57373,
-1.88904,0.590515,
-1.89362,0.682068,
-1.89972,0.686646,
-1.90277,0.642395,
-1.90735,0.601196,
-1.91193,0.6073,
-1.91803,0.672913,
-1.92261,0.68512,
-1.93787,0.642395,
-1.95007,0.57373,
-1.9577,0.590515,
-1.97144,0.679016,
-1.98517,0.688171,
-1.99738,0.636292,
-2.01721,0.575256,
-2.03705,0.593567,
-2.05841,0.675964,
-2.0752,0.691223,
-2.09656,0.63324,
-2.11792,0.572205,
-2.14081,0.590515,
-2.16522,0.674438,
-2.19116,0.688171,
-2.21863,0.631714,
-2.24457,0.57373,
-2.27356,0.593567,
-2.30103,0.671387,
-2.32697,0.68512,
-2.35901,0.643921,
-2.38495,0.57373,
-2.40936,0.592041,
-2.43835,0.679016,
-2.46582,0.68512,
-2.49481,0.62561,
-2.52228,0.57373,
-2.55432,0.590515,
-2.58331,0.645447,
-2.60773,0.688171,
-2.63824,0.636292,
-2.67029,0.575256,
-2.69623,0.592041,
-2.71301,0.672913,
-2.73438,0.686646,
-2.76184,0.640869,
-2.7832,0.57373,
-2.80762,0.593567,
-2.83203,0.672913,
-2.85187,0.688171,
-2.87628,0.63324,
-2.89307,0.570679,
-2.91595,0.592041,
-2.93579,0.674438,
-2.95258,0.68512,
-2.96478,0.63324,
-2.98157,0.569153,
-3.00598,0.590515,
-3.02429,0.666809,
-3.03955,0.68512,
-3.05786,0.628662,
-3.08075,0.575256,
-3.10211,0.585938,
-3.11584,0.665283,
-3.13416,0.689697,
-3.15247,0.643921,
-3.1662,0.576782,
-3.18146,0.582886,
-3.19366,0.665283,
-3.20435,0.688171,
-3.21655,0.643921,
-3.22266,0.584412,
-3.23639,0.590515,
-3.2486,0.665283,
-3.25775,0.688171,
-3.26385,0.628662,
-3.27454,0.578308,
-3.28522,0.567627,
-3.29437,0.662231,
-3.302,0.691223,
-3.31268,0.590515,
-3.32031,0.576782,
-3.33099,0.592041,
-3.34473,0.665283,
-3.35388,0.689697,
-3.36761,0.628662,
-3.3844,0.575256,
-3.39661,0.593567,
-3.41187,0.662231,
-3.4256,0.692749,
-3.43323,0.628662,
-3.44849,0.578308,
-3.46222,0.593567,
-3.47748,0.656128,
-3.49274,0.694275,
-3.508,0.63324,
-3.52478,0.576782,
-3.53851,0.598145,
-3.55225,0.65918,
-3.5675,0.691223,
-3.58887,0.631714,
-3.60718,0.58136,
-3.62701,0.592041,
-3.64838,0.660706,
-3.66516,0.698853,
-3.685,0.628662,
-3.70483,0.582886,
-3.72162,0.593567,
-3.73688,0.660706,
-3.75366,0.695801,
-3.7674,0.628662,
-3.79028,0.582886,
-3.80402,0.593567,
-3.82538,0.653076,
-3.83911,0.692749,
-3.85284,0.631714,
-3.86047,0.592041,
-3.862,0.592041,
-3.85437,0.656128,
-3.84369,0.691223,
-3.8208,0.627136,
-3.78571,0.584412,
-3.73688,0.59967,
-3.68042,0.634766,
-3.60718,0.698853,
-3.52783,0.636292,
-3.43018,0.58136,
-3.32642,0.602722,
-3.21198,0.654602,
-3.0899,0.694275,
-2.96326,0.637817,
-2.82898,0.588989,
-2.69165,0.604248,
-2.54974,0.65155,
-2.41089,0.698853,
-2.27051,0.634766,
-2.1286,0.585938,
-1.99127,0.598145,
-1.85547,0.646973,
-1.72729,0.701904,
-1.59912,0.643921,
-1.4801,0.582886,
-1.36719,0.578308,
-1.26343,0.650024,
-1.1673,0.695801,
-1.08032,0.63324,
-0.996399,0.582886,
-0.927734,0.601196,
-0.863647,0.648499,
-0.813293,0.67749,
-0.767517,0.627136,
-0.735474,0.590515,
-0.708008,0.601196,
-0.686646,0.65155,
-0.669861,0.694275,
-0.663757,0.631714,
-0.665283,0.587463,
-0.665283,0.59967,
-0.674438,0.65155,
-0.680542,0.694275,
-0.698853,0.63324,
-0.715637,0.588989,
-0.735474,0.604248,
-0.759888,0.657654,
-0.784302,0.70343,
-0.814819,0.636292,
-0.848389,0.592041,
-0.880432,0.6073,
-0.918579,0.654602,
-0.956726,0.672913,
-0.994873,0.637817,
-1.02844,0.590515,
-1.07117,0.610352,
-1.10931,0.643921,
-1.14746,0.692749,
-1.18866,0.63324,
-1.23138,0.567627,
-1.28021,0.608826,
-1.32294,0.639343,
-1.37024,0.691223,
-1.41602,0.63324,
-1.46027,0.593567,
-1.50146,0.6073,
-1.53809,0.636292,
-1.57623,0.692749,
-1.61285,0.598145,
-1.6449,0.575256,
-1.67542,0.6073,
-1.70441,0.645447,
-1.72272,0.700378,
-1.74408,0.634766,
-1.76392,0.595093,
-1.77917,0.611877,
-1.79443,0.643921,
-1.80206,0.680542,
-1.80817,0.636292,
-1.80969,0.598145,
-1.81427,0.616455,
-1.80359,0.624084,
-1.79901,0.694275,
-1.79291,0.636292,
-1.78986,0.59967,
-1.77917,0.614929,
-1.76849,0.645447,
-1.75934,0.688171,
-1.74255,0.648499,
-1.73187,0.598145,
-1.71661,0.614929,
-1.69983,0.643921,
-1.68152,0.691223,
-1.66626,0.637817,
-1.64948,0.59967,
-1.64032,0.595093,
-1.62506,0.640869,
-1.61438,0.689697,
-1.60217,0.637817,
-1.59454,0.59967,
-1.58539,0.617981,
-1.57471,0.643921,
-1.57013,0.692749,
-1.5686,0.636292,
-1.57013,0.602722,
-1.57623,0.622559,
-1.58081,0.643921,
-1.59302,0.694275,
-1.59912,0.622559,
-1.60675,0.59967,
-1.61896,0.616455,
-1.63269,0.642395,
-1.6449,0.692749,
-1.66016,0.642395,
-1.67542,0.604248,
-1.69678,0.616455,
-1.71356,0.643921,
-1.72882,0.692749,
-1.74866,0.642395,
-1.77155,0.604248,
-1.79291,0.616455,
-1.8219,0.645447,
-1.84479,0.688171,
-1.87378,0.642395,
-1.89819,0.601196,
-1.92719,0.614929,
-1.94855,0.646973,
-1.97601,0.701904,
-2.00653,0.636292,
-2.034,0.590515,
-2.05841,0.587463,
-2.08282,0.619507,
-2.11029,0.689697,
-2.13776,0.660706,
-2.16827,0.608826,
-2.19421,0.616455,
-2.22168,0.65918,
-2.25525,0.708008,
-2.28271,0.686646,
-2.31018,0.587463,
-2.33612,0.617981,
-2.36359,0.643921,
-2.38953,0.689697,
-2.41547,0.637817,
-2.43835,0.601196,
-2.4704,0.619507,
-2.49176,0.645447,
-2.52228,0.691223,
-2.54364,0.645447,
-2.56958,0.601196,
-2.59552,0.614929,
-2.62146,0.646973,
-2.63977,0.691223,
-2.66266,0.640869,
-2.68707,0.598145,
-2.71149,0.617981,
-2.73438,0.643921,
-2.75726,0.691223,
-2.77863,0.642395,
-2.80151,0.604248,
-2.82288,0.622559,
-2.84424,0.642395,
-2.8656,0.695801,
-2.87933,0.646973,
-2.89764,0.601196,
-2.91443,0.617981,
-2.93121,0.645447,
-2.94037,0.692749,
-2.95258,0.645447,
-2.96173,0.604248,
-2.97852,0.614929,
-2.9892,0.643921,
-3.0014,0.689697,
-3.01208,0.650024,
-3.02124,0.604248,
-3.03345,0.616455,
-3.0426,0.642395,
-3.05328,0.688171,
-3.07465,0.646973,
-3.08533,0.605774,
-3.09906,0.602722,
-3.1189,0.646973,
-3.12653,0.689697,
-3.14026,0.650024,
-3.14941,0.602722,
-3.16772,0.614929,
-3.17993,0.642395,
-3.18909,0.682068,
-3.19977,0.648499,
-3.2135,0.605774,
-3.22418,0.611877,
-3.23334,0.643921,
-3.2486,0.691223,
-3.25775,0.662231,
-3.27454,0.602722,
-3.28217,0.611877,
-3.30353,0.646973,
-3.31421,0.686646,
-3.33405,0.634766,
-3.35388,0.604248,
-3.37372,0.610352,
-3.39508,0.648499,
-3.42102,0.689697,
-3.43933,0.671387,
-3.46069,0.616455,
-3.48053,0.611877,
-3.49579,0.650024,
-3.51563,0.686646,
-3.53546,0.648499,
-3.5553,0.604248,
-3.57819,0.608826,
-3.59955,0.65155,
-3.62091,0.695801,
-3.64227,0.668335,
-3.66364,0.608826,
-3.67584,0.59967,
-3.69873,0.646973,
-3.71704,0.686646,
-3.73535,0.666809,
-3.75061,0.604248,
-3.75977,0.610352,
-3.76282,0.646973,
-3.76129,0.688171,
-3.74146,0.668335,
-3.71704,0.578308,
-3.67584,0.602722,
-3.62244,0.650024,
-3.55835,0.68512,
-3.479,0.666809,
-3.39355,0.601196,
-3.29285,0.605774,
-3.19214,0.650024,
-3.08075,0.686646,
-2.95563,0.669861,
-2.83203,0.604248,
-2.70081,0.604248,
-2.56805,0.646973,
-2.43378,0.68512,
-2.29645,0.671387,
-2.15912,0.605774,
-2.02484,0.602722,
-1.89514,0.645447,
-1.76544,0.692749,
-1.64185,0.679016,
-1.5213,0.602722,
-1.41296,0.604248,
-1.31226,0.648499,
-1.21155,0.680542,
-1.12,0.665283,
-1.0376,0.611877,
-0.956726,0.604248,
-0.895691,0.65155,
-0.837708,0.682068,
-0.782776,0.675964,
-0.744629,0.605774,
-0.71106,0.59967,
-0.680542,0.65155,
-0.662231,0.683594,
-0.646973,0.665283,
-0.640869,0.588989,
-0.640869,0.59967,
-0.650024,0.650024,
-0.662231,0.688171,
-0.679016,0.674438,
-0.701904,0.608826,
-0.717163,0.616455,
-0.744629,0.648499,
-0.765991,0.749207,
-0.798035,0.662231,
-0.830078,0.605774,
-0.863647,0.604248,
-0.90332,0.668335,
-0.939941,0.669861,
-0.976563,0.672913,
-1.01929,0.602722,
-1.06201,0.558472,
-1.11084,0.653076,
-1.15356,0.682068,
-1.19476,0.671387,
-1.24359,0.602722,
-1.29089,0.611877,
-1.33667,0.648499,
-1.3855,0.680542,
-1.42822,0.671387,
-1.47705,0.605774,
-1.52283,0.601196,
-1.57166,0.646973,
-1.60675,0.680542,
-1.64795,0.675964,
-1.6861,0.598145,
-1.72424,0.598145,
-1.74866,0.646973,
-1.77307,0.680542,
-1.79443,0.675964,
-1.80817,0.598145,
-1.8219,0.593567,
-1.83105,0.683594,
-1.83563,0.67749,
-1.83868,0.686646,
-1.83868,0.593567,
-1.83716,0.593567,
-1.83105,0.646973,
-1.81885,0.680542,
-1.80664,0.680542,
-1.79138,0.595093,
-1.77612,0.602722,
-1.75629,0.650024,
-1.73645,0.679016,
-1.71814,0.675964,
-1.70135,0.590515,
-1.67694,0.595093,
-1.65863,0.639343,
-1.63879,0.679016,
-1.62354,0.675964,
-1.60522,0.593567,
-1.58997,0.592041,
-1.57318,0.643921,
-1.5564,0.675964,
-1.53961,0.675964,
-1.53198,0.590515,
-1.51978,0.590515,
-1.50909,0.642395,
-1.50146,0.674438,
-1.49841,0.67749,
-1.49994,0.588989,
-1.50299,0.595093,
-1.50757,0.645447,
-1.51215,0.679016,
-1.52283,0.675964,
-1.53198,0.584412,
-1.54266,0.590515,
-1.5564,0.642395,
-1.56708,0.680542,
-1.58081,0.675964,
-1.60065,0.595093,
-1.62048,0.605774,
-1.63422,0.642395,
-1.65405,0.675964,
-1.67236,0.674438,
-1.6922,0.605774,
-1.71204,0.602722,
-1.7334,0.648499,
-1.76086,0.683594,
-1.78528,0.67749,
-1.81122,0.602722,
-1.84021,0.592041,
-1.86615,0.617981,
-1.88904,0.691223,
-1.91803,0.672913,
-1.9455,0.601196,
-1.97144,0.592041,
-1.99738,0.639343,
-2.01721,0.682068,
-2.04163,0.679016,
-2.07214,0.588989,
-2.10266,0.590515,
-2.1286,0.601196,
-2.16217,0.67749,
-2.18658,0.675964,
-2.2171,0.604248,
-2.25067,0.590515,
-2.27661,0.639343,
-2.30103,0.682068,
-2.32849,0.686646,
-2.35901,0.595093,
-2.39105,0.582886,
-2.42157,0.62561,
-2.44751,0.682068,
-2.46887,0.675964,
-2.49786,0.6073,
-2.52228,0.592041,
-2.54669,0.637817,
-2.57111,0.665283,
-2.59552,0.674438,
-2.61536,0.592041,
-2.63672,0.579834,
-2.65808,0.637817,
-2.67792,0.680542,
-2.69775,0.665283,
-2.71912,0.588989,
-2.742,0.587463,
-2.76184,0.63324,
-2.78168,0.679016,
-2.79541,0.653076,
-2.81525,0.592041,
-2.83356,0.587463,
-2.85034,0.63324,
-2.8656,0.679016,
-2.88086,0.666809,
-2.89764,0.595093,
-2.91443,0.585938,
-2.93121,0.631714,
-2.94495,0.675964,
-2.96326,0.67749,
-2.97546,0.595093,
-2.9953,0.58136,
-3.01361,0.634766,
-3.02887,0.67749,
-3.04565,0.674438,
-3.06244,0.593567,
-3.07617,0.585938,
-3.09906,0.634766,
-3.10974,0.666809,
-3.1311,0.645447,
-3.14636,0.559998,
-3.1601,0.588989,
-3.17383,0.640869,
-3.19061,0.679016,
-3.2074,0.669861,
-3.2196,0.59967,
-3.24097,0.587463,
-3.25623,0.63324,
-3.27759,0.691223,
-3.29437,0.672913,
-3.32184,0.587463,
-3.34473,0.582886,
-3.36304,0.636292,
-3.38745,0.680542,
-3.41492,0.669861,
-3.42865,0.556946,
-3.44696,0.587463,
-3.46069,0.628662,
-3.47748,0.679016,
-3.49426,0.674438,
-3.5141,0.592041,
-3.52783,0.584412,
-3.53241,0.63324,
-3.54309,0.67749,
-3.54919,0.672913,
-3.55225,0.602722,
-3.55377,0.593567,
-3.54614,0.646973,
-3.52325,0.666809,
-3.49121,0.67749,
-3.44696,0.592041,
-3.3905,0.582886,
-3.32184,0.634766,
-3.24402,0.656128,
-3.14789,0.686646,
-3.04871,0.601196,
-2.93884,0.575256,
-2.81525,0.631714,
-2.69165,0.679016,
-2.55585,0.671387,
-2.42004,0.592041,
-2.28271,0.578308,
-2.15149,0.642395,
-2.01111,0.674438,
-1.87988,0.666809,
-1.75171,0.628662,
-1.62659,0.587463,
-1.50299,0.627136,
-1.38245,0.686646,
-1.27563,0.665283,
-1.17493,0.593567,
-1.0788,0.576782,
-0.987244,0.631714,
-0.906372,0.679016,
-0.834656,0.666809,
-0.765991,0.592041,
-0.709534,0.578308,
-0.660706,0.636292,
-0.617981,0.688171,
-0.579834,0.669861,
-0.55542,0.598145,
-0.537109,0.624084,
-0.524902,0.646973,
-0.521851,0.679016,
-0.521851,0.666809,
-0.526428,0.588989,
-0.534058,0.576782,
-0.546265,0.637817,
-0.567627,0.662231,
-0.587463,0.662231,
-0.610352,0.593567,
-0.634766,0.578308,
-0.662231,0.634766,
-0.694275,0.674438,
-0.718689,0.660706,
-0.750732,0.59967,
-0.784302,0.561523,
-0.823975,0.634766,
-0.856018,0.65918,
-0.892639,0.666809,
-0.932312,0.590515,
-0.975037,0.584412,
-1.02081,0.634766,
-1.07117,0.675964,
-1.11847,0.662231,
-1.1673,0.593567,
-1.2146,0.582886,
-1.26495,0.636292,
-1.31683,0.672913,
-1.36261,0.662231,
-1.41296,0.592041,
-1.45569,0.582886,
-1.49994,0.63324,
-1.53961,0.67749,
-1.57318,0.660706,
-1.61285,0.593567,
-1.64642,0.585938,
-1.67084,0.637817,
-1.69525,0.671387,
-1.71204,0.654602,
-1.72729,0.592041,
-1.74103,0.585938,
-1.75018,0.634766,
-1.75476,0.654602,
-1.75171,0.656128,
-1.75171,0.587463,
-1.75171,0.608826,
-1.75476,0.63324,
-1.74713,0.672913,
-1.74255,0.650024,
-1.7334,0.582886,
-1.72882,0.582886,
-1.71356,0.634766,
-1.70135,0.682068,
-1.67694,0.653076,
-1.66321,0.588989,
-1.64795,0.585938,
-1.63574,0.639343,
-1.62048,0.680542,
-1.60065,0.610352,
-1.58691,0.590515,
-1.57013,0.590515,
-1.56097,0.636292,
-1.54877,0.679016,
-1.53656,0.65155,
-1.53046,0.595093,
-1.52435,0.636292,
-1.51978,0.63324,
-1.51978,0.675964,
-1.51825,0.650024,
-1.51978,0.587463,
-1.5274,0.582886,
-1.53503,0.634766,
-1.54114,0.680542,
-1.55334,0.650024,
-1.56555,0.590515,
-1.57623,0.587463,
-1.59149,0.636292,
-1.6037,0.67749,
-1.62048,0.648499,
-1.63116,0.590515,
-1.6449,0.587463,
-1.66016,0.636292,
-1.67847,0.680542,
-1.70746,0.646973,
-1.72729,0.595093,
-1.75171,0.584412,
-1.77765,0.631714,
-1.80359,0.679016,
-1.83105,0.628662,
-1.85547,0.59967,
-1.87836,0.585938,
-1.90887,0.637817,
-1.93481,0.679016,
-1.96228,0.643921,
-1.98975,0.588989,
-2.02026,0.58136,
-2.05078,0.637817,
-2.08282,0.675964,
-2.11182,0.642395,
-2.13623,0.588989,
-2.1637,0.576782,
-2.19421,0.634766,
-2.22321,0.67749,
-2.25067,0.643921,
-2.28119,0.592041,
-2.30865,0.58136,
-2.33459,0.634766,
-2.36511,0.67749,
-2.39563,0.646973,
-2.43073,0.576782,
-2.45667,0.538635,
-2.4826,0.628662,
-2.50549,0.688171,
-2.5238,0.643921,
-2.5528,0.590515,
-2.58026,0.593567,
-2.59857,0.634766,
-2.62146,0.744629,
-2.64435,0.643921,
-2.66876,0.592041,
-2.6947,0.593567,
-2.71759,0.634766,
-2.73438,0.67749,
-2.75726,0.656128,
-2.78015,0.592041,
-2.79999,0.58136,
-2.82135,0.637817,
-2.83661,0.683594,
-2.85187,0.642395,
-2.86865,0.592041,
-2.88391,0.579834,
-2.90222,0.634766,
-2.92358,0.68512,
-2.94037,0.65155,
-2.95868,0.593567,
-2.97241,0.575256,
-2.98615,0.653076,
-3.00598,0.682068,
-3.01971,0.645447,
-3.0365,0.593567,
-3.05176,0.587463,
-3.07159,0.63324,
-3.08533,0.674438,
-3.10516,0.639343,
-3.12195,0.588989,
-3.14178,0.585938,
-3.15704,0.636292,
-3.17535,0.68512,
-3.18909,0.637817,
-3.20587,0.590515,
-3.2196,0.587463,
-3.23334,0.637817,
-3.2486,0.683594,
-3.26233,0.637817,
-3.27759,0.590515,
-3.29285,0.585938,
-3.31421,0.634766,
-3.33252,0.683594,
-3.35083,0.636292,
-3.37524,0.588989,
-3.39203,0.587463,
-3.41339,0.634766,
-3.42712,0.682068,
-3.44696,0.636292,
-3.45917,0.605774,
-3.47748,0.584412,
-3.48816,0.639343,
-3.50037,0.683594,
-3.51715,0.636292,
-3.52631,0.588989,
-3.53394,0.585938,
-3.53241,0.639343,
-3.52631,0.665283,
-3.51868,0.628662,
-3.49731,0.584412,
-3.46375,0.588989,
-3.41949,0.636292,
-3.35846,0.680542,
-3.28827,0.634766,
-3.20282,0.582886,
-3.10669,0.585938,
-3.00446,0.636292,
-2.89001,0.686646,
-2.76337,0.631714,
-2.63062,0.588989,
-2.49329,0.588989,
-2.35443,0.63324,
-2.211,0.68512,
-2.06909,0.634766,
-1.93329,0.584412,
-1.79138,0.587463,
-1.65558,0.637817,
-1.5213,0.689697,
-1.3916,0.634766,
-1.27106,0.584412,
-1.15204,0.585938,
-1.0437,0.640869,
-0.941467,0.686646,
-0.846863,0.639343,
-0.75531,0.587463,
-0.675964,0.585938,
-0.605774,0.634766,
-0.547791,0.688171,
-0.495911,0.639343,
-0.454712,0.58136,
-0.422668,0.601196,
-0.396729,0.637817,
-0.369263,0.688171,
-0.352478,0.637817,
-0.3479,0.582886,
-0.341797,0.59967,
-0.349426,0.624084,
-0.350952,0.688171,
-0.357056,0.639343,
-0.379944,0.585938,
-0.401306,0.588989,
-0.427246,0.637817,
-0.45166,0.686646,
-0.4776,0.642395,
-0.506592,0.582886,
-0.538635,0.595093,
-0.572205,0.648499,
-0.6073,0.700378,
-0.640869,0.643921,
-0.67749,0.584412,
-0.718689,0.593567,
-0.759888,0.636292,
-0.801086,0.692749,
-0.845337,0.653076,
-0.888062,0.588989,
-0.935364,0.595093,
-0.982666,0.643921,
-1.0376,0.689697,
-1.08795,0.645447,
-1.13831,0.582886,
-1.18866,0.593567,
-1.23596,0.640869,
-1.28326,0.686646,
-1.33209,0.648499,
-1.37482,0.584412,
-1.42365,0.588989,
-1.46332,0.637817,
-1.49841,0.688171,
-1.53198,0.65155,
-1.56403,0.585938,
-1.58691,0.592041,
-1.6098,0.637817,
-1.62048,0.691223,
-1.62964,0.650024,
-1.64337,0.587463,
-1.65253,0.592041,
-1.66321,0.637817,
-1.66168,0.688171,
-1.66016,0.648499,
-1.65253,0.58136,
-1.64642,0.588989,
-1.63879,0.636292,
-1.62659,0.688171,
-1.61743,0.656128,
-1.60675,0.58136,
-1.59607,0.592041,
-1.58997,0.636292,
-1.58081,0.68512,
-1.56097,0.65918,
-1.55029,0.570679,
-1.54114,0.590515,
-1.52893,0.63324,
-1.5213,0.70343,
-1.51215,0.662231,
-1.50452,0.585938,
-1.49536,0.593567,
-1.48926,0.634766,
-1.4801,0.686646,
-1.48163,0.65918,
-1.48163,0.584412,
-1.48621,0.593567,
-1.48621,0.634766,
-1.49384,0.688171,
-1.49689,0.657654,
-1.50757,0.585938,
-1.5152,0.592041,
-1.5274,0.637817,
-1.53961,0.680542,
-1.55792,0.657654,
-1.57318,0.584412,
-1.59302,0.6073,
-1.61743,0.639343,
-1.63879,0.691223,
-1.66321,0.662231,
-1.6861,0.58136,
-1.70593,0.595093,
-1.7334,0.634766,
-1.76086,0.686646,
-1.78986,0.653076,
-1.81427,0.543213,
-1.84479,0.59967,
-1.87531,0.645447,
-1.90735,0.691223,
-1.93481,0.666809,
-1.96686,0.582886,
-1.99585,0.587463,
-2.02026,0.636292,
-2.04468,0.689697,
-2.07214,0.666809,
-2.09198,0.585938,
-2.1225,0.59967,
-2.14844,0.639343,
-2.1759,0.689697,
-2.20947,0.668335,
-2.24152,0.578308,
-2.26746,0.598145,
-2.30103,0.637817,
-2.33002,0.689697,
-2.36053,0.668335,
-2.388,0.582886,
-2.4231,0.593567,
-2.45209,0.637817,
-2.4826,0.692749,
-2.51312,0.668335,
-2.53448,0.584412,
-2.56348,0.593567,
-2.59247,0.640869,
-2.61993,0.688171,
-2.64893,0.668335,
-2.67029,0.58136,
-2.70081,0.593567,
-2.72675,0.640869,
-2.74811,0.700378,
-2.77405,0.669861,
-2.79541,0.584412,
-2.81525,0.592041,
-2.83508,0.639343,
-2.84882,0.694275,
-2.86407,0.657654,
-2.87933,0.584412,
-2.89612,0.590515,
-2.9129,0.640869,
-2.92969,0.692749,
-2.94495,0.672913,
-2.95563,0.585938,
-2.97241,0.588989,
-2.98767,0.637817,
-2.99988,0.689697,
-3.01361,0.672913,
-3.03497,0.584412,
-3.05176,0.587463,
-3.06854,0.634766,
-3.08533,0.740051,
-3.10669,0.674438,
-3.1189,0.584412,
-3.13416,0.58136,
-3.15857,0.636292,
-3.17383,0.688171,
-3.18604,0.674438,
-3.20282,0.585938,
-3.22113,0.584412,
-3.23334,0.637817,
-3.2486,0.689697,
-3.26233,0.67749,
-3.28217,0.584412,
-3.2959,0.582886,
-3.31879,0.637817,
-3.34015,0.679016,
-3.35999,0.683594,
-3.37982,0.587463,
-3.39966,0.582886,
-3.41949,0.640869,
-3.43933,0.688171,
-3.45459,0.679016,
-3.47748,0.587463,
-3.50189,0.563049,
-3.52325,0.640869,
-3.53699,0.689697,
-3.55835,0.675964,
-3.57208,0.585938,
-3.59497,0.578308,
-3.61176,0.636292,
-3.63312,0.689697,
-3.6438,0.67749,
-3.65906,0.584412,
-3.67432,0.582886,
-3.67584,0.636292,
-3.68347,0.692749,
-3.68042,0.679016,
-3.67584,0.590515,
-3.66364,0.579834,
-3.63312,0.636292,
-3.59344,0.692749,
-3.53546,0.680542,
-3.46832,0.590515,
-3.38593,0.584412,
-3.29437,0.637817,
-3.19061,0.692749,
-3.07922,0.67749,
-2.96021,0.590515,
-2.83051,0.584412,
-2.69775,0.63324,
-2.56195,0.691223,
-2.42004,0.680542,
-2.27509,0.605774,
-2.13318,0.588989,
-1.98822,0.640869,
-1.84784,0.692749,
-1.70593,0.679016,
-1.56708,0.590515,
-1.43585,0.587463,
-1.31531,0.639343,
-1.19171,0.674438,
-1.07727,0.65918,
-0.970459,0.592041,
-0.872803,0.584412,
-0.78125,0.636292,
-0.704956,0.694275,
-0.63324,0.680542,
-0.57373,0.598145,
-0.521851,0.553894,
-0.4776,0.643921,
-0.442505,0.688171,
-0.411987,0.683594,
-0.392151,0.595093,
-0.38147,0.578308,
-0.372314,0.636292,
-0.367737,0.692749,
-0.375366,0.689697,
-0.389099,0.592041,
-0.404358,0.576782,
-0.42572,0.636292,
-0.448608,0.683594,
-0.473022,0.67749,
-0.500488,0.59967,
-0.527954,0.590515,
-0.559998,0.637817,
-0.593567,0.689697,
-0.62561,0.680542,
-0.662231,0.592041,
-0.704956,0.57373,
-0.752258,0.637817,
-0.796509,0.691223,
-0.843811,0.67749,
-0.886536,0.602722,
-0.93689,0.578308,
-0.982666,0.639343,
-1.02844,0.691223,
-1.08185,0.680542,
-1.13678,0.601196,
-1.18561,0.576782,
-1.24054,0.639343,
-1.29395,0.68512,
-1.33667,0.67749,
-1.39008,0.601196,
-1.43585,0.576782,
-1.4801,0.660706,
-1.51825,0.700378,
-1.55182,0.683594,
-1.58691,0.605774,
-1.61133,0.57373,
-1.63727,0.642395,
-1.65558,0.686646,
-1.67389,0.67749,
-1.6861,0.585938,
-1.6983,0.578308,
-1.70746,0.640869,
-1.71356,0.68512,
-1.71204,0.680542,
-1.71814,0.614929,
-1.71051,0.57373,
-1.70593,0.646973,
-1.6983,0.683594,
-1.68762,0.67749,
-1.67084,0.602722,
-1.6571,0.558472,
-1.64185,0.639343,
-1.62354,0.683594,
-1.60828,0.675964,
-1.59607,0.602722,
-1.58081,0.570679,
-1.56555,0.634766,
-1.55487,0.665283,
-1.53961,0.675964,
-1.51825,0.604248,
-1.50757,0.567627,
-1.49994,0.645447,
-1.48468,0.680542,
-1.47247,0.675964,
-1.46332,0.605774,
-1.45416,0.569153,
-1.45416,0.634766,
-1.44958,0.67749,
-1.44806,0.674438,
-1.44958,0.610352,
-1.45416,0.569153,
-1.46027,0.639343,
-1.4679,0.67749,
-1.48468,0.669861,
-1.49689,0.611877,
-1.50757,0.566101,
-1.5274,0.636292,
-1.54266,0.67749,
-1.5625,0.675964,
-1.58539,0.614929,
-1.6098,0.566101,
-1.63879,0.637817,
-1.66931,0.67749,
-1.69525,0.666809,
-1.72272,0.608826,
-1.75476,0.561523,
-1.7807,0.636292,
-1.81122,0.665283,
-1.84174,0.63324,
-1.86615,0.605774,
-1.89514,0.561523,
-1.92261,0.628662,
-1.95313,0.675964,
-1.97906,0.669861,
-2.00958,0.617981,
-2.04163,0.566101,
-2.07214,0.660706,
-2.09961,0.675964,
-2.13318,0.665283,
-2.16217,0.614929,
-2.19727,0.567627,
-2.22473,0.656128,
-2.25372,0.694275,
-2.27966,0.732422,
-2.31018,0.614929,
-2.34375,0.567627,
-2.36816,0.634766,
-2.39868,0.672913,
-2.4292,0.665283,
-2.46124,0.614929,
-2.49634,0.563049,
-2.52838,0.636292,
-2.5589,0.674438,
-2.58484,0.665283,
-2.61078,0.617981,
-2.63977,0.558472,
-2.66571,0.627136,
-2.68555,0.669861,
-2.70844,0.666809,
-2.73285,0.616455,
-2.75574,0.566101,
-2.7771,0.63324,
-2.79694,0.674438,
-2.81677,0.662231,
-2.83203,0.614929,
-2.84729,0.561523,
-2.86865,0.634766,
-2.88391,0.668335,
-2.89917,0.65918,
-2.9129,0.614929,
-2.93121,0.566101,
-2.94952,0.63324,
-2.96783,0.665283,
-2.98309,0.657654,
-3.00598,0.614929,
-3.02124,0.566101,
-3.03955,0.631714,
-3.05481,0.665283,
-3.07007,0.654602,
-3.08228,0.613403,
-3.09143,0.569153,
-3.10669,0.643921,
-3.1189,0.662231,
-3.1311,0.65155,
-3.14484,0.617981,
-3.15857,0.570679,
-3.17688,0.628662,
-3.18909,0.657654,
-3.20587,0.660706,
-3.21655,0.616455,
-3.22876,0.569153,
-3.24402,0.631714,
-3.2547,0.660706,
-3.26538,0.65155,
-3.27606,0.617981,
-3.28674,0.569153,
-3.29742,0.628662,
-3.31421,0.65918,
-3.32336,0.653076,
-3.34015,0.617981,
-3.35083,0.569153,
-3.36761,0.62561,
-3.38135,0.660706,
-3.40118,0.650024,
-3.41492,0.616455,
-3.43323,0.567627,
-3.45001,0.627136,
-3.45764,0.65918,
-3.46222,0.650024,
-3.45459,0.616455,
-3.43323,0.569153,
-3.41187,0.62561,
-3.37067,0.657654,
-3.31573,0.648499,
-3.25165,0.617981,
-3.17535,0.572205,
-3.08838,0.624084,
-2.99072,0.654602,
-2.88544,0.650024,
-2.76794,0.616455,
-2.64893,0.572205,
-2.5177,0.621033,
-2.38342,0.657654,
-2.24762,0.650024,
-2.10724,0.616455,
-1.96686,0.567627,
-1.828,0.617981,
-1.68915,0.653076,
-1.55792,0.650024,
-1.42822,0.6073,
-1.3031,0.566101,
-1.18561,0.624084,
-1.07422,0.656128,
-0.970459,0.650024,
-0.87738,0.622559,
-0.787354,0.567627,
-0.709534,0.628662,
-0.639343,0.653076,
-0.579834,0.646973,
-0.526428,0.601196,
-0.480652,0.567627,
-0.439453,0.622559,
-0.405884,0.657654,
-0.375366,0.646973,
-0.361633,0.617981,
-0.352478,0.569153,
-0.346375,0.675964,
-0.340271,0.653076,
-0.3479,0.643921,
-0.35553,0.617981,
-0.37384,0.570679,
-0.396729,0.616455,
-0.416565,0.654602,
-0.434875,0.645447,
-0.462341,0.617981,
-0.492859,0.569153,
-0.523376,0.619507,
-0.558472,0.654602,
-0.588989,0.645447,
-0.637817,0.616455,
-0.683594,0.569153,
-0.732422,0.621033,
-0.784302,0.660706,
-0.836182,0.648499,
-0.889587,0.619507,
-0.944519,0.567627,
-1.0025,0.613403,
-1.06049,0.653076,
-1.11847,0.642395,
-1.18256,0.616455,
-1.24054,0.57373,
-1.29395,0.614929,
-1.34735,0.65155,
-1.40533,0.645447,
-1.45416,0.616455,
-1.49994,0.570679,
-1.54572,0.613403,
-1.58844,0.653076,
-1.62354,0.645447,
-1.66931,0.613403,
-1.70593,0.57373,
-1.73492,0.614929,
-1.75934,0.653076,
-1.77765,0.646973,
-1.79596,0.614929,
-1.80817,0.572205,
-1.81427,0.611877,
-1.81732,0.657654,
-1.81885,0.656128,
-1.81427,0.601196,
-1.81122,0.569153,
-1.79749,0.610352,
-1.7807,0.65155,
-1.77307,0.650024,
-1.76086,0.616455,
-1.74713,0.570679,
-1.73035,0.608826,
-1.71051,0.643921,
-1.6922,0.65155,
-1.66626,0.613403,
-1.6449,0.575256,
-1.62201,0.602722,
-1.59912,0.643921,
-1.57928,0.654602,
-1.5625,0.613403,
-1.54877,0.579834,
-1.54114,0.59967,
-1.53503,0.657654,
-1.5274,0.653076,
-1.52588,0.613403,
-1.52283,0.57373,
-1.52588,0.601196,
-1.53198,0.65155,
-1.53503,0.650024,
-1.53656,0.619507,
-1.55182,0.576782,
-1.55945,0.601196,
-1.57166,0.650024,
-1.58386,0.654602,
-1.59454,0.595093,
-1.61743,0.57373,
-1.63269,0.59967,
-1.65405,0.654602,
-1.67542,0.645447,
-1.70135,0.616455,
-1.72424,0.57373,
-1.74866,0.592041,
-1.77612,0.654602,
-1.79901,0.717163,
-1.8219,0.611877,
-1.84784,0.576782,
-1.87531,0.602722,
-1.89972,0.660706,
-1.92413,0.656128,
-1.9516,0.616455,
-1.98059,0.578308,
-2.00958,0.592041,
-2.03857,0.656128,
-2.05994,0.660706,
-2.09045,0.610352,
-2.12555,0.578308,
-2.15149,0.592041,
-2.18353,0.660706,
-2.211,0.657654,
-2.24304,0.611877,
-2.27509,0.579834,
-2.30103,0.590515,
-2.32697,0.65155,
-2.35748,0.662231,
-2.38647,0.616455,
-2.41394,0.578308,
-2.43988,0.587463,
-2.46582,0.662231,
-2.49023,0.660706,
-2.51923,0.611877,
-2.54669,0.582886,
-2.57721,0.593567,
-2.60315,0.654602,
-2.62756,0.660706,
-2.65503,0.616455,
-2.67944,0.578308,
-2.70996,0.590515,
-2.72827,0.65155,
-2.74963,0.65918,
-2.771,0.613403,
-2.79236,0.575256,
-2.81219,0.590515,
-2.83508,0.653076,
-2.85645,0.665283,
-2.87323,0.617981,
-2.89459,0.576782,
-2.9129,0.587463,
-2.93579,0.65155,
-2.9541,0.666809,
-2.97089,0.611877,
-2.9892,0.576782,
-3.01208,0.584412,
-3.03192,0.654602,
-3.04718,0.666809,
-3.06702,0.611877,
-3.07922,0.576782,
-3.09753,0.587463,
-3.11279,0.65155,
-3.13721,0.660706,
-3.15857,0.614929,
-3.18146,0.578308,
-3.20435,0.585938,
-3.22266,0.657654,
-3.24402,0.665283,
-3.26385,0.616455,
-3.28064,0.578308,
-3.29437,0.582886,
-3.31116,0.656128,
-3.32642,0.666809,
-3.34015,0.602722,
-3.35693,0.575256,
-3.36609,0.58136,
-3.37219,0.657654,
-3.37372,0.665283,
-3.36304,0.614929,
-3.35693,0.578308,
-3.33405,0.584412,
-3.30811,0.679016,
-3.26538,0.666809,
-3.20587,0.601196,
-3.13416,0.578308,
-3.04413,0.576782,
-2.93884,0.660706,
-2.82898,0.671387,
-2.70996,0.613403,
-2.57263,0.63324,
-2.4353,0.59967,
-2.28882,0.665283,
-2.13928,0.665283,
-1.98669,0.622559,
-1.83716,0.579834,
-1.6861,0.588989,
-1.53198,0.65155,
-1.37177,0.733948,
-1.22681,0.614929,
-1.08337,0.579834,
-0.950623,0.584412,
-0.820923,0.660706,
-0.700378,0.683594,
-0.582886,0.62561,
-0.480652,0.582886,
-0.386047,0.585938,
-0.300598,0.660706,
-0.224304,0.683594,
-0.158691,0.619507,
-0.105286,0.566101,
-0.062561,0.585938,
-0.0244141,0.666809,
0.00762939,0.672913,
0.0320435,0.614929,
0.0473022,0.579834,
0.0564575,0.582886,
0.062561,0.65918,
0.0656128,0.675964,
0.0610352,0.621033,
0.0534058,0.587463,
0.038147,0.584412,
0.0198364,0.657654,
0.00152588,0.669861,
-0.0244141,0.617981,
-0.0579834,0.587463,
-0.0869751,0.584412,
-0.119019,0.660706,
-0.157166,0.666809,
-0.190735,0.617981,
-0.233459,0.584412,
-0.274658,0.584412,
-0.318909,0.65918,
-0.361633,0.669861,
-0.39978,0.616455,
-0.440979,0.587463,
-0.488281,0.582886,
-0.534058,0.656128,
-0.579834,0.672913,
-0.631714,0.617981,
-0.682068,0.585938,
-0.733948,0.584412,
-0.78125,0.654602,
-0.83313,0.67749,
-0.88501,0.624084,
-0.933838,0.575256,
-0.98114,0.59967,
-1.02386,0.65918,
-1.05743,0.724792,
-1.09253,0.624084,
-1.12305,0.584412,
-1.15356,0.582886,
-1.17645,0.662231,
-1.19476,0.674438,
-1.21155,0.622559,
-1.22681,0.585938,
-1.23749,0.585938,
-1.24664,0.665283,
-1.24969,0.689697,
-1.25732,0.621033,
-1.25885,0.58136,
-1.25427,0.588989,
-1.24969,0.660706,
-1.23596,0.67749,
-1.22528,0.617981,
-1.21155,0.582886,
-1.19781,0.587463,
-1.18713,0.65918,
-1.17645,0.67749,
-1.15967,0.622559,
-1.14288,0.582886,
-1.13373,0.590515,
-1.12305,0.665283,
-1.11237,0.672913,
-1.10931,0.627136,
-1.09711,0.590515,
-1.08948,0.587463,
-1.0849,0.665283,
-1.08032,0.675964,
-1.07727,0.624084,
-1.0788,0.58136,
-1.0788,0.590515,
-1.08185,0.665283,
-1.08643,0.679016,
-1.08948,0.611877,
-1.10168,0.588989,
-1.11084,0.588989,
-1.12,0.665283,
-1.13983,0.679016,
-1.15662,0.622559,
-1.17493,0.579834,
-1.19781,0.588989,
-1.21918,0.666809,
-1.24359,0.679016,
-1.26343,0.627136,
-1.29242,0.579834,
-1.31531,0.593567,
-1.33972,0.666809,
-1.36871,0.680542,
-1.39465,0.627136,
-1.42365,0.572205,
-1.45721,0.593567,
-1.48315,0.665283,
-1.5152,0.682068,
-1.53656,0.62561,
-1.5625,0.579834,
-1.58997,0.593567,
-1.61438,0.668335,
-1.64185,0.67749,
-1.67236,0.631714,
-1.70288,0.575256,
-1.7334,0.592041,
-1.76544,0.666809,
-1.79901,0.686646,
-1.83258,0.628662,
-1.8631,0.579834,
-1.89056,0.602722,
-1.91498,0.65918,
-1.94397,0.680542,
-1.97144,0.622559,
-1.9989,0.579834,
-2.02637,0.598145,
-2.05078,0.648499,
-2.07977,0.686646,
-2.10419,0.62561,
-2.1347,0.575256,
-2.16064,0.595093,
-2.19116,0.665283,
-2.2171,0.682068,
-2.24152,0.610352,
-2.2644,0.582886,
-2.29187,0.590515,
-2.31781,0.640869,
-2.33459,0.679016,
-2.35596,0.622559,
-2.37885,0.585938,
-2.40021,0.59967,
-2.4231,0.672913,
-2.43988,0.67749,
-2.45514,0.614929,
-2.47803,0.611877,
-2.49176,0.559998,
-2.50244,0.662231,
-2.5177,0.68512,
-2.53296,0.631714,
-2.54974,0.578308,
-2.56348,0.6073,
-2.57721,0.666809,
-2.58942,0.674438,
-2.60773,0.62561,
-2.62909,0.575256,
-2.64282,0.598145,
-2.65961,0.642395,
-2.67487,0.688171,
-2.6947,0.621033,
-2.71301,0.579834,
-2.72827,0.59967,
-2.73895,0.668335,
-2.75421,0.682068,
-2.77252,0.62561,
-2.78931,0.582886,
-2.80457,0.598145,
-2.8244,0.665283,
-2.84271,0.683594,
-2.8595,0.622559,
-2.87476,0.582886,
-2.89001,0.611877,
-2.90375,0.660706,
-2.91443,0.682068,
-2.92969,0.621033,
-2.94037,0.58136,
-2.95105,0.6073,
-2.9541,0.668335,
-2.95563,0.680542,
-2.94952,0.62561,
-2.93427,0.58136,
-2.9068,0.601196,
-2.8717,0.662231,
-2.8183,0.683594,
-2.75879,0.621033,
-2.68555,0.575256,
-2.6001,0.58136,
-2.50092,0.666809,
-2.39716,0.682068,
-2.27814,0.62561,
-2.15149,0.58136,
-2.02332,0.605774,
-1.88446,0.671387,
-1.7395,0.694275,
-1.59454,0.627136,
-1.44806,0.62561,
-1.3031,0.614929,
-1.15967,0.668335,
-1.01471,0.68512,
-0.878906,0.621033,
-0.746155,0.578308,
-0.616455,0.6073,
-0.498962,0.65155,
-0.38147,0.686646,
-0.279236,0.621033,
-0.183105,0.58136,
-0.0991821,0.6073,
-0.0213623,0.660706,
0.0518799,0.683594,
0.115967,0.622559,
0.166321,0.546265,
0.212097,0.608826,
0.250244,0.657654,
0.282288,0.682068,
0.300598,0.624084,
0.315857,0.579834,
0.320435,0.610352,
0.325012,0.657654,
0.32196,0.679016,
0.317383,0.628662,
0.305176,0.582886,
0.294495,0.6073,
0.279236,0.668335,
0.256348,0.68512,
0.231934,0.616455,
0.209045,0.575256,
0.17395,0.611877,
0.141907,0.665283,
0.105286,0.682068,
0.0701904,0.619507,
0.0244141,0.576782,
-0.0198364,0.614929,
-0.0640869,0.662231,
-0.111389,0.680542,
-0.158691,0.616455,
-0.209045,0.576782,
-0.259399,0.605774,
-0.311279,0.62561,
-0.360107,0.657654,
-0.405884,0.619507,
-0.456238,0.57373,
-0.506592,0.624084,
-0.546265,0.660706,
-0.592041,0.686646,
-0.634766,0.646973,
-0.671387,0.613403,
-0.704956,0.602722,
-0.730896,0.662231,
-0.759888,0.682068,
-0.784302,0.621033,
-0.811768,0.576782,
-0.839233,0.619507,
-0.854492,0.669861,
-0.871277,0.67749,
-0.886536,0.617981,
-0.900269,0.575256,
-0.907898,0.617981,
-0.917053,0.666809,
-0.921631,0.675964,
-0.923157,0.619507,
-0.918579,0.572205,
-0.915527,0.614929,
-0.909424,0.665283,
-0.901794,0.679016,
-0.891113,0.617981,
-0.87738,0.572205,
-0.863647,0.627136,
-0.845337,0.665283,
-0.831604,0.679016,
-0.820923,0.619507,
-0.820923,0.576782,
-0.813293,0.614929,
-0.799561,0.65918,
-0.790405,0.675964,
-0.785828,0.621033,
-0.782776,0.57373,
-0.784302,0.613403,
-0.782776,0.666809,
-0.787354,0.675964,
-0.785828,0.63324,
-0.788879,0.575256,
-0.804138,0.616455,
-0.811768,0.660706,
-0.822449,0.67749,
-0.837708,0.617981,
-0.852966,0.570679,
-0.868225,0.617981,
-0.889587,0.662231,
-0.907898,0.674438,
-0.927734,0.621033,
-0.953674,0.566101,
-0.984192,0.616455,
-1.01013,0.665283,
-1.0376,0.669861,
-1.06812,0.617981,
-1.10168,0.546265,
-1.13678,0.624084,
-1.16425,0.665283,
-1.19324,0.671387,
-1.21765,0.619507,
-1.25122,0.569153,
-1.28021,0.621033,
-1.31226,0.668335,
-1.34735,0.669861,
-1.37787,0.62561,
-1.40228,0.566101,
-1.4328,0.627136,
-1.45874,0.672913,
-1.48773,0.666809,
-1.51672,0.622559,
-1.55029,0.561523,
-1.57776,0.622559,
-1.60522,0.666809,
-1.63269,0.669861,
-1.65863,0.621033,
-1.69373,0.566101,
-1.71814,0.624084,
-1.74561,0.674438,
-1.77002,0.672913,
-1.79901,0.616455,
-1.83258,0.559998,
-1.85852,0.621033,
-1.88599,0.671387,
-1.91193,0.669861,
-1.9455,0.619507,
-1.96991,0.561523,
-2.00043,0.622559,
-2.02484,0.674438,
-2.05078,0.666809,
-2.07977,0.654602,
-2.09656,0.561523,
-2.12402,0.624084,
-2.14844,0.662231,
-2.1698,0.665283,
-2.18658,0.63324,
-2.20337,0.559998,
-2.22015,0.619507,
-2.23999,0.666809,
-2.25677,0.666809,
-2.27356,0.617981,
-2.29034,0.563049,
-2.30865,0.619507,
-2.32391,0.665283,
-2.34222,0.666809,
-2.35748,0.582886,
-2.37732,0.561523,
-2.388,0.619507,
-2.40326,0.662231,
-2.41699,0.666809,
-2.43073,0.621033,
-2.44598,0.561523,
-2.46429,0.617981,
-2.4826,0.662231,
-2.49939,0.668335,
-2.5177,0.616455,
-2.53754,0.559998,
-2.5589,0.628662,
-2.57721,0.669861,
-2.59552,0.666809,
-2.61841,0.619507,
-2.6413,0.556946,
-2.65961,0.611877,
-2.67639,0.665283,
-2.6947,0.657654,
-2.71149,0.621033,
-2.72827,0.558472,
-2.75269,0.610352,
-2.76489,0.668335,
-2.78778,0.65918,
-2.80304,0.617981,
-2.82593,0.559998,
-2.84271,0.605774,
-2.86407,0.660706,
-2.88086,0.660706,
-2.89917,0.617981,
-2.92511,0.55542,
-2.94189,0.622559,
-2.96478,0.662231,
-2.9892,0.654602,
-3.00598,0.617981,
-3.02124,0.559998,
-3.0365,0.605774,
-3.0426,0.65155,
-3.04565,0.674438,
-3.04108,0.616455,
-3.02429,0.556946,
-3.0014,0.59967,
-2.95563,0.669861,
-2.90375,0.657654,
-2.83661,0.616455,
-2.75726,0.556946,
-2.67029,0.595093,
-2.56958,0.665283,
-2.46277,0.657654,
-2.3407,0.614929,
-2.21863,0.561523,
-2.0874,0.592041,
-1.9516,0.662231,
-1.81122,0.660706,
-1.67542,0.624084,
-1.53503,0.559998,
-1.39618,0.592041,
-1.25732,0.666809,
-1.12305,0.657654,
-0.996399,0.613403,
-0.875854,0.552368,
-0.762939,0.588989,
-0.653076,0.662231,
-0.55542,0.656128,
-0.465393,0.613403,
-0.384521,0.559998,
-0.314331,0.587463,
-0.245667,0.668335,
-0.187683,0.657654,
-0.141907,0.634766,
-0.0976563,0.561523,
-0.0656128,0.584412,
-0.0396729,0.662231,
-0.0198364,0.660706,
-0.00305176,0.614929,
0.00762939,0.558472,
0.00915527,0.587463,
0.00152588,0.662231,
-0.00610352,0.628662,
-0.0167847,0.614929,
-0.0396729,0.556946,
-0.0610352,0.584412,
-0.088501,0.660706,
-0.119019,0.657654,
-0.149536,0.636292,
-0.186157,0.515747,
-0.224304,0.584412,
-0.268555,0.660706,
-0.308228,0.660706,
-0.354004,0.614929,
-0.401306,0.556946,
-0.445557,0.58136,
-0.502014,0.714111,
-0.549316,0.669861,
-0.605774,0.611877,
-0.660706,0.55542,
-0.721741,0.58136,
-0.776672,0.660706,
-0.831604,0.65918,
-0.883484,0.614929,
-0.939941,0.553894,
-0.991821,0.579834,
-1.03607,0.662231,
-1.07727,0.660706,
-1.11389,0.631714,
-1.15356,0.559998,
-1.18713,0.579834,
-1.21613,0.665283,
-1.24512,0.662231,
-1.26343,0.613403,
-1.28326,0.55542,
-1.29547,0.595093,
-1.3092,0.65918,
-1.31531,0.660706,
-1.32294,0.608826,
-1.32141,0.553894,
-1.32294,0.57373,
-1.32294,0.65918,
-1.32141,0.650024,
-1.31683,0.613403,
-1.31226,0.553894,
-1.31073,0.579834,
-1.30157,0.660706,
-1.29089,0.669861,
-1.27869,0.610352,
-1.26038,0.553894,
-1.24664,0.575256,
-1.23138,0.657654,
-1.2207,0.665283,
-1.2085,0.614929,
-1.19324,0.55542,
-1.18103,0.57373,
-1.1734,0.656128,
-1.16577,0.674438,
-1.16272,0.604248,
-1.15814,0.558472,
-1.15662,0.57373,
-1.15204,0.653076,
-1.15204,0.669861,
-1.15204,0.611877,
-1.15662,0.559998,
-1.16425,0.57373,
-1.16577,0.65918,
-1.17493,0.671387,
-1.19019,0.613403,
-1.20544,0.558472,
-1.22223,0.57373,
-1.23596,0.654602,
-1.2619,0.668335,
-1.28326,0.611877,
-1.30463,0.553894,
-1.33362,0.575256,
-1.35651,0.654602,
-1.38245,0.668335,
-1.40228,0.613403,
-1.42517,0.552368,
-1.45416,0.57373,
-1.48315,0.653076,
-1.50909,0.665283,
-1.53351,0.617981,
-1.56708,0.550842,
-1.59912,0.570679,
-1.63422,0.657654,
-1.66473,0.65155,
-1.6983,0.613403,
-1.73035,0.549316,
-1.76544,0.572205,
-1.78986,0.65918,
-1.81732,0.666809,
-1.85242,0.614929,
-1.88446,0.549316,
-1.91498,0.575256,
-1.9516,0.656128,
-1.98059,0.668335,
-2.01263,0.611877,
-2.0462,0.552368,
-2.0813,0.57373,
-2.11639,0.656128,
-2.14539,0.669861,
-2.17743,0.611877,
-2.211,0.552368,
-2.23236,0.57373,
-2.26288,0.650024,
-2.28729,0.671387,
-2.31781,0.613403,
-2.34375,0.556946,
-2.37122,0.572205,
-2.39868,0.637817,
-2.42157,0.686646,
-2.44598,0.613403,
-2.46887,0.55542,
-2.49023,0.544739,
-2.51617,0.653076,
-2.53754,0.674438,
-2.56348,0.605774,
-2.58026,0.546265,
-2.6062,0.578308,
-2.62756,0.628662,
-2.64587,0.668335,
-2.66113,0.613403,
-2.67639,0.556946,
-2.6947,0.572205,
-2.71149,0.650024,
-2.72522,0.669861,
-2.742,0.611877,
-2.76031,0.558472,
-2.77863,0.578308,
-2.79083,0.650024,
-2.80457,0.672913,
-2.81677,0.610352,
-2.83203,0.558472,
-2.84576,0.576782,
-2.86407,0.65155,
-2.87628,0.668335,
-2.88696,0.616455,
-2.9007,0.556946,
-2.91595,0.552368,
-2.93121,0.642395,
-2.94189,0.669861,
-2.95258,0.610352,
-2.97241,0.55542,
-2.98615,0.575256,
-3.00446,0.645447,
-3.01666,0.691223,
-3.0365,0.610352,
-3.04871,0.563049,
-3.07007,0.575256,
-3.0838,0.643921,
-3.09753,0.680542,
-3.11127,0.614929,
-3.12653,0.570679,
-3.14484,0.575256,
-3.1662,0.639343,
-3.18146,0.674438,
-3.20129,0.608826,
-3.22266,0.563049,
-3.24402,0.570679,
-3.26233,0.637817,
-3.28369,0.679016,
-3.30658,0.610352,
-3.32336,0.561523,
-3.3432,0.575256,
-3.36609,0.636292,
-3.37677,0.682068,
-3.3905,0.611877,
-3.38898,0.569153,
-3.39355,0.585938,
-3.38745,0.637817,
-3.36761,0.683594,
-3.33862,0.613403,
-3.29132,0.563049,
-3.23639,0.576782,
-3.1601,0.637817,
-3.08075,0.680542,
-2.98309,0.619507,
-2.88544,0.567627,
-2.77405,0.587463,
-2.65503,0.636292,
-2.52991,0.680542,
-2.40326,0.614929,
-2.27051,0.569153,
-2.12708,0.582886,
-1.99127,0.639343,
-1.85394,0.689697,
-1.71204,0.614929,
-1.57318,0.563049,
-1.44348,0.578308,
-1.31378,0.628662,
-1.19476,0.682068,
-1.0788,0.613403,
-0.975037,0.569153,
-0.880432,0.584412,
-0.784302,0.634766,
-0.706482,0.680542,
-0.63324,0.613403,
-0.569153,0.569153,
-0.511169,0.595093,
-0.460815,0.636292,
-0.419617,0.679016,
-0.384521,0.619507,
-0.357056,0.576782,
-0.340271,0.584412,
-0.32959,0.631714,
-0.326538,0.683594,
-0.323486,0.613403,
-0.331116,0.570679,
-0.346375,0.585938,
-0.363159,0.628662,
-0.389099,0.671387,
-0.416565,0.621033,
-0.450134,0.575256,
-0.479126,0.587463,
-0.518799,0.628662,
-0.558472,0.68512,
-0.598145,0.613403,
-0.645447,0.575256,
-0.691223,0.585938,
-0.738525,0.637817,
-0.785828,0.695801,
-0.840759,0.614929,
-0.891113,0.576782,
-0.946045,0.593567,
-0.996399,0.63324,
-1.05286,0.679016,
-1.10626,0.614929,
-1.15814,0.575256,
-1.21002,0.604248,
-1.26495,0.624084,
-1.31683,0.683594,
-1.36566,0.616455,
-1.41602,0.57373,
-1.45721,0.592041,
-1.50146,0.648499,
-1.53656,0.680542,
-1.56708,0.611877,
-1.60065,0.578308,
-1.62506,0.593567,
-1.64642,0.622559,
-1.66626,0.679016,
-1.67847,0.611877,
-1.69067,0.579834,
-1.69373,0.593567,
-1.70593,0.627136,
-1.70288,0.679016,
-1.69678,0.616455,
-1.6922,0.578308,
-1.67999,0.601196,
-1.66779,0.627136,
-1.65253,0.674438,
-1.62964,0.614929,
-1.60828,0.58136,
-1.58539,0.598145,
-1.56403,0.627136,
-1.53656,0.679016,
-1.50909,0.616455,
-1.48926,0.585938,
-1.46484,0.598145,
-1.44653,0.617981,
-1.42975,0.67749,
-1.41602,0.608826,
-1.40076,0.585938,
-1.39465,0.598145,
-1.39008,0.622559,
-1.38245,0.656128,
-1.37024,0.619507,
-1.36871,0.582886,
-1.36566,0.601196,
-1.36719,0.628662,
-1.36871,0.679016,
-1.37024,0.622559,
-1.37482,0.563049,
-1.38702,0.614929,
-1.39465,0.62561,
-1.40533,0.680542,
-1.41754,0.621033,
-1.43127,0.590515,
-1.45264,0.601196,
-1.4679,0.631714,
-1.49078,0.695801,
-1.51215,0.617981,
-1.53809,0.585938,
-1.5625,0.59967,
-1.58386,0.622559,
-1.60828,0.680542,
-1.63269,0.62561,
-1.66016,0.575256,
-1.69067,0.587463,
-1.71661,0.62561,
-1.74561,0.680542,
-1.77917,0.624084,
-1.81274,0.58136,
-1.84479,0.598145,
-1.87683,0.624084,
-1.9104,0.679016,
-1.93939,0.627136,
-1.96686,0.588989,
-1.99738,0.601196,
-2.02637,0.62561,
-2.05383,0.672913,
-2.08435,0.621033,
-2.11182,0.590515,
-2.13928,0.611877,
-2.1698,0.636292,
-2.18811,0.679016,
-2.2171,0.627136,
-2.24609,0.585938,
-2.27203,0.576782,
-2.29645,0.63324,
-2.31934,0.674438,
-2.34528,0.624084,
-2.37427,0.593567,
-2.3941,0.592041,
-2.41852,0.628662,
-2.43988,0.675964,
-2.45819,0.62561,
-2.4826,0.585938,
-2.50244,0.605774,
-2.52991,0.62561,
-2.54211,0.67749,
-2.56805,0.636292,
-2.58636,0.587463,
-2.6062,0.601196,
-2.62451,0.628662,
-2.6413,0.675964,
-2.66113,0.624084,
-2.67487,0.58136,
-2.6947,0.582886,
-2.70996,0.628662,
-2.72675,0.675964,
-2.742,0.627136,
-2.75879,0.582886,
-2.76947,0.601196,
-2.78015,0.627136,
-2.79694,0.672913,
-2.81219,0.636292,
-2.82898,0.550842,
-2.84576,0.595093,
-2.8595,0.627136,
-2.8717,0.669861,
-2.88696,0.639343,
-2.89764,0.579834,
-2.91748,0.6073,
-2.93274,0.643921,
-2.94952,0.706482,
-2.96783,0.634766,
-2.98767,0.582886,
-3.00446,0.598145,
-3.01971,0.628662,
-3.0365,0.672913,
-3.05328,0.622559,
-3.07159,0.592041,
-3.08838,0.598145,
-3.10364,0.627136,
-3.11737,0.671387,
-3.1311,0.637817,
-3.14178,0.590515,
-3.15247,0.605774,
-3.15857,0.627136,
-3.16467,0.675964,
-3.1723,0.639343,
-3.17383,0.588989,
-3.1723,0.593567,
-3.16467,0.611877,
-3.14484,0.671387,
-3.11737,0.640869,
-3.07465,0.588989,
-3.01971,0.593567,
-2.96173,0.613403,
-2.88544,0.669861,
-2.79694,0.642395,
-2.70386,0.590515,
-2.59857,0.592041,
-2.49176,0.627136,
-2.36969,0.666809,
-2.24304,0.646973,
-2.11029,0.587463,
-1.98364,0.587463,
-1.84937,0.627136,
-1.71204,0.662231,
-1.57776,0.648499,
-1.44348,0.585938,
-1.31378,0.588989,
-1.18866,0.628662,
-1.06812,0.668335,
-0.958252,0.648499,
-0.856018,0.587463,
-0.753784,0.585938,
-0.660706,0.628662,
-0.578308,0.660706,
-0.50354,0.650024,
-0.436401,0.58136,
-0.379944,0.584412,
-0.328064,0.631714,
-0.291443,0.665283,
-0.259399,0.645447,
-0.239563,0.588989,
-0.222778,0.58136,
-0.213623,0.627136,
-0.210571,0.640869,
-0.212097,0.65155,
-0.221252,0.585938,
-0.233459,0.592041,
-0.250244,0.622559,
-0.267029,0.665283,
-0.292969,0.65155,
-0.320435,0.588989,
-0.352478,0.582886,
-0.38147,0.628662,
-0.410461,0.660706,
-0.448608,0.653076,
-0.488281,0.592041,
-0.527954,0.584412,
-0.57373,0.628662,
-0.616455,0.665283,
-0.666809,0.656128,
-0.714111,0.585938,
-0.762939,0.585938,
-0.811768,0.628662,
-0.863647,0.666809,
-0.918579,0.653076,
-0.970459,0.590515,
-1.02081,0.58136,
-1.07117,0.631714,
-1.12,0.660706,
-1.17035,0.656128,
-1.21765,0.579834,
-1.26343,0.587463,
-1.30615,0.634766,
-1.3504,0.660706,
-1.38245,0.656128,
-1.41602,0.587463,
-1.44348,0.584412,
-1.46942,0.628662,
-1.48621,0.662231,
-1.50299,0.654602,
-1.51825,0.584412,
-1.5213,0.582886,
-1.52435,0.631714,
-1.52283,0.65918,
-1.51825,0.656128,
-1.51062,0.585938,
-1.50146,0.579834,
-1.48468,0.63324,
-1.47247,0.657654,
-1.46332,0.653076,
-1.45416,0.58136,
-1.4389,0.578308,
-1.4267,0.62561,
-1.41144,0.657654,
-1.39313,0.657654,
-1.37177,0.58136,
-1.36414,0.579834,
-1.34888,0.627136,
-1.33362,0.654602,
-1.32294,0.660706,
-1.31683,0.582886,
-1.3092,0.576782,
-1.30005,0.624084,
-1.297,0.65155,
-1.29242,0.657654,
-1.28784,0.575256,
-1.29242,0.567627,
-1.29242,0.627136,
-1.29395,0.657654,
-1.29547,0.656128,
-1.30005,0.576782,
-1.30463,0.578308,
-1.31683,0.62561,
-1.33057,0.657654,
-1.34888,0.656128,
-1.36414,0.578308,
-1.38245,0.57373,
-1.39771,0.627136,
-1.41602,0.654602,
-1.43585,0.654602,
-1.46179,0.57373,
-1.48773,0.576782,
-1.5152,0.627136,
-1.53961,0.654602,
-1.5686,0.656128,
-1.60522,0.575256,
-1.63422,0.576782,
-1.66779,0.62561,
-1.69678,0.650024,
-1.73035,0.654602,
-1.76239,0.553894,
-1.79138,0.572205,
-1.82953,0.622559,
-1.86005,0.653076,
-1.89362,0.657654,
-1.91803,0.576782,
-1.94855,0.572205,
-1.97449,0.622559,
-2.00348,0.656128,
-2.03247,0.656128,
-2.05994,0.578308,
-2.09198,0.575256,
-2.1225,0.624084,
-2.14691,0.650024,
-2.18506,0.65918,
-2.211,0.585938,
-2.24304,0.575256,
-2.27051,0.619507,
-2.29645,0.65155,
-2.32239,0.656128,
-2.3468,0.576782,
-2.36969,0.575256,
-2.39258,0.621033,
-2.41699,0.653076,
-2.43683,0.657654,
-2.45514,0.578308,
-2.47955,0.570679,
-2.49786,0.619507,
-2.51923,0.654602,
-2.54669,0.65918,
-2.56348,0.57373,
-2.59399,0.572205,
-2.6123,0.624084,
-2.63824,0.646973,
-2.65656,0.656128,
-2.67944,0.575256,
-2.6947,0.569153,
-2.71454,0.616455,
-2.7298,0.660706,
-2.74658,0.660706,
-2.76031,0.585938,
-2.77252,0.575256,
-2.78625,0.616455,
-2.79541,0.643921,
-2.80457,0.657654,
-2.81219,0.57373,
-2.82593,0.576782,
-2.83966,0.619507,
-2.85034,0.65155,
-2.86407,0.640869,
-2.87476,0.575256,
-2.89307,0.572205,
-2.90985,0.616455,
-2.91748,0.662231,
-2.93121,0.656128,
-2.94495,0.579834,
-2.96021,0.569153,
-2.97241,0.672913,
-2.98462,0.657654,
-3.00293,0.657654,
-3.01971,0.572205,
-3.0426,0.567627,
-3.05786,0.610352,
-3.07922,0.65155,
-3.09906,0.653076,
-3.11737,0.578308,
-3.13721,0.569153,
-3.15399,0.617981,
-3.16925,0.657654,
-3.18756,0.653076,
-3.20435,0.572205,
-3.2196,0.566101,
-3.23944,0.579834,
-3.25623,0.65918,
-3.26996,0.65155,
-3.28674,0.572205,
-3.29895,0.559998,
-3.30658,0.616455,
-3.30811,0.654602,
-3.30658,0.648499,
-3.29285,0.572205,
-3.26996,0.558472,
-3.23639,0.611877,
-3.18298,0.653076,
-3.12042,0.650024,
-3.05023,0.578308,
-2.96326,0.559998,
-2.87018,0.614929,
-2.76184,0.656128,
-2.63672,0.648499,
-2.50397,0.569153,
-2.36359,0.558472,
-2.21863,0.611877,
-2.06757,0.665283,
-1.91498,0.65155,
-1.76086,0.569153,
-1.60522,0.556946,
-1.45111,0.611877,
-1.297,0.657654,
-1.14594,0.650024,
-1.00403,0.57373,
-0.868225,0.559998,
-0.741577,0.6073,
-0.621033,0.656128,
-0.511169,0.646973,
-0.415039,0.570679,
-0.323486,0.561523,
-0.245667,0.608826,
-0.178528,0.656128,
-0.119019,0.646973,
-0.0717163,0.578308,
-0.0259399,0.561523,
0.0106812,0.610352,
0.0366211,0.65918,
0.0579834,0.645447,
0.0717163,0.572205,
0.0793457,0.559998,
0.0793457,0.610352,
0.0732422,0.654602,
0.062561,0.646973,
0.050354,0.572205,
0.0320435,0.561523,
0.00762939,0.608826,
-0.0137329,0.65918,
-0.038147,0.645447,
-0.0640869,0.57373,
-0.0946045,0.558472,
-0.131226,0.611877,
-0.164795,0.657654,
-0.19989,0.645447,
-0.245667,0.572205,
-0.279236,0.613403,
-0.325012,0.610352,
-0.369263,0.65918,
-0.411987,0.643921,
-0.465393,0.57373,
-0.520325,0.561523,
-0.570679,0.611877,
-0.622559,0.65918,
-0.675964,0.646973,
-0.72937,0.570679,
-0.782776,0.556946,
-0.831604,0.611877,
-0.875854,0.654602,
-0.921631,0.642395,
-0.959778,0.572205,
-0.994873,0.610352,
-1.02692,0.611877,
-1.06049,0.669861,
-1.08948,0.650024,
-1.11237,0.570679,
-1.13831,0.55542,
-1.15509,0.605774,
-1.17188,0.654602,
-1.18408,0.640869,
-1.19171,0.572205,
-1.19324,0.561523,
-1.19629,0.614929,
-1.19629,0.65918,
-1.19324,0.642395,
-1.19019,0.57373,
-1.18408,0.561523,
-1.17493,0.613403,
-1.16119,0.654602,
-1.14441,0.640869,
-1.13678,0.570679,
-1.1261,0.563049,
-1.11389,0.613403,
-1.10626,0.660706,
-1.09406,0.642395,
-1.08337,0.575256,
-1.07422,0.563049,
-1.06201,0.617981,
-1.05591,0.656128,
-1.05438,0.639343,
-1.04675,0.57373,
-1.04218,0.540161,
-1.04065,0.611877,
-1.04065,0.657654,
-1.04218,0.637817,
-1.0498,0.572205,
-1.05591,0.561523,
-1.06506,0.614929,
-1.07574,0.654602,
-1.0849,0.63324,
-1.10168,0.576782,
-1.11694,0.559998,
-1.13678,0.613403,
-1.15356,0.669861,
-1.17798,0.634766,
-1.19629,0.584412,
-1.21918,0.561523,
-1.24512,0.616455,
-1.26801,0.656128,
-1.29242,0.631714,
-1.31226,0.575256,
-1.33972,0.559998,
-1.36414,0.617981,
-1.39618,0.650024,
-1.42517,0.614929,
-1.45721,0.569153,
-1.49078,0.559998,
-1.51672,0.616455,
-1.54877,0.657654,
-1.58386,0.624084,
-1.61438,0.572205,
-1.64948,0.55542,
-1.6861,0.614929,
-1.71814,0.654602,
-1.75171,0.627136,
-1.78375,0.572205,
-1.82037,0.558472,
-1.85547,0.601196,
-1.89056,0.662231,
-1.92413,0.62561,
-1.9577,0.567627,
-1.99585,0.569153,
-2.02026,0.613403,
-2.05078,0.65918,
-2.08282,0.621033,
-2.11182,0.57373,
-2.13776,0.569153,
-2.16522,0.617981,
-2.19116,0.666809,
-2.21863,0.622559,
-2.24609,0.57373,
-2.27509,0.561523,
-2.29645,0.6073,
-2.32544,0.666809,
-2.3468,0.622559,
-2.37122,0.57373,
-2.39258,0.563049,
-2.41547,0.63324,
-2.43378,0.65918,
-2.45361,0.621033,
-2.4704,0.57373,
-2.49176,0.572205,
-2.50702,0.611877,
-2.52838,0.665283,
-2.54211,0.622559,
-2.55737,0.543213,
-2.57416,0.563049,
-2.59094,0.614929,
-2.60468,0.65918,
-2.62146,0.62561,
-2.63519,0.570679,
-2.65198,0.57373,
-2.66571,0.622559,
-2.68555,0.714111,
-2.70386,0.619507,
-2.72369,0.575256,
-2.73438,0.561523,
-2.74658,0.614929,
-2.76337,0.660706,
-2.77405,0.622559,
-2.78931,0.57373,
-2.79999,0.569153,
-2.81525,0.622559,
-2.83051,0.65918,
-2.84119,0.619507,
-2.85645,0.569153,
-2.87476,0.569153,
-2.89459,0.614929,
-2.9129,0.698853,
-2.92816,0.617981,
-2.94952,0.575256,
-2.97394,0.58136,
-2.99683,0.617981,
-3.01971,0.660706,
-3.0426,0.619507,
-3.06396,0.572205,
-3.08685,0.572205,
-3.10822,0.598145,
-3.1311,0.671387,
-3.15399,0.616455,
-3.18298,0.559998,
-3.20892,0.57373,
-3.23334,0.616455,
-3.2547,0.669861,
-3.27606,0.614929,
-3.29437,0.570679,
-3.31268,0.572205,
-3.33252,0.624084,
-3.35236,0.666809,
-3.37067,0.610352,
-3.38745,0.567627,
-3.40271,0.567627,
-3.42102,0.616455,
-3.4317,0.668335,
-3.44391,0.611877,
-3.45001,0.566101,
-3.44849,0.570679,
-3.4317,0.611877,
-3.41187,0.675964,
-3.38135,0.613403,
-3.32947,0.566101,
-3.27301,0.617981,
-3.19977,0.575256,
-3.11584,0.656128,
-3.02277,0.616455,
-2.91443,0.561523,
-2.79999,0.570679,
-2.66724,0.628662,
-2.52838,0.674438,
-2.3819,0.614929,
-2.22931,0.567627,
-2.07672,0.570679,
-1.92108,0.621033,
-1.77155,0.668335,
-1.62048,0.619507,
-1.47247,0.563049,
-1.33362,0.572205,
-1.19781,0.617981,
-1.06506,0.671387,
-0.944519,0.621033,
-0.836182,0.567627,
-0.733948,0.57373,
-0.639343,0.619507,
-0.552368,0.665283,
-0.473022,0.624084,
-0.40741,0.559998,
-0.354004,0.578308,
-0.302124,0.624084,
-0.262451,0.669861,
-0.231934,0.622559,
-0.210571,0.563049,
-0.192261,0.582886,
-0.180054,0.616455,
-0.17395,0.668335,
-0.177002,0.622559,
-0.186157,0.561523,
-0.201416,0.575256,
-0.219727,0.616455,
-0.239563,0.671387,
-0.267029,0.627136,
-0.299072,0.561523,
-0.32959,0.576782,
-0.366211,0.611877,
-0.39978,0.671387,
-0.437927,0.634766,
-0.474548,0.549316,
-0.514221,0.567627,
-0.556946,0.619507,
-0.604248,0.683594,
-0.65155,0.624084,
-0.70343,0.569153,
-0.758362,0.538635,
-0.802612,0.614929,
-0.85907,0.669861,
-0.91095,0.643921,
-0.968933,0.556946,
-1.02081,0.57373,
-1.07727,0.614929,
-1.12762,0.668335,
-1.1795,0.62561,
-1.22528,0.547791,
-1.26648,0.57373,
-1.31226,0.613403,
-1.35193,0.669861,
-1.39008,0.640869,
-1.4267,0.543213,
-1.45569,0.593567,
-1.48163,0.616455,
-1.50604,0.669861,
-1.52435,0.645447,
-1.54114,0.563049,
-1.55334,0.576782,
-1.5686,0.62561,
-1.57166,0.671387,
-1.57471,0.642395,
-1.57623,0.567627,
-1.57318,0.578308,
-1.57166,0.610352,
-1.56555,0.671387,
-1.55945,0.645447,
-1.55182,0.567627,
-1.54877,0.590515,
-1.53961,0.622559,
-1.52588,0.671387,
-1.51672,0.643921,
-1.50604,0.566101,
-1.49536,0.584412,
-1.49078,0.604248,
-1.48315,0.671387,
-1.474,0.650024,
-1.46942,0.561523,
-1.4679,0.578308,
-1.46484,0.616455,
-1.45874,0.671387,
-1.46332,0.650024,
-1.46637,0.566101,
-1.47095,0.578308,
-1.47552,0.617981,
-1.48468,0.672913,
-1.49384,0.648499,
-1.50299,0.563049,
-1.51825,0.575256,
-1.53351,0.617981,
-1.55334,0.680542,
-1.57166,0.665283,
-1.59302,0.563049,
-1.61133,0.575256,
-1.63727,0.621033,
-1.6571,0.675964,
-1.67999,0.648499,
-1.70135,0.558472,
-1.72729,0.559998,
-1.75781,0.614929,
-1.78528,0.669861,
-1.8158,0.653076,
-1.84631,0.569153,
-1.88141,0.567627,
-1.91803,0.617981,
-1.95923,0.672913,
-1.98975,0.65155,
-2.02637,0.567627,
-2.06451,0.582886,
-2.09503,0.614929,
-2.12555,0.671387,
-2.15759,0.654602,
-2.19116,0.570679,
-2.22778,0.582886,
-2.2644,0.608826,
-2.29797,0.672913,
-2.33612,0.654602,
-2.36969,0.570679,
-2.40936,0.570679,
-2.44446,0.608826,
-2.47498,0.68512,
-2.50549,0.698853,
-2.54059,0.563049,
-2.57263,0.569153,
-2.60315,0.621033,
-2.62909,0.671387,
-2.65808,0.654602,
-2.68402,0.572205,
-2.71149,0.575256,
-2.73743,0.617981,
-2.76642,0.674438,
-2.79541,0.660706,
-2.8183,0.572205,
-2.84729,0.567627,
-2.87476,0.621033,
-2.89764,0.674438,
-2.91595,0.656128,
-2.94037,0.572205,
-2.96326,0.559998,
-2.99072,0.621033,
-3.01361,0.671387,
-3.0304,0.640869,
-3.05176,0.570679,
-3.07007,0.566101,
-3.0899,0.621033,
-3.11432,0.671387,
-3.13568,0.657654,
-3.15094,0.570679,
-3.17535,0.563049,
-3.19366,0.622559,
-3.21198,0.672913,
-3.22723,0.65918,
-3.24402,0.570679,
-3.26233,0.566101,
-3.27759,0.621033,
-3.29285,0.672913,
-3.302,0.662231,
-3.31421,0.570679,
-3.32642,0.563049,
-3.3432,0.622559,
-3.36151,0.671387,
-3.3783,0.654602,
-3.39508,0.588989,
-3.41339,0.563049,
-3.43018,0.621033,
-3.45001,0.671387,
-3.46375,0.654602,
-3.479,0.57373,
-3.49731,0.566101,
-3.51563,0.617981,
-3.53546,0.636292,
-3.55377,0.639343,
-3.57056,0.570679,
-3.59192,0.569153,
-3.60565,0.611877,
-3.62396,0.671387,
-3.6438,0.675964,
-3.66211,0.57373,
-3.68195,0.561523,
-3.70178,0.624084,
-3.72314,0.672913,
-3.73688,0.656128,
-3.75977,0.570679,
-3.78418,0.55542,
-3.80249,0.614929,
-3.8269,0.674438,
-3.84827,0.660706,
-3.87573,0.57373,
-3.90015,0.556946,
-3.92303,0.614929,
-3.94592,0.671387,
-3.96881,0.654602,
-3.98712,0.575256,
-4.01154,0.559998,
-4.03595,0.616455,
-4.05884,0.665283,
-4.07867,0.656128,
-4.10156,0.593567,
-4.11682,0.563049,
-4.13055,0.617981,
-4.13666,0.671387,
-4.13971,0.654602,
-4.1275,0.578308,
-4.10461,0.556946,
-4.06189,0.634766,
-4.00696,0.665283,
-3.93829,0.656128,
-3.85284,0.582886,
-3.75977,0.558472,
-3.65295,0.621033,
-3.52631,0.671387,
-3.39203,0.669861,
-3.25165,0.58136,
-3.11127,0.553894,
-2.96173,0.617981,
-2.80609,0.668335,
-2.65503,0.656128,
-2.50244,0.584412,
-2.34375,0.561523,
-2.19116,0.619507,
-2.0462,0.665283,
-1.90277,0.656128,
-1.76544,0.588989,
-1.63574,0.543213,
-1.51825,0.614929,
-1.40381,0.669861,
-1.30005,0.657654,
-1.2085,0.587463,
-1.12152,0.553894,
-1.04523,0.608826,
-0.979614,0.622559,
-0.917053,0.654602,
-0.871277,0.588989,
-0.83313,0.558472,
-0.802612,0.627136,
-0.776672,0.666809,
-0.753784,0.650024,
-0.744629,0.587463,
-0.740051,0.543213,
-0.740051,0.613403,
-0.744629,0.668335,
-0.758362,0.65155,
-0.775146,0.588989,
-0.798035,0.546265,
-0.822449,0.611877,
-0.848389,0.671387,
-0.875854,0.653076,
-0.914001,0.590515,
-0.952148,0.553894,
-0.991821,0.614929,
-1.0376,0.662231,
-1.0788,0.656128,
-1.12152,0.592041,
-1.1673,0.563049,
-1.21765,0.617981,
-1.26648,0.65918,
-1.31378,0.648499,
-1.36261,0.590515,
-1.41907,0.550842,
-1.46942,0.611877,
-1.52283,0.654602,
-1.57928,0.648499,
-1.63422,0.588989,
-1.6922,0.546265,
-1.74408,0.614929,
-1.80054,0.654602,
-1.85089,0.645447,
-1.89362,0.593567,
-1.93787,0.558472,
-1.97449,0.613403,
-2.01263,0.654602,
-2.0462,0.646973,
-2.07367,0.593567,
-2.10114,0.546265,
-2.11792,0.617981,
-2.13623,0.645447,
-2.14844,0.650024,
-2.15607,0.602722,
-2.16522,0.547791,
-2.16522,0.616455,
-2.16522,0.653076,
-2.16064,0.642395,
-2.15149,0.595093,
-2.14233,0.552368,
-2.13318,0.631714,
-2.1225,0.653076,
-2.10876,0.642395,
-2.09351,0.59967,
-2.07977,0.543213,
-2.05994,0.616455,
-2.0401,0.65155,
-2.02637,0.639343,
-2.01416,0.584412,
-2.00043,0.540161,
-1.99127,0.614929,
-1.97906,0.646973,
-1.96533,0.642395,
-1.9577,0.598145,
-1.94244,0.544739,
-1.93787,0.602722,
-1.93024,0.617981,
-1.91803,0.613403,
-1.91956,0.598145,
-1.91803,0.547791,
-1.91956,0.624084,
-1.92413,0.650024,
-1.93329,0.650024,
-1.93939,0.602722,
-1.94855,0.550842,
-1.96228,0.608826,
-1.97296,0.646973,
-1.98669,0.636292,
-2.00653,0.602722,
-2.02789,0.550842,
-2.04926,0.613403,
-2.07367,0.646973,
-2.10114,0.63324,
-2.1225,0.608826,
-2.15149,0.552368,
-2.18048,0.610352,
-2.20337,0.645447,
-2.22626,0.63324,
-2.25983,0.605774,
-2.29034,0.550842,
-2.31934,0.611877,
-2.3468,0.654602,
-2.37427,0.634766,
-2.40173,0.601196,
-2.42615,0.553894,
-2.45361,0.610352,
-2.47955,0.628662,
-2.50702,0.595093,
-2.53296,0.614929,
-2.56195,0.550842,
-2.59552,0.610352,
-2.62604,0.640869,
-2.65656,0.631714,
-2.68555,0.598145,
-2.72064,0.550842,
-2.75269,0.608826,
-2.78625,0.640869,
-2.81525,0.627136,
-2.84729,0.598145,
-2.87476,0.546265,
-2.90375,0.6073,
-2.93274,0.639343,
-2.96021,0.62561,
-2.98462,0.601196,
-3.00903,0.550842,
-3.03497,0.610352,
-3.05786,0.639343,
-3.08075,0.628662,
-3.11127,0.59967,
-3.13416,0.547791,
-3.15704,0.610352,
-3.17688,0.639343,
-3.19672,0.627136,
-3.21655,0.598145,
-3.23486,0.552368,
-3.2486,0.6073,
-3.26538,0.634766,
-3.27911,0.628662,
-3.29437,0.601196,
-3.31268,0.547791,
-3.32642,0.610352,
-3.34015,0.628662,
-3.35236,0.584412,
-3.36609,0.595093,
-3.3783,0.550842,
-3.38898,0.601196,
-3.39813,0.643921,
-3.41034,0.636292,
-3.42712,0.605774,
-3.43475,0.550842,
-3.45001,0.59967,
-3.46069,0.640869,
-3.479,0.631714,
-3.48969,0.59967,
-3.508,0.55542,
-3.51715,0.598145,
-3.52936,0.634766,
-3.54004,0.627136,
-3.5553,0.601196,
-3.57056,0.552368,
-3.59192,0.59967,
-3.61176,0.637817,
-3.62701,0.627136,
-3.64685,0.601196,
-3.66669,0.552368,
-3.68805,0.598145,
-3.70483,0.639343,
-3.71704,0.627136,
-3.73535,0.602722,
-3.75214,0.550842,
-3.77197,0.598145,
-3.78723,0.639343,
-3.80554,0.631714,
-3.82385,0.59967,
-3.84521,0.55542,
-3.86047,0.593567,
-3.87573,0.637817,
-3.88947,0.634766,
-3.89404,0.601196,
-3.9032,0.553894,
-3.90625,0.593567,
-3.90625,0.636292,
-3.89404,0.631714,
-3.87268,0.593567,
-3.84064,0.556946,
-3.78876,0.587463,
-3.72925,0.637817,
-3.65906,0.631714,
-3.57208,0.59967,
-3.479,0.556946,
-3.36761,0.592041,
-3.25012,0.642395,
-3.12653,0.634766,
-2.99377,0.598145,
-2.85645,0.552368,
-2.70996,0.585938,
-2.565,0.634766,
-2.41852,0.622559,
-2.27661,0.593567,
-2.13013,0.567627,
-1.98822,0.584412,
-1.84937,0.622559,
-1.72272,0.639343,
-1.59149,0.598145,
-1.474,0.556946,
-1.36108,0.582886,
-1.25885,0.637817,
-1.17035,0.637817,
-1.08337,0.598145,
-1.00708,0.631714,
-0.941467,0.582886,
-0.88501,0.622559,
-0.837708,0.640869,
-0.801086,0.59967,
-0.773621,0.552368,
-0.750732,0.576782,
-0.733948,0.639343,
-0.724792,0.640869,
-0.724792,0.595093,
-0.726318,0.558472,
-0.733948,0.576782,
-0.750732,0.636292,
-0.770569,0.642395,
-0.794983,0.593567,
-0.816345,0.558472,
-0.843811,0.575256,
-0.87738,0.636292,
-0.909424,0.650024,
-0.950623,0.598145,
-0.993347,0.559998,
-1.0376,0.578308,
-1.08185,0.627136,
-1.12305,0.646973,
-1.17035,0.598145,
-1.21918,0.556946,
-1.27411,0.578308,
-1.32904,0.634766,
-1.3855,0.645447,
-1.43585,0.605774,
-1.49536,0.563049,
-1.5564,0.572205,
-1.61438,0.634766,
-1.67236,0.645447,
-1.72729,0.593567,
-1.7807,0.55542,
-1.83411,0.57373,
-1.88446,0.628662,
-1.93024,0.628662,
-1.97601,0.605774,
-2.01721,0.561523,
-2.05536,0.576782,
-2.08588,0.636292,
-2.11639,0.643921,
-2.14233,0.59967,
-2.16064,0.559998,
-2.18353,0.575256,
-2.20184,0.63324,
-2.21252,0.646973,
-2.22473,0.598145,
-2.23694,0.559998,
-2.24152,0.57373,
-2.24152,0.637817,
-2.23846,0.65155,
-2.23236,0.57373,
-2.22168,0.57373,
-2.211,0.570679,
-2.20184,0.640869,
-2.19116,0.648499,
-2.1759,0.588989,
-2.1637,0.55542,
-2.14691,0.567627,
-2.1347,0.650024,
-2.11334,0.634766,
-2.10571,0.604248,
-2.09045,0.563049,
-2.0752,0.578308,
-2.06909,0.671387,
-2.05231,0.622559,
-2.04468,0.602722,
-2.03705,0.572205,
-2.03247,0.569153,
-2.02637,0.642395,
-2.02484,0.648499,
-2.02789,0.593567,
-2.034,0.561523,
-2.0401,0.569153,
-2.04163,0.637817,
-2.0462,0.646973,
-2.05688,0.593567,
-2.07214,0.558472,
-2.0874,0.569153,
-2.10571,0.643921,
-2.11639,0.650024,
-2.1347,0.595093,
-2.15302,0.567627,
-2.17743,0.563049,
-2.20184,0.640869,
-2.22321,0.654602,
-2.24609,0.598145,
-2.27051,0.570679,
-2.2934,0.567627,
-2.31171,0.645447,
-2.33459,0.656128,
-2.35596,0.598145,
-2.3819,0.563049,
-2.41089,0.572205,
-2.43988,0.640869,
-2.46735,0.656128,
-2.49329,0.595093,
-2.5238,0.567627,
-2.56042,0.567627,
-2.59094,0.642395,
-2.62299,0.65155,
-2.65656,0.59967,
-2.68555,0.570679,
-2.71454,0.569153,
-2.74658,0.642395,
-2.78015,0.65155,
-2.80609,0.601196,
-2.83356,0.569153,
-2.86713,0.570679,
-2.89764,0.642395,
-2.92664,0.657654,
-2.9541,0.593567,
-2.98157,0.547791,
-3.01208,0.567627,
-3.0365,0.637817,
-3.07159,0.665283,
-3.09601,0.601196,
-3.12195,0.569153,
-3.14636,0.58136,
-3.1723,0.640869,
-3.19061,0.656128,
-3.21655,0.59967,
-3.23639,0.566101,
-3.26233,0.569153,
-3.28827,0.640869,
-3.30963,0.657654,
-3.33099,0.605774,
-3.35541,0.563049,
-3.38287,0.569153,
-3.41339,0.643921,
-3.42865,0.657654,
-3.44849,0.602722,
-3.46985,0.570679,
-3.49121,0.579834,
-3.508,0.642395,
-3.52783,0.656128,
-3.53851,0.602722,
-3.55072,0.537109,
-3.55835,0.572205,
-3.57361,0.640869,
-3.58887,0.643921,
-3.60565,0.604248,
-3.62244,0.558472,
-3.64075,0.569153,
-3.65448,0.648499,
-3.67279,0.712585,
-3.68958,0.6073,
-3.71552,0.544739,
-3.73383,0.57373,
-3.75061,0.645447,
-3.77045,0.665283,
-3.78571,0.6073,
-3.80096,0.578308,
-3.81775,0.55542,
-3.83301,0.640869,
-3.85284,0.65918,
-3.87115,0.604248,
-3.88794,0.572205,
-3.90625,0.570679,
-3.92761,0.642395,
-3.9444,0.666809,
-3.96423,0.604248,
-3.98407,0.566101,
-4.00238,0.572205,
-4.02374,0.640869,
-4.039,0.662231,
-4.04968,0.602722,
-4.06799,0.566101,
-4.08173,0.567627,
-4.08783,0.642395,
-4.09546,0.660706,
-4.09546,0.602722,
-4.08173,0.563049,
-4.06036,0.570679,
-4.03137,0.643921,
-3.98407,0.674438,
-3.93066,0.6073,
-3.862,0.559998,
-3.77502,0.570679,
-3.67584,0.643921,
-3.56598,0.67749,
-3.45001,0.613403,
-3.32031,0.544739,
-3.18451,0.570679,
-3.04108,0.642395,
-2.89154,0.666809,
-2.73895,0.613403,
-2.58484,0.561523,
-2.43073,0.57373,
-2.27661,0.648499,
-2.12555,0.665283,
-1.97906,0.608826,
-1.84021,0.561523,
-1.70288,0.578308,
-1.57166,0.645447,
-1.44196,0.665283,
-1.32751,0.601196,
-1.21613,0.55542,
-1.11084,0.57373,
-1.01624,0.643921,
-0.935364,0.665283,
-0.862122,0.610352,
-0.798035,0.55542,
-0.741577,0.578308,
-0.697327,0.646973,
-0.656128,0.666809,
-0.627136,0.613403,
-0.608826,0.559998,
-0.590515,0.578308,
-0.588989,0.645447,
-0.588989,0.666809,
-0.593567,0.611877,
-0.601196,0.558472,
-0.614929,0.578308,
-0.63324,0.646973,
-0.65155,0.657654,
-0.674438,0.608826,
-0.701904,0.559998,
-0.733948,0.58136,
-0.767517,0.645447,
-0.802612,0.662231,
-0.831604,0.610352,
-0.869751,0.558472,
-0.912476,0.578308,
-0.950623,0.645447,
-0.996399,0.668335,
-1.04218,0.610352,
-1.091,0.563049,
-1.13831,0.578308,
-1.18561,0.646973,
-1.23444,0.666809,
-1.29089,0.605774,
-1.33667,0.566101,
-1.39008,0.575256,
-1.43738,0.645447,
-1.48621,0.665283,
-1.53351,0.6073,
-1.57623,0.563049,
-1.62048,0.575256,
-1.66779,0.648499,
-1.71051,0.666809,
-1.74561,0.610352,
-1.7807,0.563049,
-1.80817,0.58136,
-1.83258,0.646973,
-1.85242,0.65918,
-1.87073,0.608826,
-1.88904,0.575256,
-1.89819,0.578308,
-1.9104,0.646973,
-1.91345,0.666809,
-1.91498,0.610352,
-1.91498,0.563049,
-1.91345,0.584412,
-1.90887,0.646973,
-1.90887,0.660706,
-1.90125,0.585938,
-1.89514,0.553894,
-1.88599,0.579834,
-1.87378,0.646973,
-1.86005,0.65918,
-1.84479,0.608826,
-1.83105,0.563049,
-1.81274,0.582886,
-1.80054,0.646973,
-1.7868,0.665283,
-1.77307,0.6073,
-1.76086,0.559998,
-1.74561,0.588989,
-1.73492,0.65155,
-1.72882,0.662231,
-1.71661,0.610352,
-1.71356,0.563049,
-1.71204,0.585938,
-1.72119,0.648499,
-1.71814,0.665283,
-1.72729,0.605774,
-1.73492,0.559998,
-1.74561,0.588989,
-1.75018,0.648499,
-1.75934,0.662231,
-1.77002,0.610352,
-1.78528,0.561523,
-1.79901,0.621033,
-1.81427,0.646973,
-1.83258,0.665283,
-1.84784,0.616455,
-1.86462,0.558472,
-1.87836,0.593567,
-1.89819,0.648499,
-1.9165,0.662231,
-1.93176,0.608826,
-1.95313,0.567627,
-1.97601,0.601196,
-1.99738,0.653076,
-2.02484,0.662231,
-2.0462,0.6073,
-2.07672,0.559998,
-2.09961,0.593567,
-2.12708,0.653076,
-2.15454,0.65918,
-2.18506,0.611877,
-2.21405,0.55542,
-2.24915,0.598145,
-2.27661,0.648499,
-2.30865,0.665283,
-2.33917,0.608826,
-2.36969,0.556946,
-2.39563,0.605774,
-2.4231,0.65155,
-2.45209,0.656128,
-2.48718,0.610352,
-2.51617,0.563049,
-2.54669,0.598145,
-2.57568,0.656128,
-2.60925,0.666809,
-2.63977,0.602722,
-2.67029,0.579834,
-2.70081,0.592041,
-2.72827,0.656128,
-2.75574,0.675964,
-2.78625,0.608826,
-2.81067,0.563049,
-2.84119,0.602722,
-2.86407,0.650024,
-2.89001,0.665283,
-2.91595,0.611877,
-2.94037,0.563049,
-2.96478,0.602722,
-2.99377,0.648499,
-3.01361,0.662231,
-3.03802,0.6073,
-3.05786,0.567627,
-3.07922,0.602722,
-3.10059,0.648499,
-3.11737,0.662231,
-3.13721,0.6073,
-3.15552,0.559998,
-3.17383,0.601196,
-3.18909,0.648499,
-3.20587,0.666809,
-3.2196,0.604248,
-3.23486,0.553894,
-3.2486,0.604248,
-3.26385,0.653076,
-3.27454,0.660706,
-3.28674,0.608826,
-3.30505,0.559998,
-3.31726,0.637817,
-3.33252,0.666809,
-3.3493,0.657654,
-3.37067,0.604248,
-3.39203,0.559998,
-3.41339,0.604248,
-3.43323,0.65155,
-3.44696,0.660706,
-3.46375,0.601196,
-3.47443,0.566101,
-3.48969,0.605774,
-3.50494,0.653076,
-3.52936,0.657654,
-3.54767,0.608826,
-3.56598,0.561523,
-3.58582,0.6073,
-3.60107,0.656128,
-3.61938,0.65918,
-3.6377,0.610352,
-3.65295,0.556946,
-3.67584,0.613403,
-3.69415,0.657654,
-3.70941,0.683594,
-3.72772,0.610352,
-3.74146,0.55542,
-3.75366,0.617981,
-3.7674,0.656128,
-3.7735,0.656128,
-3.77655,0.610352,
-3.77197,0.55542,
-3.75671,0.619507,
-3.7323,0.650024,
-3.69568,0.653076,
-3.6438,0.604248,
-3.58124,0.552368,
-3.50037,0.611877,
-3.40576,0.648499,
-3.29742,0.662231,
-3.18298,0.611877,
-3.05634,0.547791,
-2.92664,0.617981,
-2.78778,0.656128,
-2.63977,0.665283,
-2.49481,0.611877,
-2.3468,0.561523,
-2.20184,0.605774,
-2.05078,0.671387,
-1.90735,0.660706,
-1.76849,0.613403,
-1.62964,0.556946,
-1.49841,0.604248,
-1.36871,0.662231,
-1.24817,0.65918,
-1.13068,0.622559,
-1.02692,0.55542,
-0.930786,0.614929,
-0.842285,0.662231,
-0.765991,0.65918,
-0.697327,0.610352,
-0.642395,0.556946,
-0.595093,0.610352,
-0.546265,0.660706,
-0.511169,0.657654,
-0.489807,0.611877,
-0.462341,0.553894,
-0.456238,0.608826,
-0.445557,0.660706,
-0.45166,0.65155,
-0.460815,0.610352,
-0.474548,0.55542,
-0.495911,0.610352,
-0.518799,0.662231,
-0.544739,0.657654,
-0.572205,0.602722,
-0.6073,0.550842,
-0.642395,0.622559,
-0.680542,0.634766,
-0.717163,0.660706,
-0.753784,0.611877,
-0.793457,0.553894,
-0.823975,0.605774,
-0.863647,0.662231,
-0.90332,0.656128,
-0.949097,0.608826,
-0.996399,0.55542,
-1.04218,0.590515,
-1.08643,0.654602,
-1.13983,0.660706,
-1.19476,0.608826,
-1.24817,0.553894,
-1.3031,0.59967,
-1.35956,0.657654,
-1.41602,0.657654,
-1.46942,0.614929,
-1.5213,0.550842,
-1.57623,0.59967,
-1.62506,0.660706,
-1.67236,0.65155,
-1.71204,0.608826,
-1.75171,0.547791,
-1.78528,0.604248,
-1.81732,0.660706,
-1.84021,0.656128,
-1.8631,0.610352,
-1.88446,0.552368,
-1.89056,0.593567,
-1.90277,0.665283,
-1.91498,0.656128,
-1.91956,0.608826,
-1.92413,0.55542,
-1.92719,0.593567,
-1.92413,0.660706,
-1.91803,0.657654,
-1.90887,0.613403,
-1.89972,0.535583,
-1.89056,0.592041,
-1.88141,0.657654,
-1.87378,0.654602,
-1.86005,0.610352,
-1.84937,0.552368,
-1.83868,0.592041,
-1.82953,0.662231,
-1.81885,0.657654,
-1.80359,0.608826,
-1.79749,0.552368,
-1.79138,0.595093,
-1.7868,0.662231,
-1.79138,0.665283,
-1.7868,0.6073,
-1.79443,0.552368,
-1.79291,0.585938,
-1.78986,0.65918,
-1.78528,0.657654,
-1.7868,0.6073,
-1.7868,0.549316,
-1.79443,0.588989,
-1.79901,0.672913,
-1.80054,0.653076,
-1.81122,0.608826,
-1.8219,0.547791,
-1.83716,0.584412,
-1.85242,0.656128,
-1.86768,0.654602,
-1.89056,0.613403,
-1.90887,0.546265,
-1.92871,0.579834,
-1.95007,0.666809,
-1.96838,0.650024,
-1.99127,0.605774,
-2.01874,0.546265,
-2.04163,0.535583,
-2.06909,0.648499,
-2.09198,0.665283,
-2.11945,0.605774,
-2.14691,0.546265,
-2.17285,0.576782,
-2.20184,0.65155,
-2.22778,0.653076,
-2.25677,0.608826,
-2.28882,0.553894,
-2.31934,0.579834,
-2.35138,0.656128,
-2.38037,0.654602,
-2.41089,0.608826,
-2.43988,0.549316,
-2.4704,0.576782,
-2.50397,0.65918,
-2.53143,0.657654,
-2.565,0.608826,
-2.59552,0.550842,
-2.63062,0.575256,
-2.66571,0.65918,
-2.69623,0.657654,
-2.72675,0.605774,
-2.75879,0.547791,
-2.79541,0.575256,
-2.82898,0.662231,
-2.86255,0.656128,
-2.89612,0.6073,
-2.92664,0.547791,
-2.95563,0.575256,
-2.98462,0.668335,
-3.01361,0.619507,
-3.03955,0.610352,
-3.06702,0.543213,
-3.0899,0.576782,
-3.11279,0.662231,
-3.13721,0.657654,
-3.15552,0.613403,
-3.17383,0.547791,
-3.19977,0.57373,
-3.22113,0.65918,
-3.24249,0.65918,
-3.26233,0.611877,
-3.28217,0.544739,
-3.30505,0.576782,
-3.32489,0.654602,
-3.34015,0.656128,
-3.35541,0.613403,
-3.37219,0.546265,
-3.38898,0.572205,
-3.40576,0.654602,
-3.4256,0.662231,
-3.44391,0.6073,
-3.45917,0.549316,
-3.47748,0.57373,
-3.49121,0.642395,
-3.50952,0.662231,
-3.52783,0.614929,
-3.54919,0.547791,
-3.57056,0.569153,
-3.58734,0.654602,
-3.60565,0.666809,
-3.62549,0.610352,
-3.64685,0.553894,
-3.66669,0.567627,
-3.68652,0.653076,
-3.70178,0.665283,
-3.72009,0.610352,
-3.74146,0.544739,
-3.75977,0.570679,
-3.7796,0.65155,
-3.80249,0.666809,
-3.82538,0.610352,
-3.84521,0.543213,
-3.862,0.572205,
-3.88031,0.653076,
-3.89862,0.654602,
-3.91235,0.605774,
-3.93524,0.543213,
-3.94745,0.570679,
-3.9566,0.648499,
-3.96423,0.665283,
-3.95966,0.605774,
-3.9566,0.541687,
-3.93982,0.570679,
-3.9093,0.65155,
-3.86658,0.662231,
-3.81012,0.605774,
-3.74298,0.543213,
-3.66669,0.567627,
-3.57971,0.646973,
-3.48053,0.666809,
-3.36761,0.6073,
-3.25012,0.541687,
-3.12042,0.570679,
-2.98157,0.650024,
-2.83966,0.65918,
-2.69012,0.6073,
-2.54822,0.543213,
-2.40173,0.566101,
-2.25525,0.648499,
-2.11639,0.660706,
-1.98364,0.608826,
-1.85394,0.544739,
-1.7334,0.567627,
-1.61743,0.650024,
-1.50452,0.662231,
-1.40076,0.608826,
-1.30615,0.553894,
-1.22681,0.567627,
-1.14899,0.648499,
-1.08185,0.666809,
-1.02692,0.6073,
-0.975037,0.549316,
-0.939941,0.572205,
-0.909424,0.643921,
-0.886536,0.668335,
-0.866699,0.608826,
-0.854492,0.547791,
-0.848389,0.567627,
-0.846863,0.645447,
-0.845337,0.665283,
-0.85144,0.608826,
-0.862122,0.549316,
-0.871277,0.569153,
-0.891113,0.645447,
-0.91095,0.672913,
-0.93689,0.6073,
-0.965881,0.552368,
-0.993347,0.57373,
-1.02997,0.634766,
-1.06354,0.668335,
-1.10321,0.613403,
-1.14288,0.547791,
-1.18561,0.570679,
-1.23138,0.640869,
-1.27716,0.671387,
-1.32141,0.608826,
-1.36414,0.550842,
-1.41602,0.566101,
-1.46332,0.642395,
-1.51062,0.672913,
-1.5625,0.605774,
-1.6098,0.552368,
-1.66321,0.569153,
-1.71661,0.637817,
-1.76849,0.671387,
-1.81885,0.608826,
-1.8692,0.552368,
-1.9165,0.567627,
-1.95618,0.634766,
-1.99738,0.674438,
-2.034,0.6073,
-2.07214,0.549316,
-2.10419,0.569153,
-2.12708,0.634766,
-2.14844,0.674438,
-2.16217,0.605774,
-2.18201,0.552368,
-2.18964,0.570679,
-2.19879,0.634766,
-2.2049,0.67749,
-2.20184,0.610352,
-2.20184,0.553894,
-2.19421,0.570679,
-2.18201,0.634766,
-2.17438,0.675964,
-2.16064,0.608826,
-2.14996,0.553894,
-2.13013,0.572205,
-2.11487,0.631714,
-2.09961,0.67749,
-2.08282,0.610352,
-2.06909,0.552368,
-2.05536,0.570679,
-2.04773,0.631714,
-2.03552,0.674438,
-2.02637,0.610352,
-2.01721,0.559998,
-2.00958,0.575256,
-2.00043,0.628662,
-1.9928,0.675964,
-1.98822,0.610352,
-1.98212,0.566101,
-1.98059,0.575256,
-1.97754,0.624084,
-1.97906,0.67749,
-1.97601,0.610352,
-1.98212,0.556946,
-1.98517,0.578308,
-1.9928,0.628662,
-2.00348,0.67749,
-2.00958,0.613403,
-2.02332,0.558472,
-2.03552,0.578308,
-2.04468,0.627136,
-2.05383,0.679016,
-2.06451,0.610352,
-2.0813,0.561523,
-2.09656,0.58136,
-2.11334,0.62561,
-2.13318,0.679016,
-2.15149,0.611877,
-2.17743,0.559998,
-2.19421,0.579834,
-2.22168,0.62561,
-2.23694,0.679016,
-2.2583,0.610352,
-2.28729,0.563049,
-2.31628,0.576782,
-2.34528,0.627136,
-2.38342,0.67749,
-2.41394,0.588989,
-2.44751,0.578308,
-2.47955,0.584412,
-2.5116,0.622559,
-2.54669,0.679016,
-2.57568,0.6073,
-2.61078,0.566101,
-2.6413,0.582886,
-2.67181,0.627136,
-2.69623,0.67749,
-2.72522,0.613403,
-2.75421,0.563049,
-2.78168,0.585938,
-2.80914,0.624084,
-2.83203,0.674438,
-2.8595,0.610352,
-2.88086,0.561523,
-2.9068,0.584412,
-2.92969,0.622559,
-2.948,0.672913,
-2.96783,0.613403,
-2.98309,0.566101,
-3.0014,0.569153,
-3.02277,0.621033,
-3.04565,0.669861,
-3.06854,0.608826,
-3.0899,0.569153,
-3.10822,0.582886,
-3.12653,0.624084,
-3.14789,0.674438,
-3.1723,0.610352,
-3.19214,0.569153,
-3.21503,0.590515,
-3.23334,0.624084,
-3.24707,0.674438,
-3.26843,0.611877,
-3.28827,0.57373,
-3.30811,0.587463,
-3.32794,0.619507,
-3.3493,0.669861,
-3.36609,0.613403,
-3.3905,0.57373,
-3.41034,0.590515,
-3.42865,0.614929,
-3.44543,0.671387,
-3.46222,0.614929,
-3.48206,0.57373,
-3.49884,0.587463,
-3.5202,0.619507,
-3.53851,0.675964,
-3.55225,0.613403,
-3.56903,0.578308,
-3.58276,0.593567,
-3.60413,0.622559,
-3.61786,0.669861,
-3.63312,0.613403,
-3.66058,0.576782,
-3.685,0.590515,
-3.6972,0.619507,
-3.71552,0.668335,
-3.72772,0.616455,
-3.73383,0.576782,
-3.73383,0.590515,
-3.73688,0.617981,
-3.7262,0.668335,
-3.70331,0.614929,
-3.67432,0.575256,
-3.6377,0.593567,
-3.58582,0.617981,
-3.52478,0.666809,
-3.45459,0.622559,
-3.37067,0.579834,
-3.27759,0.598145,
-3.17841,0.619507,
-3.06854,0.669861,
-2.95258,0.617981,
-2.82745,0.582886,
-2.70538,0.590515,
-2.58026,0.622559,
-2.45361,0.669861,
-2.32849,0.63324,
-2.20795,0.585938,
-2.08282,0.593567,
-1.96381,0.621033,
-1.84937,0.674438,
-1.74103,0.621033,
-1.64185,0.582886,
-1.54877,0.595093,
-1.46637,0.62561,
-1.38855,0.668335,
-1.32446,0.621033,
-1.26648,0.584412,
-1.21155,0.590515,
-1.16119,0.608826,
-1.11694,0.679016,
-1.08337,0.616455,
-1.05591,0.582886,
-1.03302,0.588989,
-1.01776,0.621033,
-1.00555,0.668335,
-1.0025,0.621033,
-1.0025,0.579834,
-1.00708,0.592041,
-1.01624,0.619507,
-1.02844,0.666809,
-1.04828,0.621033,
-1.07117,0.579834,
-1.10168,0.592041,
-1.12457,0.621033,
-1.15356,0.65918,
-1.18713,0.624084,
-1.22375,0.58136,
-1.25885,0.595093,
-1.29242,0.639343,
-1.33057,0.665283,
-1.37787,0.601196,
-1.42059,0.57373,
-1.46942,0.593567,
-1.52283,0.624084,
-1.57013,0.660706,
-1.62506,0.627136,
-1.67389,0.585938,
-1.72577,0.592041,
-1.7746,0.617981,
-1.83258,0.65918,
-1.88141,0.628662,
-1.93329,0.58136,
-1.97906,0.593567,
-2.02332,0.619507,
-2.06604,0.65918,
-2.10724,0.634766,
-2.14081,0.585938,
-2.17438,0.593567,
-2.19879,0.619507,
-2.22626,0.65918,
-2.24915,0.637817,
-2.27051,0.582886,
-2.28577,0.590515,
-2.29797,0.621033,
-2.30713,0.657654,
-2.31018,0.637817,
-2.31323,0.582886,
-2.30865,0.58136,
-2.30255,0.621033,
-2.2934,0.657654,
-2.28119,0.640869,
-2.27356,0.579834,
-2.26135,0.584412,
-2.24762,0.621033,
-2.23694,0.656128,
-2.22168,0.640869,
-2.20642,0.585938,
-2.19116,0.584412,
-2.17743,0.640869,
-2.16827,0.656128,
-2.15454,0.642395,
-2.14844,0.579834,
-2.13623,0.576782,
-2.1286,0.627136,
-2.12402,0.654602,
-2.12097,0.642395,
-2.11487,0.584412,
