-2.43073,0.613403,
-2.45056,0.576782,
-2.46735,0.535583,
-2.48566,0.540161,
-2.49939,0.576782,
-2.51465,0.614929,
-2.52228,0.572205,
-2.52838,0.515747,
-2.53906,0.537109,
-2.54822,0.582886,
-2.55737,0.613403,
-2.565,0.572205,
-2.56653,0.521851,
-2.57263,0.527954,
-2.57568,0.572205,
-2.58026,0.611877,
-2.58331,0.57373,
-2.58636,0.537109,
-2.58789,0.538635,
-2.58331,0.576782,
-2.58484,0.617981,
-2.58942,0.57373,
-2.58636,0.534058,
-2.59094,0.535583,
-2.59399,0.582886,
-2.59399,0.63324,
-2.58789,0.575256,
-2.59247,0.532532,
-2.59399,0.541687,
-2.59857,0.58136,
-2.60162,0.616455,
-2.60468,0.582886,
-2.61078,0.524902,
-2.61993,0.534058,
-2.62756,0.58136,
-2.63519,0.614929,
-2.64435,0.578308,
-2.66113,0.524902,
-2.66876,0.543213,
-2.68707,0.576782,
-2.70081,0.613403,
-2.71912,0.579834,
-2.73285,0.52948,
-2.74811,0.535583,
-2.76794,0.578308,
-2.78168,0.617981,
-2.80304,0.579834,
-2.82288,0.52948,
-2.84119,0.538635,
-2.86255,0.575256,
-2.88086,0.621033,
-2.89612,0.58136,
-2.91443,0.527954,
-2.93427,0.512695,
-2.94952,0.58136,
-2.96936,0.617981,
-2.98615,0.58136,
-3.00751,0.524902,
-3.03192,0.546265,
-3.05328,0.576782,
-3.07312,0.59967,
-3.08838,0.579834,
-3.10974,0.526428,
-3.13263,0.543213,
-3.15399,0.575256,
-3.17688,0.621033,
-3.20129,0.58136,
-3.21808,0.527954,
-3.24249,0.527954,
-3.26385,0.579834,
-3.28522,0.622559,
-3.31116,0.582886,
-3.33099,0.527954,
-3.35236,0.544739,
-3.37982,0.584412,
-3.39661,0.63324,
-3.41949,0.579834,
-3.44238,0.526428,
-3.46527,0.541687,
-3.48663,0.576782,
-3.50494,0.617981,
-3.52631,0.585938,
-3.54462,0.526428,
-3.55988,0.544739,
-3.57513,0.576782,
-3.5965,0.62561,
-3.61328,0.584412,
-3.63007,0.524902,
-3.6499,0.541687,
-3.66058,0.58136,
-3.66821,0.621033,
-3.68195,0.585938,
-3.69568,0.534058,
-3.70941,0.543213,
-3.72467,0.578308,
-3.73688,0.627136,
-3.75366,0.587463,
-3.7674,0.527954,
-3.77808,0.517273,
-3.79486,0.575256,
-3.80402,0.624084,
-3.81775,0.588989,
-3.82538,0.520325,
-3.83301,0.552368,
-3.84216,0.578308,
-3.85742,0.578308,
-3.87115,0.588989,
-3.88184,0.526428,
-3.89252,0.544739,
-3.90472,0.582886,
-3.91541,0.628662,
-3.92609,0.593567,
-3.94135,0.527954,
-3.95508,0.546265,
-3.97034,0.578308,
-3.9856,0.627136,
-4.00238,0.592041,
-4.02069,0.524902,
-4.04358,0.544739,
-4.06036,0.579834,
-4.08173,0.631714,
-4.10461,0.593567,
-4.12903,0.527954,
-4.15192,0.544739,
-4.18396,0.58136,
-4.21295,0.62561,
-4.24042,0.595093,
-4.27246,0.527954,
-4.30603,0.544739,
-4.33655,0.579834,
-4.36401,0.631714,
-4.39758,0.595093,
-4.42352,0.523376,
-4.45404,0.538635,
-4.48608,0.578308,
-4.51508,0.636292,
-4.54254,0.601196,
-4.56696,0.518799,
-4.59137,0.520325,
-4.61578,0.58136,
-4.63104,0.631714,
-4.64935,0.604248,
-4.66003,0.524902,
-4.67834,0.558472,
-4.68903,0.578308,
-4.70123,0.627136,
-4.70734,0.59967,
-4.71191,0.526428,
-4.71191,0.541687,
-4.70734,0.578308,
-4.69666,0.624084,
-4.68597,0.605774,
-4.66309,0.526428,
-4.63409,0.538635,
-4.60052,0.578308,
-4.56085,0.631714,
-4.51202,0.59967,
-4.46167,0.526428,
-4.40216,0.52948,
-4.33807,0.58136,
-4.26483,0.627136,
-4.18396,0.605774,
-4.10309,0.527954,
-4.01917,0.532532,
-3.93982,0.578308,
-3.85895,0.628662,
-3.77197,0.601196,
-3.685,0.527954,
-3.59955,0.537109,
-3.51868,0.576782,
-3.44086,0.628662,
-3.35846,0.576782,
-3.27759,0.524902,
-3.21045,0.540161,
-3.14331,0.575256,
-3.07922,0.628662,
-3.01208,0.608826,
-2.95258,0.553894,
-2.89764,0.58136,
-2.84424,0.587463,
-2.79236,0.640869,
-2.73895,0.598145,
-2.69623,0.526428,
-2.65503,0.546265,
-2.62299,0.57373,
-2.59399,0.643921,
-2.56958,0.608826,
-2.54822,0.52948,
-2.53448,0.538635,
-2.52838,0.58136,
-2.51617,0.627136,
-2.51312,0.601196,
-2.50702,0.524902,
-2.50549,0.535583,
-2.50244,0.57373,
-2.50549,0.62561,
-2.5177,0.613403,
-2.52228,0.52948,
-2.53601,0.527954,
-2.54974,0.575256,
-2.56348,0.628662,
-2.58179,0.614929,
-2.6001,0.526428,
-2.61993,0.532532,
-2.64435,0.58136,
-2.67334,0.624084,
-2.70233,0.611877,
-2.7359,0.52948,
-2.77252,0.534058,
-2.80914,0.544739,
-2.84271,0.627136,
-2.88086,0.613403,
-2.91748,0.523376,
-2.95563,0.535583,
-2.9953,0.578308,
-3.03192,0.628662,
-3.06549,0.605774,
-3.09601,0.526428,
-3.1311,0.50354,
-3.1662,0.576782,
-3.19214,0.624084,
-3.22266,0.616455,
-3.24707,0.527954,
-3.27148,0.544739,
-3.29285,0.576782,
-3.31726,0.628662,
-3.33099,0.617981,
-3.35236,0.521851,
-3.37219,0.532532,
-3.38745,0.556946,
-3.39355,0.619507,
-3.40118,0.614929,
-3.41492,0.526428,
-3.41949,0.537109,
-3.42255,0.576782,
-3.42865,0.627136,
-3.4256,0.617981,
-3.42712,0.534058,
-3.42865,0.538635,
-3.42255,0.576782,
-3.42255,0.619507,
-3.41187,0.614929,
-3.40881,0.532532,
-3.40118,0.543213,
-3.39508,0.566101,
-3.38593,0.701904,
-3.37372,0.617981,
-3.36761,0.527954,
-3.37067,0.543213,
-3.36304,0.575256,
-3.35999,0.616455,
-3.35388,0.621033,
-3.3493,0.534058,
-3.34778,0.500488,
-3.34473,0.570679,
-3.33252,0.621033,
-3.32947,0.617981,
-3.32489,0.532532,
-3.32336,0.535583,
-3.32031,0.58136,
-3.31879,0.62561,
-3.32031,0.616455,
-3.32031,0.534058,
-3.31421,0.543213,
-3.31573,0.578308,
-3.31421,0.622559,
-3.31268,0.617981,
-3.30963,0.521851,
-3.31116,0.52948,
-3.30658,0.57373,
-3.30963,0.622559,
-3.31116,0.616455,
-3.30963,0.537109,
-3.31573,0.527954,
-3.32031,0.576782,
-3.33252,0.621033,
-3.3432,0.613403,
-3.35541,0.538635,
-3.37067,0.546265,
-3.38745,0.566101,
-3.40271,0.621033,
-3.42255,0.617981,
-3.44238,0.540161,
-3.46375,0.538635,
-3.48663,0.579834,
-3.508,0.642395,
-3.52478,0.621033,
-3.54919,0.537109,
-3.57056,0.52948,
-3.59039,0.582886,
-3.61328,0.617981,
-3.63007,0.62561,
-3.65448,0.540161,
-3.67126,0.532532,
-3.69415,0.575256,
-3.71857,0.619507,
-3.74298,0.617981,
-3.7674,0.538635,
-3.79028,0.527954,
-3.81775,0.578308,
-3.83606,0.624084,
-3.86353,0.616455,
-3.88336,0.543213,
-3.9093,0.526428,
-3.92914,0.579834,
-3.9566,0.624084,
-3.97797,0.613403,
-4.00238,0.537109,
-4.02679,0.527954,
-4.04816,0.579834,
-4.07257,0.616455,
-4.08478,0.616455,
-4.10156,0.540161,
-4.1153,0.526428,
-4.13361,0.58136,
-4.14429,0.619507,
-4.15802,0.616455,
-4.17175,0.540161,
-4.18549,0.527954,
-4.19922,0.582886,
-4.21143,0.634766,
-4.21906,0.616455,
-4.23126,0.541687,
-4.245,0.524902,
-4.2572,0.582886,
-4.27246,0.617981,
-4.28619,0.616455,
-4.30145,0.558472,
-4.31824,0.540161,
-4.33502,0.579834,
-4.34723,0.624084,
-4.36249,0.613403,
-4.37927,0.546265,
-4.39606,0.526428,
-4.40674,0.575256,
-4.41589,0.621033,
-4.42657,0.614929,
-4.44336,0.544739,
-4.45557,0.521851,
-4.46777,0.582886,
-4.48456,0.616455,
-4.49219,0.614929,
-4.50745,0.544739,
-4.51508,0.521851,
-4.53186,0.58136,
-4.54559,0.617981,
-4.55933,0.63324,
-4.57916,0.521851,
-4.59595,0.526428,
-4.61273,0.58136,
-4.63104,0.617981,
-4.65088,0.613403,
-4.66309,0.546265,
-4.68445,0.524902,
-4.69971,0.576782,
-4.71649,0.613403,
-4.73633,0.611877,
-4.75464,0.547791,
-4.7699,0.524902,
-4.78821,0.58136,
-4.80194,0.614929,
-4.8172,0.587463,
-4.8233,0.544739,
-4.83704,0.524902,
-4.85077,0.578308,
-4.86145,0.616455,
-4.86603,0.613403,
-4.87823,0.552368,
-4.87976,0.523376,
-4.89349,0.58136,
-4.89502,0.614929,
-4.90265,0.6073,
-4.90112,0.549316,
-4.90265,0.523376,
-4.89502,0.579834,
-4.88739,0.616455,
-4.86908,0.604248,
-4.84924,0.532532,
-4.82635,0.521851,
-4.79431,0.57373,
-4.75922,0.616455,
-4.72107,0.604248,
-4.67834,0.543213,
-4.62952,0.592041,
-4.57916,0.601196,
-4.52271,0.610352,
-4.47083,0.601196,
-4.41589,0.550842,
-4.35638,0.521851,
-4.2923,0.576782,
-4.23279,0.614929,
-4.17023,0.679016,
-4.10767,0.550842,
-4.04816,0.520325,
-3.9917,0.576782,
-3.93524,0.6073,
-3.87573,0.605774,
-3.82538,0.550842,
-3.77808,0.524902,
-3.73688,0.588989,
-3.6972,0.619507,
-3.65448,0.59967,
-3.61481,0.553894,
-3.57361,0.524902,
-3.54767,0.58136,
-3.51563,0.608826,
-3.48816,0.602722,
-3.45917,0.537109,
-3.43628,0.521851,
-3.41644,0.579834,
-3.39966,0.611877,
-3.38135,0.602722,
-3.37219,0.550842,
-3.35846,0.520325,
-3.35083,0.575256,
-3.3432,0.622559,
-3.33405,0.6073,
-3.33862,0.553894,
-3.3371,0.521851,
-3.34015,0.58136,
-3.3432,0.605774,
-3.34167,0.59967,
-3.34473,0.552368,
-3.35083,0.518799,
-3.36304,0.57373,
-3.36761,0.6073,
-3.3783,0.598145,
-3.38287,0.563049,
-3.39508,0.520325,
-3.41034,0.584412,
-3.42255,0.601196,
-3.43475,0.593567,
-3.45001,0.550842,
-3.46222,0.520325,
-3.47443,0.578308,
-3.48358,0.604248,
-3.49579,0.593567,
-3.5141,0.55542,
-3.53088,0.518799,
-3.54767,0.576782,
-3.55682,0.604248,
-3.56445,0.592041,
-3.57971,0.550842,
-3.59497,0.518799,
-3.60718,0.585938,
-3.62091,0.598145,
-3.62701,0.592041,
-3.6377,0.553894,
-3.64685,0.518799,
-3.6499,0.567627,
-3.65295,0.59967,
-3.65448,0.590515,
-3.65143,0.556946,
-3.6499,0.521851,
-3.6499,0.582886,
-3.64838,0.602722,
-3.64838,0.587463,
-3.64838,0.558472,
-3.63922,0.521851,
-3.6377,0.582886,
-3.63159,0.601196,
-3.62549,0.584412,
-3.61938,0.556946,
-3.61328,0.526428,
-3.60413,0.588989,
-3.59344,0.59967,
-3.58429,0.590515,
-3.58124,0.559998,
-3.57513,0.524902,
-3.57208,0.579834,
-3.56598,0.578308,
-3.56445,0.587463,
-3.56293,0.558472,
-3.5614,0.482178,
-3.56293,0.558472,
-3.55835,0.601196,
-3.55835,0.585938,
-3.55835,0.544739,
-3.55835,0.518799,
-3.55835,0.582886,
-3.5614,0.59967,
-3.56293,0.592041,
-3.56293,0.556946,
-3.56598,0.518799,
-3.56903,0.578308,
-3.57513,0.595093,
-3.58124,0.584412,
-3.58429,0.561523,
-3.59497,0.521851,
-3.60565,0.578308,
-3.61633,0.601196,
-3.62091,0.58136,
-3.62854,0.55542,
-3.63617,0.521851,
-3.64227,0.578308,
-3.65143,0.598145,
-3.65753,0.578308,
-3.66364,0.559998,
-3.67126,0.517273,
-3.67737,0.572205,
-3.68652,0.593567,
-3.69568,0.58136,
-3.70331,0.544739,
-3.72162,0.523376,
-3.7323,0.549316,
-3.74451,0.593567,
-3.76129,0.584412,
-3.77197,0.556946,
-3.78723,0.517273,
-3.79639,0.570679,
-3.80859,0.595093,
-3.82233,0.582886,
-3.83606,0.558472,
-3.85437,0.520325,
-3.87268,0.572205,
-3.88641,0.590515,
-3.90167,0.582886,
-3.91541,0.559998,
-3.93829,0.523376,
-3.9566,0.576782,
-3.97186,0.593567,
-3.98712,0.578308,
-3.9978,0.559998,
-4.01764,0.527954,
-4.03748,0.572205,
-4.05426,0.602722,
-4.06952,0.582886,
-4.07867,0.55542,
-4.09546,0.52948,
-4.10461,0.572205,
-4.12292,0.604248,
-4.13513,0.578308,
-4.14886,0.563049,
-4.16565,0.517273,
-4.17786,0.576782,
-4.19006,0.598145,
-4.20532,0.552368,
-4.216,0.559998,
-4.22363,0.511169,
-4.24194,0.582886,
-4.25415,0.593567,
-4.26788,0.578308,
-4.28314,0.559998,
-4.29688,0.521851,
-4.31519,0.575256,
-4.32434,0.593567,
-4.3396,0.578308,
-4.35333,0.558472,
-4.36554,0.517273,
-4.37927,0.576782,
-4.3869,0.595093,
-4.40216,0.578308,
-4.41132,0.559998,
-4.422,0.520325,
-4.43115,0.57373,
-4.44489,0.593567,
-4.44946,0.576782,
-4.46014,0.558472,
-4.4754,0.518799,
-4.48608,0.576782,
-4.49371,0.598145,
-4.50134,0.579834,
-4.5105,0.556946,
-4.52118,0.521851,
-4.52423,0.575256,
-4.52728,0.592041,
-4.53644,0.578308,
-4.54407,0.559998,
-4.55322,0.532532,
-4.56543,0.570679,
-4.57458,0.592041,
-4.58374,0.578308,
-4.5929,0.563049,
-4.60815,0.538635,
-4.62189,0.575256,
-4.63409,0.590515,
-4.6524,0.582886,
-4.66614,0.559998,
-4.67987,0.521851,
-4.6875,0.57373,
-4.69971,0.593567,
-4.71649,0.582886,
-4.73175,0.567627,
-4.73938,0.526428,
-4.75159,0.575256,
-4.76074,0.590515,
-4.7699,0.58136,
-4.77448,0.570679,
-4.78058,0.514221,
-4.78363,0.570679,
-4.7821,0.598145,
-4.776,0.582886,
-4.76532,0.566101,
-4.75006,0.521851,
-4.7287,0.57373,
-4.70276,0.59967,
-4.67377,0.58136,
-4.64478,0.556946,
-4.6051,0.521851,
-4.56543,0.57373,
-4.52271,0.590515,
-4.47235,0.587463,
-4.41895,0.569153,
-4.36249,0.527954,
-4.3045,0.570679,
-4.24957,0.592041,
-4.19312,0.587463,
-4.14124,0.559998,
-4.08783,0.523376,
-4.0329,0.569153,
-3.97949,0.595093,
-3.92761,0.58136,
-3.88031,0.563049,
-3.83148,0.520325,
-3.78418,0.553894,
-3.73688,0.592041,
-3.69415,0.59967,
-3.65295,0.575256,
-3.61633,0.523376,
-3.57819,0.559998,
-3.54004,0.598145,
-3.50342,0.585938,
-3.47595,0.558472,
-3.44391,0.506592,
-3.41797,0.553894,
-3.3905,0.598145,
-3.37067,0.584412,
-3.35083,0.561523,
-3.33252,0.514221,
-3.31879,0.556946,
-3.30505,0.598145,
-3.2959,0.59967,
-3.28522,0.556946,
-3.27911,0.527954,
-3.27301,0.558472,
-3.26843,0.595093,
-3.2608,0.593567,
-3.26385,0.559998,
-3.26843,0.532532,
-3.27759,0.552368,
-3.28217,0.598145,
-3.28827,0.590515,
-3.29132,0.556946,
-3.30353,0.520325,
-3.30658,0.549316,
-3.31421,0.595093,
-3.31879,0.592041,
-3.32642,0.561523,
-3.33862,0.52948,
-3.34778,0.556946,
-3.36304,0.602722,
-3.37524,0.592041,
-3.38593,0.559998,
-3.39508,0.521851,
-3.40881,0.550842,
-3.41797,0.602722,
-3.4256,0.595093,
-3.43933,0.559998,
-3.44696,0.526428,
-3.45306,0.553894,
-3.46069,0.595093,
-3.46832,0.602722,
-3.47595,0.559998,
-3.47748,0.527954,
-3.479,0.552368,
-3.48053,0.602722,
-3.479,0.595093,
-3.479,0.569153,
-3.48053,0.527954,
-3.47748,0.553894,
-3.47443,0.595093,
-3.46985,0.595093,
-3.45917,0.569153,
-3.45459,0.52948,
-3.45001,0.553894,
-3.44238,0.602722,
-3.43323,0.59967,
-3.42407,0.563049,
-3.41949,0.52948,
-3.40881,0.537109,
-3.39813,0.611877,
-3.38898,0.595093,
-3.38135,0.563049,
-3.37219,0.534058,
-3.36609,0.55542,
-3.35693,0.601196,
-3.34473,0.598145,
-3.34015,0.563049,
-3.3371,0.527954,
-3.32947,0.549316,
-3.32642,0.602722,
-3.32336,0.59967,
-3.31879,0.563049,
-3.31573,0.532532,
-3.31573,0.549316,
-3.31421,0.602722,
-3.31116,0.601196,
-3.30811,0.563049,
-3.30505,0.52948,
-3.30658,0.549316,
-3.31116,0.602722,
-3.30963,0.595093,
-3.30963,0.563049,
-3.31116,0.534058,
-3.30658,0.549316,
-3.30811,0.59967,
-3.30658,0.598145,
-3.30658,0.55542,
-3.30811,0.537109,
-3.30963,0.569153,
-3.31421,0.587463,
-3.31573,0.602722,
-3.32184,0.570679,
-3.32947,0.538635,
-3.33405,0.544739,
-3.34473,0.610352,
-3.35999,0.616455,
-3.36456,0.57373,
-3.37219,0.535583,
-3.3783,0.550842,
-3.3844,0.608826,
-3.39508,0.601196,
-3.40271,0.572205,
-3.41492,0.538635,
-3.42865,0.547791,
-3.44238,0.610352,
-3.44849,0.605774,
-3.45764,0.563049,
-3.4668,0.537109,
-3.48053,0.553894,
-3.49274,0.610352,
-3.50037,0.605774,
-3.51257,0.566101,
-3.52478,0.535583,
-3.53851,0.569153,
-3.54614,0.622559,
-3.5553,0.601196,
-3.56903,0.637817,
-3.57513,0.544739,
-3.58582,0.541687,
-3.59802,0.621033,
-3.60565,0.608826,
-3.61328,0.570679,
-3.62244,0.543213,
-3.62854,0.553894,
-3.63464,0.614929,
-3.64685,0.6073,
-3.65906,0.559998,
-3.66516,0.541687,
-3.67126,0.552368,
-3.67737,0.611877,
-3.68652,0.610352,
-3.69415,0.569153,
-3.70636,0.543213,
-3.71552,0.552368,
-3.7262,0.617981,
-3.72772,0.608826,
-3.73535,0.563049,
-3.74451,0.540161,
-3.74908,0.553894,
-3.75977,0.617981,
-3.77045,0.624084,
-3.77502,0.57373,
-3.78571,0.543213,
-3.79791,0.552368,
-3.81165,0.616455,
-3.8269,0.613403,
-3.83759,0.567627,
-3.85284,0.544739,
-3.86658,0.553894,
-3.87726,0.619507,
-3.89404,0.6073,
-3.90778,0.575256,
-3.92151,0.541687,
-3.93982,0.550842,
-3.9505,0.617981,
-3.96118,0.614929,
-3.97034,0.582886,
-3.97949,0.544739,
-3.99017,0.547791,
-4.00238,0.616455,
-4.00848,0.608826,
-4.01917,0.569153,
-4.02374,0.541687,
-4.02069,0.550842,
-4.01459,0.619507,
-4.00696,0.610352,
-3.99017,0.567627,
-3.97034,0.543213,
-3.94745,0.546265,
-3.91693,0.616455,
-3.88794,0.610352,
-3.85437,0.566101,
-3.81012,0.541687,
-3.7674,0.549316,
-3.71552,0.616455,
-3.65906,0.610352,
-3.60718,0.567627,
-3.54614,0.540161,
-3.48663,0.549316,
-3.42407,0.616455,
-3.36151,0.611877,
-3.29895,0.561523,
-3.23639,0.540161,
-3.1723,0.508118,
-3.10822,0.614929,
-3.05023,0.617981,
-2.9892,0.57373,
-2.93121,0.543213,
-2.87781,0.550842,
-2.82745,0.614929,
-2.77252,0.608826,
-2.72522,0.572205,
-2.68097,0.546265,
-2.64435,0.546265,
-2.60162,0.617981,
-2.5589,0.62561,
-2.52075,0.576782,
-2.48718,0.541687,
-2.45514,0.547791,
-2.42462,0.617981,
-2.39868,0.611877,
-2.37579,0.570679,
-2.35901,0.543213,
-2.3407,0.550842,
-2.32239,0.610352,
-2.30713,0.611877,
-2.29034,0.575256,
-2.27814,0.547791,
-2.26593,0.547791,
-2.25983,0.614929,
-2.2522,0.611877,
-2.24609,0.57373,
-2.24762,0.546265,
-2.24304,0.547791,
-2.24304,0.614929,
-2.24304,0.613403,
-2.24915,0.572205,
-2.25372,0.541687,
-2.25525,0.544739,
-2.26288,0.617981,
-2.27051,0.579834,
-2.27966,0.575256,
-2.29187,0.547791,
-2.30865,0.544739,
-2.32239,0.610352,
-2.32849,0.613403,
-2.34222,0.575256,
-2.35291,0.546265,
-2.35901,0.546265,
-2.37427,0.642395,
-2.38495,0.616455,
-2.39716,0.572205,
-2.41241,0.544739,
-2.4231,0.547791,
-2.43073,0.614929,
-2.44446,0.611877,
-2.45361,0.570679,
-2.46582,0.547791,
-2.47345,0.544739,
-2.48108,0.619507,
-2.49176,0.616455,
-2.49481,0.570679,
-2.49939,0.547791,
-2.50092,0.553894,
-2.50244,0.622559,
-2.50549,0.616455,
-2.50244,0.575256,
-2.50092,0.547791,
-2.49786,0.547791,
-2.49023,0.622559,
-2.48718,0.611877,
-2.47803,0.58136,
-2.48108,0.541687,
-2.47803,0.547791,
-2.47192,0.604248,
-2.46735,0.63324,
-2.46887,0.578308,
-2.46277,0.544739,
-2.45972,0.552368,
-2.45667,0.617981,
-2.45514,0.619507,
-2.45514,0.578308,
-2.45361,0.543213,
-2.44904,0.549316,
-2.44751,0.621033,
-2.44751,0.617981,
-2.44904,0.578308,
-2.44751,0.544739,
-2.44598,0.549316,
-2.44904,0.619507,
-2.45361,0.617981,
-2.45209,0.556946,
-2.45667,0.546265,
-2.45667,0.546265,
-2.45361,0.622559,
-2.45667,0.621033,
-2.45819,0.578308,
-2.46582,0.546265,
-2.4704,0.552368,
-2.47498,0.616455,
-2.48413,0.619507,
-2.48871,0.584412,
-2.49939,0.547791,
-2.49634,0.553894,
-2.50244,0.614929,
-2.50854,0.622559,
-2.52075,0.575256,
-2.52991,0.544739,
-2.54059,0.552368,
-2.55127,0.614929,
-2.5589,0.622559,
-2.56805,0.585938,
-2.58026,0.544739,
-2.59399,0.550842,
-2.60468,0.621033,
-2.61078,0.624084,
-2.62299,0.579834,
-2.63519,0.547791,
-2.64435,0.553894,
-2.65503,0.616455,
-2.66418,0.631714,
-2.67792,0.578308,
-2.69012,0.544739,
-2.69928,0.553894,
-2.70844,0.617981,
-2.72064,0.627136,
-2.7359,0.578308,
-2.75269,0.549316,
-2.76794,0.55542,
-2.7771,0.621033,
-2.79083,0.62561,
-2.80151,0.58136,
-2.81219,0.541687,
-2.82745,0.55542,
-2.83813,0.617981,
-2.85187,0.624084,
-2.85797,0.58136,
-2.87018,0.544739,
-2.87628,0.523376,
-2.88391,0.621033,
-2.89459,0.624084,
-2.90375,0.579834,
-2.90985,0.549316,
-2.92816,0.549316,
-2.93732,0.62561,
-2.94952,0.637817,
-2.96478,0.627136,
-2.98157,0.527954,
-2.99683,0.558472,
-3.00903,0.619507,
-3.01514,0.631714,
-3.0304,0.582886,
-3.04565,0.532532,
-3.05939,0.55542,
-3.07159,0.621033,
-3.08533,0.622559,
-3.10516,0.58136,
-3.12042,0.544739,
-3.14026,0.540161,
-3.15399,0.619507,
-3.17383,0.634766,
-3.18298,0.543213,
-3.20587,0.544739,
-3.21808,0.552368,
-3.23029,0.617981,
-3.23944,0.627136,
-3.25317,0.582886,
-3.26843,0.540161,
-3.28064,0.553894,
-3.29742,0.616455,
-3.31116,0.631714,
-3.32184,0.584412,
-3.33252,0.538635,
-3.3432,0.552368,
-3.35083,0.619507,
-3.35693,0.62561,
-3.35846,0.58136,
-3.35693,0.543213,
-3.35083,0.556946,
-3.34015,0.613403,
-3.32642,0.631714,
-3.30505,0.584412,
-3.27606,0.543213,
-3.24097,0.515747,
-3.20282,0.601196,
-3.16162,0.628662,
-3.11127,0.579834,
-3.05481,0.547791,
-2.99377,0.553894,
-2.92969,0.614929,
-2.86255,0.631714,
-2.78931,0.58136,
-2.72064,0.541687,
-2.6535,0.55542,
-2.58179,0.614929,
-2.50244,0.63324,
-2.42767,0.58136,
-2.34985,0.541687,
-2.27966,0.558472,
-2.20642,0.617981,
-2.1347,0.631714,
-2.06909,0.582886,
-2.00195,0.544739,
-1.93787,0.559998,
-1.87683,0.622559,
-1.81732,0.619507,
-1.76697,0.58136,
-1.71661,0.543213,
-1.66626,0.55542,
-1.62048,0.611877,
-1.57776,0.642395,
-1.54114,0.58136,
-1.50299,0.556946,
-1.47247,0.561523,
-1.44043,0.619507,
-1.41754,0.637817,
-1.39618,0.58136,
-1.37482,0.543213,
-1.35651,0.552368,
-1.3443,0.614929,
-1.33514,0.63324,
-1.32751,0.579834,
-1.32141,0.546265,
-1.32141,0.558472,
-1.31836,0.613403,
-1.31989,0.63324,
-1.31836,0.576782,
-1.32294,0.544739,
-1.32599,0.556946,
-1.32904,0.616455,
-1.33667,0.631714,
-1.34583,0.578308,
-1.35803,0.50354,
-1.37177,0.556946,
-1.38702,0.613403,
-1.39618,0.628662,
-1.41449,0.578308,
-1.42975,0.558472,
-1.44958,0.552368,
-1.46332,0.686646,
-1.48773,0.627136,
-1.50146,0.576782,
-1.51978,0.543213,
-1.53503,0.558472,
-1.5564,0.608826,
-1.5686,0.63324,
-1.59149,0.614929,
-1.60675,0.547791,
-1.61896,0.559998,
-1.63422,0.616455,
-1.64337,0.627136,
-1.65558,0.582886,
-1.66321,0.541687,
-1.66931,0.567627,
-1.67389,0.611877,
-1.67694,0.587463,
-1.67694,0.57373,
-1.67694,0.541687,
-1.67694,0.563049,
-1.67236,0.611877,
-1.66779,0.634766,
-1.66168,0.578308,
-1.65253,0.544739,
-1.6449,0.569153,
-1.63422,0.610352,
-1.62048,0.627136,
-1.61285,0.57373,
-1.60217,0.546265,
-1.59454,0.566101,
-1.58386,0.624084,
-1.57623,0.631714,
-1.56708,0.572205,
-1.55945,0.549316,
-1.5564,0.566101,
-1.54266,0.611877,
-1.53656,0.62561,
-1.53656,0.576782,
-1.53046,0.502014,
-1.5274,0.558472,
-1.51978,0.611877,
-1.51825,0.628662,
-1.51825,0.575256,
-1.51215,0.547791,
-1.51215,0.569153,
-1.5152,0.579834,
-1.51215,0.63324,
-1.51215,0.578308,
-1.5152,0.544739,
-1.5213,0.569153,
-1.52435,0.613403,
-1.52893,0.631714,
-1.53656,0.57373,
-1.54114,0.544739,
-1.55029,0.572205,
-1.5564,0.611877,
-1.5625,0.628662,
-1.57318,0.575256,
-1.58081,0.544739,
-1.59149,0.570679,
-1.60065,0.611877,
-1.61133,0.63324,
-1.62201,0.576782,
-1.63422,0.544739,
-1.64642,0.57373,
-1.66168,0.608826,
-1.67694,0.631714,
-1.68915,0.57373,
-1.70593,0.544739,
-1.72272,0.576782,
-1.73645,0.613403,
-1.75171,0.63324,
-1.76697,0.57373,
-1.7807,0.541687,
-1.79749,0.57373,
-1.81274,0.613403,
-1.828,0.634766,
-1.84174,0.576782,
-1.85852,0.546265,
-1.87073,0.575256,
-1.88751,0.611877,
-1.9043,0.63324,
-1.91803,0.576782,
-1.93787,0.541687,
-1.9516,0.575256,
-1.96838,0.610352,
-1.98364,0.631714,
-2.00195,0.57373,
-2.02179,0.541687,
-2.0401,0.556946,
-2.05688,0.610352,
-2.0752,0.63324,
-2.09045,0.57373,
-2.10876,0.544739,
-2.12097,0.570679,
-2.14081,0.6073,
-2.15454,0.611877,
-2.17133,0.57373,
-2.19269,0.544739,
-2.211,0.587463,
-2.22931,0.6073,
-2.24609,0.627136,
-2.26135,0.570679,
-2.27966,0.543213,
-2.30103,0.575256,
-2.31476,0.608826,
-2.32849,0.628662,
-2.34222,0.572205,
-2.34985,0.540161,
-2.36359,0.582886,
-2.37885,0.610352,
-2.38953,0.634766,
-2.39716,0.575256,
-2.41089,0.540161,
-2.42157,0.575256,
-2.4353,0.605774,
-2.45056,0.631714,
-2.46735,0.572205,
-2.48718,0.543213,
-2.49939,0.569153,
-2.51312,0.613403,
-2.52991,0.62561,
-2.54974,0.58136,
-2.56805,0.541687,
-2.58484,0.575256,
-2.60315,0.610352,
-2.61688,0.628662,
-2.63214,0.582886,
-2.64587,0.540161,
-2.65656,0.566101,
-2.66876,0.608826,
-2.68402,0.622559,
-2.69012,0.57373,
-2.69928,0.541687,
-2.70538,0.57373,
-2.70386,0.610352,
-2.6947,0.62561,
-2.68707,0.57373,
-2.66724,0.538635,
-2.64587,0.572205,
-2.61841,0.610352,
-2.58789,0.63324,
-2.54364,0.569153,
-2.49634,0.527954,
-2.44598,0.57373,
-2.38037,0.63324,
-2.30865,0.621033,
-2.23846,0.569153,
-2.16064,0.538635,
-2.08588,0.575256,
-2.01111,0.624084,
-1.93176,0.624084,
-1.84937,0.569153,
-1.76544,0.535583,
-1.67847,0.572205,
-1.59607,0.610352,
-1.51672,0.639343,
-1.43585,0.572205,
-1.35803,0.527954,
-1.28632,0.587463,
-1.21307,0.611877,
-1.14594,0.619507,
-1.08032,0.553894,
-1.02081,0.532532,
-0.965881,0.576782,
-0.914001,0.605774,
-0.868225,0.624084,
-0.823975,0.572205,
-0.787354,0.534058,
-0.749207,0.575256,
-0.720215,0.608826,
-0.695801,0.617981,
-0.671387,0.567627,
-0.643921,0.532532,
-0.62561,0.575256,
-0.608826,0.610352,
-0.598145,0.616455,
-0.588989,0.567627,
-0.579834,0.535583,
-0.57373,0.579834,
-0.572205,0.608826,
-0.572205,0.617981,
-0.575256,0.569153,
-0.579834,0.537109,
-0.588989,0.57373,
-0.595093,0.604248,
-0.604248,0.614929,
-0.617981,0.569153,
-0.630188,0.532532,
-0.642395,0.578308,
-0.65918,0.660706,
-0.671387,0.614929,
-0.686646,0.567627,
-0.708008,0.537109,
-0.724792,0.578308,
-0.743103,0.611877,
-0.765991,0.619507,
-0.790405,0.561523,
-0.808716,0.585938,
-0.83313,0.549316,
-0.854492,0.611877,
-0.875854,0.614929,
-0.897217,0.57373,
-0.917053,0.527954,
-0.935364,0.578308,
-0.949097,0.610352,
-0.964355,0.627136,
-0.979614,0.569153,
-0.991821,0.532532,
-1.01013,0.576782,
-1.02539,0.610352,
-1.04065,0.614929,
-1.05438,0.567627,
-1.07117,0.526428,
-1.0788,0.576782,
-1.091,0.6073,
-1.09558,0.616455,
-1.10474,0.569153,
-1.11389,0.524902,
-1.11542,0.57373,
-1.11237,0.608826,
-1.11237,0.617981,
-1.10779,0.566101,
-1.10168,0.532532,
-1.09711,0.572205,
-1.08948,0.6073,
-1.08643,0.617981,
-1.08032,0.582886,
-1.07574,0.527954,
-1.07269,0.646973,
-1.06812,0.598145,
-1.05743,0.619507,
-1.05591,0.566101,
-1.05133,0.524902,
-1.04675,0.567627,
-1.0437,0.608826,
-1.0437,0.62561,
-1.04065,0.526428,
-1.0376,0.524902,
-1.03912,0.579834,
-1.04218,0.6073,
-1.0437,0.616455,
-1.0498,0.570679,
-1.05286,0.527954,
-1.05896,0.570679,
-1.06964,0.6073,
-1.07727,0.608826,
-1.08948,0.569153,
-1.10168,0.523376,
-1.11084,0.566101,
-1.12,0.611877,
-1.1261,0.598145,
-1.13983,0.566101,
-1.15204,0.523376,
-1.17035,0.563049,
-1.17493,0.610352,
-1.18256,0.610352,
-1.19171,0.576782,
-1.19781,0.523376,
-1.20087,0.569153,
-1.20544,0.605774,
-1.20697,0.611877,
-1.21307,0.567627,
-1.21613,0.526428,
-1.22223,0.563049,
-1.23291,0.605774,
-1.24359,0.610352,
-1.2558,0.561523,
-1.26495,0.524902,
-1.27563,0.570679,
-1.28784,0.610352,
-1.297,0.608826,
-1.31226,0.561523,
-1.32599,0.521851,
-1.3443,0.559998,
-1.35956,0.608826,
-1.37482,0.605774,
-1.39313,0.563049,
-1.41144,0.524902,
-1.4267,0.561523,
-1.45111,0.608826,
-1.474,0.610352,
-1.49841,0.566101,
-1.52283,0.523376,
-1.54877,0.559998,
-1.57471,0.6073,
-1.59454,0.610352,
-1.61896,0.566101,
-1.64185,0.520325,
-1.66168,0.561523,
-1.68152,0.610352,
-1.70441,0.601196,
-1.72119,0.558472,
-1.73798,0.524902,
-1.75629,0.558472,
-1.7746,0.605774,
-1.78986,0.6073,
-1.80817,0.566101,
-1.81885,0.517273,
-1.83411,0.558472,
-1.84937,0.610352,
-1.86462,0.605774,
-1.87988,0.558472,
-1.89819,0.520325,
-1.9165,0.559998,
-1.93939,0.604248,
-1.96228,0.605774,
-1.98212,0.561523,
-2.00958,0.517273,
-2.03552,0.559998,
-2.05536,0.610352,
-2.07977,0.601196,
-2.10419,0.563049,
-2.12708,0.515747,
-2.15149,0.556946,
-2.17285,0.6073,
-2.19421,0.602722,
-2.21252,0.566101,
-2.23236,0.517273,
-2.25525,0.556946,
-2.26593,0.605774,
-2.27966,0.602722,
-2.2934,0.552368,
-2.3056,0.518799,
-2.31781,0.556946,
-2.33002,0.613403,
-2.34375,0.59967,
-2.34985,0.567627,
-2.36664,0.518799,
-2.38037,0.569153,
-2.39105,0.593567,
-2.40021,0.665283,
-2.40326,0.538635,
-2.40326,0.520325,
-2.39563,0.547791,
-2.38495,0.602722,
-2.36206,0.602722,
-2.33459,0.556946,
-2.30865,0.523376,
-2.26746,0.566101,
-2.22015,0.6073,
-2.16522,0.604248,
-2.10266,0.55542,
-2.034,0.526428,
-1.96228,0.569153,
-1.88599,0.6073,
-1.80359,0.674438,
-1.72119,0.561523,
-1.63269,0.514221,
-1.54419,0.550842,
-1.45874,0.604248,
-1.36566,0.604248,
-1.27563,0.569153,
-1.19324,0.515747,
-1.11084,0.55542,
-1.03302,0.611877,
-0.952148,0.59967,
-0.883484,0.558472,
-0.814819,0.514221,
-0.749207,0.550842,
-0.692749,0.608826,
-0.637817,0.601196,
-0.585938,0.561523,
-0.538635,0.514221,
-0.492859,0.550842,
-0.457764,0.605774,
-0.422668,0.602722,
-0.386047,0.569153,
-0.358582,0.512695,
-0.337219,0.547791,
-0.315857,0.611877,
-0.299072,0.59967,
-0.289917,0.55542,
-0.283813,0.512695,
-0.27771,0.546265,
-0.279236,0.604248,
-0.271606,0.604248,
-0.270081,0.561523,
-0.274658,0.509644,
-0.282288,0.550842,
-0.289917,0.590515,
-0.297546,0.604248,
-0.308228,0.563049,
-0.323486,0.514221,
-0.332642,0.544739,
-0.357056,0.6073,
-0.376892,0.602722,
-0.39978,0.559998,
-0.42572,0.521851,
-0.448608,0.543213,
-0.4776,0.605774,
-0.50354,0.595093,
-0.532532,0.561523,
-0.569153,0.515747,
-0.598145,0.544739,
-0.631714,0.605774,
-0.663757,0.59967,
-0.692749,0.55542,
-0.724792,0.509644,
-0.750732,0.543213,
-0.778198,0.604248,
-0.804138,0.59967,
-0.828552,0.55542,
-0.849915,0.512695,
-0.875854,0.538635,
-0.897217,0.604248,
-0.912476,0.598145,
-0.932312,0.558472,
-0.946045,0.515747,
-0.964355,0.543213,
-0.98114,0.608826,
-0.987244,0.604248,
-0.999451,0.556946,
-1.00708,0.514221,
-1.01471,0.543213,
-1.01624,0.6073,
-1.01471,0.602722,
-1.01166,0.55542,
-1.00861,0.508118,
-1.00861,0.534058,
-1.00708,0.588989,
-1.00403,0.602722,
-1.00403,0.566101,
-0.999451,0.518799,
-0.994873,0.538635,
-0.994873,0.610352,
-0.987244,0.604248,
-0.982666,0.552368,
-0.975037,0.512695,
-0.971985,0.534058,
-0.968933,0.614929,
-0.964355,0.602722,
-0.958252,0.575256,
-0.953674,0.508118,
-0.956726,0.52948,
-0.9552,0.587463,
-0.9552,0.592041,
-0.9552,0.55542,
-0.961304,0.494385,
-0.964355,0.540161,
-0.968933,0.617981,
-0.970459,0.605774,
-0.973511,0.556946,
-0.978088,0.512695,
-0.984192,0.537109,
-0.993347,0.604248,
-1.0025,0.59967,
-1.00708,0.561523,
-1.01166,0.508118,
-1.01929,0.52948,
-1.03302,0.602722,
-1.04523,0.604248,
-1.05591,0.556946,
-1.06506,0.514221,
-1.0788,0.532532,
-1.08948,0.604248,
-1.10626,0.604248,
-1.12152,0.558472,
-1.13831,0.509644,
-1.15509,0.532532,
-1.17035,0.604248,
-1.18256,0.601196,
-1.19781,0.546265,
-1.21613,0.579834,
-1.23138,0.52948,
-1.24817,0.617981,
-1.26648,0.604248,
-1.28174,0.561523,
-1.30157,0.509644,
-1.32141,0.535583,
-1.3382,0.610352,
-1.35803,0.608826,
-1.37482,0.552368,
-1.39313,0.511169,
-1.41449,0.52948,
-1.43738,0.598145,
-1.45416,0.601196,
-1.474,0.55542,
-1.49994,0.508118,
-1.51672,0.524902,
-1.53351,0.604248,
-1.55792,0.602722,
-1.58081,0.556946,
-1.60828,0.511169,
-1.63422,0.535583,
-1.66016,0.604248,
-1.67999,0.602722,
-1.70288,0.55542,
-1.72272,0.509644,
-1.75018,0.526428,
-1.7746,0.584412,
-1.79901,0.59967,
-1.82495,0.566101,
-1.85089,0.505066,
-1.87683,0.521851,
-1.9043,0.605774,
-1.92413,0.59967,
-1.94855,0.556946,
-1.97601,0.508118,
-2.00195,0.524902,
-2.02026,0.602722,
-2.04468,0.59967,
-2.05994,0.566101,
-2.08435,0.514221,
-2.10419,0.524902,
-2.1225,0.604248,
-2.13623,0.602722,
-2.15454,0.558472,
-2.1759,0.511169,
-2.19116,0.526428,
-2.20947,0.585938,
-2.22931,0.601196,
-2.24762,0.550842,
-2.26593,0.515747,
-2.28271,0.524902,
-2.30103,0.601196,
-2.32086,0.590515,
-2.33612,0.558472,
-2.35748,0.517273,
-2.37732,0.526428,
-2.3941,0.601196,
-2.41089,0.602722,
-2.42615,0.55542,
-2.44446,0.511169,
-2.45667,0.527954,
-2.4704,0.59967,
-2.4826,0.605774,
-2.49023,0.552368,
-2.49634,0.514221,
-2.49634,0.524902,
-2.48871,0.602722,
-2.47192,0.604248,
-2.45056,0.549316,
-2.42615,0.515747,
-2.39563,0.521851,
-2.35443,0.59967,
-2.30865,0.605774,
-2.2522,0.55542,
-2.19116,0.515747,
-2.1225,0.521851,
-2.05688,0.59967,
-1.97906,0.602722,
-1.89667,0.556946,
-1.81427,0.515747,
-1.72424,0.526428,
-1.63574,0.595093,
-1.54572,0.6073,
-1.45721,0.546265,
-1.36719,0.512695,
-1.28174,0.521851,
-1.19629,0.590515,
-1.12,0.58136,
-1.0437,0.514221,
-0.967407,0.515747,
-0.900269,0.526428,
-0.83313,0.588989,
-0.765991,0.602722,
-0.708008,0.52948,
-0.648499,0.509644,
-0.593567,0.523376,
-0.546265,0.566101,
-0.50354,0.604248,
-0.469971,0.553894,
-0.442505,0.515747,
-0.421143,0.524902,
-0.404358,0.592041,
-0.389099,0.602722,
-0.379944,0.587463,
-0.370789,0.512695,
-0.364685,0.532532,
-0.360107,0.58136,
-0.358582,0.608826,
-0.360107,0.552368,
-0.364685,0.517273,
-0.37384,0.534058,
-0.376892,0.556946,
-0.384521,0.6073,
-0.398254,0.556946,
-0.411987,0.521851,
-0.436401,0.526428,
-0.456238,0.595093,
-0.473022,0.608826,
-0.497437,0.549316,
-0.524902,0.518799,
-0.549316,0.526428,
-0.570679,0.592041,
-0.598145,0.604248,
-0.617981,0.549316,
-0.645447,0.518799,
-0.675964,0.534058,
-0.701904,0.556946,
-0.730896,0.605774,
-0.762939,0.55542,
-0.784302,0.521851,
-0.811768,0.532532,
-0.836182,0.585938,
-0.857544,0.608826,
-0.886536,0.55542,
-0.921631,0.520325,
-0.9552,0.527954,
-0.98114,0.590515,
-1.01013,0.614929,
-1.03302,0.538635,
-1.05743,0.520325,
-1.07574,0.537109,
-1.08948,0.593567,
-1.10321,0.605774,
-1.10931,0.546265,
-1.11542,0.524902,
-1.12305,0.52948,
-1.1322,0.59967,
-1.13831,0.601196,
-1.14288,0.544739,
-1.14746,0.517273,
-1.15509,0.543213,
-1.15662,0.588989,
-1.15967,0.611877,
-1.16577,0.55542,
-1.16577,0.506592,
-1.16577,0.532532,
-1.1673,0.561523,
-1.17035,0.605774,
-1.17035,0.547791,
-1.17035,0.520325,
-1.1673,0.532532,
-1.16272,0.579834,
-1.15204,0.6073,
-1.14899,0.535583,
-1.14594,0.537109,
-1.14594,0.537109,
-1.14441,0.584412,
-1.14441,0.610352,
-1.14288,0.553894,
-1.13983,0.521851,
-1.13983,0.532532,
-1.14441,0.587463,
-1.14441,0.608826,
-1.14594,0.549316,
-1.14899,0.520325,
-1.15509,0.527954,
-1.15967,0.584412,
-1.16425,0.614929,
-1.17035,0.552368,
-1.17798,0.523376,
-1.18561,0.532532,
-1.19629,0.584412,
-1.2085,0.613403,
-1.2207,0.559998,
-1.24054,0.511169,
-1.25275,0.541687,
-1.26953,0.575256,
-1.28784,0.569153,
-1.3092,0.544739,
-1.32904,0.534058,
-1.34583,0.537109,
-1.35803,0.59967,
-1.37329,0.611877,
-1.38855,0.546265,
-1.40533,0.521851,
-1.42517,0.537109,
-1.4389,0.582886,
-1.46027,0.616455,
-1.47705,0.556946,
-1.49841,0.521851,
-1.51978,0.538635,
-1.53961,0.582886,
-1.55945,0.614929,
-1.58386,0.550842,
-1.6037,0.521851,
-1.62659,0.544739,
-1.6449,0.582886,
-1.66626,0.613403,
-1.68304,0.550842,
-1.70135,0.523376,
-1.72272,0.541687,
-1.7395,0.578308,
-1.75629,0.614929,
-1.76849,0.547791,
-1.78223,0.523376,
-1.79596,0.544739,
-1.81427,0.578308,
-1.83258,0.614929,
-1.84784,0.540161,
-1.87073,0.524902,
-1.88751,0.534058,
-1.90735,0.579834,
-1.92261,0.616455,
-1.94702,0.544739,
-1.96533,0.526428,
-1.98364,0.553894,
-2.00653,0.579834,
-2.02789,0.613403,
-2.04926,0.550842,
-2.06604,0.526428,
-2.08435,0.541687,
-2.10876,0.57373,
-2.12708,0.619507,
-2.14844,0.569153,
-2.16217,0.532532,
-2.18658,0.540161,
-2.211,0.579834,
-2.23083,0.616455,
-2.25067,0.550842,
-2.27051,0.524902,
-2.29187,0.558472,
-2.31171,0.576782,
-2.33002,0.614929,
-2.34833,0.547791,
-2.36511,0.521851,
-2.3819,0.541687,
-2.39258,0.578308,
-2.40631,0.6073,
-2.42157,0.547791,
-2.43835,0.523376,
-2.44904,0.546265,
-2.45667,0.578308,
-2.45361,0.611877,
-2.44904,0.552368,
-2.43378,0.524902,
-2.42157,0.544739,
-2.40021,0.575256,
-2.36511,0.611877,
-2.32544,0.55542,
-2.28271,0.521851,
-2.23236,0.549316,
-2.17438,0.582886,
-2.10876,0.634766,
-2.03857,0.556946,
-1.96686,0.52948,
-1.88599,0.546265,
-1.80664,0.578308,
-1.72119,0.614929,
-1.63727,0.553894,
-1.55029,0.540161,
-1.46942,0.549316,
-1.38092,0.576782,
-1.29089,0.616455,
-1.20239,0.549316,
-1.12305,0.521851,
-1.04065,0.549316,
-0.958252,0.55542,
-0.878906,0.640869,
-0.805664,0.561523,
-0.737,0.523376,
-0.672913,0.549316,
-0.608826,0.58136,
-0.552368,0.613403,
-0.497437,0.550842,
-0.448608,0.518799,
-0.404358,0.552368,
-0.366211,0.578308,
-0.332642,0.616455,
-0.305176,0.55542,
-0.283813,0.520325,
-0.263977,0.547791,
-0.253296,0.576782,
-0.238037,0.616455,
-0.231934,0.553894,
-0.238037,0.521851,
-0.242615,0.552368,
-0.248718,0.57373,
-0.259399,0.616455,
-0.271606,0.558472,
-0.285339,0.518799,
-0.300598,0.550842,
-0.318909,0.578308,
-0.334167,0.614929,
-0.352478,0.558472,
-0.376892,0.520325,
-0.401306,0.549316,
-0.427246,0.575256,
-0.457764,0.613403,
-0.483704,0.547791,
-0.514221,0.518799,
-0.546265,0.546265,
-0.579834,0.572205,
-0.621033,0.616455,
-0.653076,0.576782,
-0.68512,0.527954,
-0.720215,0.552368,
-0.753784,0.575256,
-0.788879,0.613403,
-0.817871,0.559998,
-0.848389,0.495911,
-0.871277,0.553894,
-0.898743,0.576782,
-0.923157,0.614929,
-0.942993,0.556946,
-0.964355,0.521851,
-0.976563,0.572205,
-0.991821,0.58136,
-1.00555,0.604248,
-1.01624,0.561523,
-1.02997,0.521851,
-1.04065,0.550842,
-1.05286,0.576782,
-1.05438,0.613403,
-1.06049,0.561523,
-1.06506,0.523376,
-1.06201,0.552368,
-1.06049,0.572205,
-1.05743,0.611877,
-1.05438,0.561523,
-1.05438,0.520325,
-1.0498,0.550842,
-1.0437,0.57373,
-1.04218,0.614929,
-1.02844,0.566101,
-1.01776,0.517273,
-1.00708,0.549316,
-0.991821,0.575256,
-0.984192,0.613403,
-0.978088,0.567627,
-0.965881,0.515747,
-0.953674,0.552368,
-0.944519,0.572205,
-0.939941,0.613403,
-0.933838,0.569153,
-0.923157,0.515747,
-0.921631,0.55542,
-0.921631,0.578308,
-0.921631,0.595093,
-0.932312,0.575256,
-0.93689,0.514221,
-0.947571,0.549316,
-0.953674,0.57373,
-0.9552,0.595093,
-0.965881,0.563049,
-0.979614,0.515747,
-0.987244,0.547791,
-0.996399,0.57373,
-1.01318,0.614929,
-1.02997,0.566101,
-1.04523,0.520325,
-1.06506,0.552368,
-1.08795,0.579834,
-1.11084,0.617981,
-1.1322,0.572205,
-1.15509,0.517273,
-1.18103,0.55542,
-1.20239,0.57373,
-1.22528,0.610352,
-1.25427,0.572205,
-1.27411,0.514221,
-1.30157,0.550842,
-1.32751,0.57373,
-1.35345,0.611877,
-1.37329,0.569153,
-1.39465,0.515747,
-1.41907,0.552368,
-1.43738,0.57373,
-1.45874,0.614929,
-1.47552,0.569153,
-1.49536,0.518799,
-1.51825,0.549316,
-1.53656,0.57373,
-1.55182,0.611877,
-1.56708,0.567627,
-1.58691,0.517273,
-1.60522,0.547791,
-1.63269,0.569153,
-1.65405,0.610352,
-1.67694,0.570679,
-1.6983,0.518799,
-1.71814,0.550842,
-1.74103,0.570679,
-1.76697,0.616455,
-1.78528,0.567627,
-1.81122,0.517273,
-1.84021,0.546265,
-1.8631,0.566101,
-1.88904,0.59967,
-1.91193,0.524902,
-1.93176,0.517273,
-1.95465,0.547791,
-1.97601,0.566101,
-1.9989,0.613403,
-2.02026,0.572205,
-2.03705,0.518799,
-2.05078,0.547791,
-2.06909,0.52948,
-2.0874,0.610352,
-2.10571,0.575256,
-2.11945,0.523376,
-2.14386,0.541687,
-2.16064,0.570679,
-2.17438,0.6073,
-2.19269,0.622559,
-2.20795,0.506592,
-2.22321,0.552368,
-2.23846,0.572205,
-2.25372,0.611877,
-2.27509,0.575256,
-2.2934,0.517273,
-2.31323,0.547791,
-2.33002,0.570679,
-2.34222,0.605774,
-2.35901,0.572205,
-2.37122,0.515747,
-2.37732,0.543213,
-2.38495,0.582886,
-2.38647,0.608826,
-2.388,0.57373,
-2.38342,0.512695,
-2.37427,0.543213,
-2.36053,0.57373,
-2.34222,0.608826,
-2.31018,0.576782,
-2.27356,0.523376,
-2.22626,0.540161,
-2.17438,0.572205,
-2.10419,0.611877,
-2.02637,0.57373,
-1.94702,0.538635,
-1.8631,0.546265,
-1.77612,0.570679,
-1.68152,0.605774,
-1.57928,0.582886,
-1.48315,0.523376,
-1.38092,0.518799,
-1.26801,0.57373,
-1.1673,0.6073,
-1.06049,0.58136,
-0.965881,0.520325,
-0.865173,0.538635,
-0.764465,0.57373,
-0.668335,0.57373,
-0.578308,0.576782,
-0.491333,0.523376,
-0.418091,0.543213,
-0.346375,0.57373,
-0.280762,0.6073,
-0.222778,0.58136,
-0.158691,0.518799,
-0.102234,0.537109,
-0.0518799,0.57373,
-0.012207,0.602722,
0.0289917,0.579834,
0.0595093,0.500488,
0.0823975,0.544739,
0.0991821,0.584412,
0.114441,0.604248,
0.123596,0.584412,
0.128174,0.523376,
0.138855,0.559998,
0.144958,0.58136,
0.14801,0.59967,
0.144958,0.582886,
0.138855,0.520325,
0.1297,0.541687,
0.119019,0.575256,
0.108337,0.601196,
0.0900269,0.582886,
0.0747681,0.50354,
0.0534058,0.538635,
0.0274658,0.575256,
0.00610352,0.604248,
-0.0244141,0.579834,
-0.050354,0.526428,
-0.0900269,0.538635,
-0.12207,0.576782,
-0.157166,0.604248,
-0.187683,0.592041,
-0.219727,0.521851,
-0.257874,0.527954,
-0.291443,0.58136,
-0.328064,0.605774,
-0.357056,0.593567,
-0.387573,0.524902,
-0.421143,0.541687,
-0.442505,0.578308,
-0.466919,0.605774,
-0.492859,0.582886,
-0.514221,0.526428,
-0.535583,0.541687,
-0.552368,0.579834,
-0.570679,0.601196,
-0.592041,0.572205,
-0.6073,0.534058,
-0.622559,0.540161,
-0.631714,0.566101,
-0.640869,0.614929,
-0.646973,0.598145,
-0.648499,0.535583,
-0.65155,0.543213,
-0.648499,0.579834,
-0.648499,0.608826,
-0.643921,0.590515,
-0.637817,0.546265,
-0.631714,0.541687,
-0.624084,0.58136,
-0.621033,0.602722,
-0.611877,0.590515,
-0.602722,0.532532,
-0.601196,0.537109,
-0.593567,0.575256,
-0.588989,0.602722,
-0.58136,0.588989,
-0.575256,0.532532,
-0.570679,0.538635,
-0.563049,0.578308,
-0.556946,0.6073,
-0.552368,0.590515,
-0.544739,0.532532,
-0.543213,0.540161,
-0.537109,0.575256,
-0.534058,0.587463,
-0.538635,0.590515,
-0.540161,0.538635,
-0.541687,0.541687,
-0.547791,0.584412,
-0.552368,0.604248,
-0.559998,0.650024,
-0.566101,0.535583,
-0.576782,0.538635,
-0.585938,0.576782,
-0.593567,0.611877,
-0.604248,0.588989,
-0.616455,0.535583,
-0.630188,0.541687,
-0.645447,0.575256,
-0.660706,0.605774,
-0.67749,0.592041,
-0.691223,0.532532,
-0.709534,0.537109,
-0.726318,0.576782,
-0.747681,0.595093,
-0.765991,0.593567,
-0.787354,0.534058,
-0.805664,0.537109,
-0.830078,0.576782,
-0.846863,0.59967,
-0.868225,0.590515,
-0.888062,0.537109,
-0.909424,0.540161,
-0.933838,0.576782,
-0.958252,0.602722,
-0.984192,0.593567,
-1.01318,0.515747,
-1.03607,0.543213,
-1.05896,0.572205,
-1.0849,0.59967,
-1.11084,0.593567,
-1.13831,0.52948,
-1.15967,0.538635,
-1.18561,0.582886,
-1.21155,0.604248,
-1.23444,0.616455,
-1.26038,0.52948,
-1.28326,0.549316,
-1.31226,0.578308,
-1.33209,0.59967,
-1.35956,0.605774,
-1.38092,0.509644,
-1.39771,0.532532,
-1.41449,0.575256,
-1.43127,0.602722,
-1.44806,0.601196,
-1.46332,0.518799,
-1.48926,0.538635,
-1.51978,0.538635,
-1.54877,0.601196,
-1.57318,0.59967,
-1.6037,0.524902,
-1.63422,0.537109,
-1.65863,0.578308,
-1.67999,0.601196,
-1.70288,0.601196,
-1.73187,0.52948,
-1.75781,0.540161,
-1.78223,0.578308,
-1.80511,0.601196,
-1.828,0.598145,
-1.84937,0.532532,
-1.87683,0.538635,
-1.90277,0.57373,
-1.92108,0.601196,
-1.94244,0.59967,
-1.96838,0.52948,
-1.98517,0.543213,
-2.00958,0.578308,
-2.03247,0.59967,
-2.05078,0.598145,
-2.06757,0.535583,
-2.09045,0.535583,
-2.10876,0.576782,
-2.12402,0.59967,
-2.14233,0.601196,
-2.16217,0.535583,
-2.17896,0.540161,
-2.19421,0.575256,
-2.21405,0.593567,
-2.22168,0.604248,
-2.23236,0.532532,
-2.23846,0.541687,
-2.23694,0.556946,
-2.22778,0.598145,
-2.211,0.601196,
-2.18811,0.52948,
-2.15302,0.500488,
-2.11029,0.58136,
-2.05688,0.605774,
-1.99127,0.578308,
-1.92261,0.532532,
-1.84326,0.546265,
-1.75629,0.578308,
-1.66168,0.65918,
-1.56097,0.587463,
-1.46179,0.538635,
-1.35193,0.526428,
-1.24512,0.57373,
-1.14288,0.593567,
-1.03912,0.592041,
-0.935364,0.52948,
-0.834656,0.492859,
-0.732422,0.576782,
-0.634766,0.595093,
-0.546265,0.598145,
-0.45929,0.527954,
-0.376892,0.540161,
-0.300598,0.563049,
-0.224304,0.598145,
-0.160217,0.608826,
-0.0976563,0.538635,
-0.0457764,0.537109,
0.00305176,0.570679,
0.0411987,0.595093,
0.0823975,0.59967,
0.117493,0.527954,
0.141907,0.535583,
0.161743,0.572205,
0.183105,0.59967,
0.190735,0.593567,
0.192261,0.527954,
0.196838,0.534058,
0.196838,0.569153,
0.196838,0.593567,
0.193787,0.601196,
0.192261,0.527954,
0.184631,0.537109,
0.17395,0.569153,
0.158691,0.598145,
0.140381,0.605774,
0.12207,0.517273,
0.0991821,0.494385,
0.0762939,0.569153,
0.0488281,0.595093,
0.0259399,0.601196,
-0.00457764,0.526428,
-0.0320435,0.52948,
-0.0610352,0.575256,
-0.0900269,0.595093,
-0.125122,0.59967,
-0.160217,0.535583,
-0.195313,0.532532,
-0.231934,0.570679,
-0.263977,0.593567,
-0.297546,0.59967,
-0.335693,0.527954,
-0.369263,0.540161,
-0.402832,0.569153,
-0.439453,0.590515,
-0.465393,0.602722,
-0.494385,0.52948,
-0.520325,0.535583,
-0.540161,0.567627,
-0.566101,0.587463,
-0.582886,0.598145,
-0.59967,0.543213,
-0.614929,0.532532,
-0.628662,0.570679,
-0.634766,0.592041,
-0.639343,0.59967,
-0.643921,0.52948,
-0.646973,0.534058,
-0.643921,0.563049,
-0.640869,0.587463,
-0.634766,0.598145,
-0.631714,0.535583,
-0.631714,0.485229,
-0.628662,0.567627,
-0.62561,0.59967,
-0.621033,0.59967,
-0.613403,0.52948,
-0.604248,0.526428,
-0.596619,0.569153,
-0.587463,0.587463,
-0.576782,0.566101,
-0.575256,0.546265,
-0.570679,0.52948,
-0.567627,0.566101,
-0.564575,0.590515,
-0.563049,0.595093,
-0.561523,0.52948,
-0.556946,0.511169,
-0.553894,0.558472,
-0.558472,0.593567,
-0.563049,0.59967,
-0.564575,0.532532,
-0.569153,0.532532,
-0.569153,0.559998,
-0.575256,0.590515,
-0.58136,0.593567,
-0.590515,0.52948,
-0.59967,0.527954,
-0.611877,0.561523,
-0.622559,0.592041,
-0.637817,0.598145,
-0.65155,0.534058,
-0.666809,0.526428,
-0.683594,0.552368,
-0.700378,0.588989,
-0.715637,0.593567,
-0.735474,0.527954,
-0.75531,0.524902,
-0.775146,0.558472,
-0.794983,0.572205,
-0.813293,0.656128,
-0.834656,0.534058,
-0.849915,0.521851,
-0.868225,0.563049,
-0.888062,0.590515,
-0.907898,0.588989,
-0.926208,0.532532,
-0.9552,0.512695,
-0.978088,0.561523,
-1.0025,0.592041,
-1.02997,0.602722,
-1.05133,0.540161,
-1.07574,0.521851,
-1.10321,0.566101,
-1.12915,0.598145,
-1.15356,0.595093,
-1.18103,0.566101,
-1.20239,0.524902,
-1.22528,0.561523,
-1.25122,0.585938,
-1.27563,0.59967,
-1.30157,0.535583,
-1.32904,0.52948,
-1.35651,0.566101,
-1.3855,0.590515,
-1.41449,0.593567,
-1.43585,0.532532,
-1.45721,0.523376,
-1.4801,0.559998,
-1.50146,0.593567,
-1.51825,0.595093,
-1.54266,0.541687,
-1.56097,0.52948,
-1.58386,0.544739,
-1.60522,0.608826,
-1.62659,0.590515,
-1.64642,0.523376,
-1.66931,0.521851,
-1.69067,0.569153,
-1.70746,0.59967,
-1.72424,0.592041,
-1.73645,0.532532,
-1.75629,0.524902,
-1.77002,0.559998,
-1.7868,0.598145,
-1.80054,0.593567,
-1.81885,0.537109,
-1.83258,0.518799,
-1.84326,0.553894,
-1.85547,0.598145,
-1.8692,0.592041,
-1.88293,0.540161,
-1.89667,0.518799,
-1.90887,0.563049,
-1.91803,0.592041,
-1.93176,0.595093,
-1.94244,0.537109,
-1.95923,0.515747,
-1.97296,0.559998,
-1.98975,0.59967,
-2.00348,0.590515,
-2.02332,0.537109,
-2.04468,0.52948,
-2.06451,0.57373,
-2.07977,0.59967,
-2.10876,0.592041,
-2.12555,0.540161,
-2.14844,0.518799,
-2.17133,0.567627,
-2.19116,0.6073,
-2.21252,0.595093,
-2.22778,0.518799,
-2.24457,0.520325,
-2.2522,0.563049,
-2.25677,0.601196,
-2.2583,0.588989,
-2.2522,0.538635,
-2.24304,0.517273,
-2.22321,0.567627,
-2.19116,0.602722,
-2.15302,0.595093,
-2.10724,0.535583,
-2.04926,0.517273,
-1.98822,0.566101,
-1.9165,0.602722,
-1.83716,0.590515,
-1.74713,0.535583,
-1.65253,0.520325,
-1.55029,0.582886,
-1.45111,0.59967,
-1.35498,0.593567,
-1.2558,0.535583,
-1.15356,0.518799,
-1.0498,0.563049,
-0.944519,0.59967,
-0.849915,0.598145,
-0.749207,0.540161,
-0.656128,0.526428,
-0.563049,0.563049,
-0.476074,0.602722,
-0.392151,0.59967,
-0.314331,0.537109,
-0.242615,0.506592,
-0.177002,0.569153,
-0.117493,0.601196,
-0.0564575,0.587463,
-0.00762939,0.537109,
0.0396729,0.521851,
0.0762939,0.569153,
0.111389,0.59967,
0.135803,0.595093,
0.160217,0.540161,
0.18158,0.517273,
0.190735,0.570679,
0.202942,0.595093,
0.210571,0.595093,
0.210571,0.540161,
0.209045,0.520325,
0.198364,0.572205,
0.184631,0.595093,
0.169373,0.59967,
0.154114,0.556946,
0.1297,0.521851,
0.105286,0.566101,
0.0778198,0.593567,
0.0549316,0.585938,
0.0289917,0.538635,
-0.00610352,0.520325,
-0.0366211,0.540161,
-0.0778198,0.595093,
-0.111389,0.590515,
-0.146484,0.532532,
-0.184631,0.518799,
-0.227356,0.563049,
-0.260925,0.602722,
-0.302124,0.567627,
-0.343323,0.538635,
-0.384521,0.512695,
-0.422668,0.569153,
-0.456238,0.6073,
-0.489807,0.590515,
-0.520325,0.538635,
-0.553894,0.517273,
-0.578308,0.563049,
-0.604248,0.669861,
-0.624084,0.593567,
-0.648499,0.537109,
-0.669861,0.509644,
-0.689697,0.579834,
-0.706482,0.604248,
-0.718689,0.592041,
-0.72937,0.537109,
-0.741577,0.511169,
-0.752258,0.538635,
-0.764465,0.605774,
-0.769043,0.608826,
-0.773621,0.535583,
-0.773621,0.515747,
-0.773621,0.567627,
-0.775146,0.576782,
-0.773621,0.590515,
-0.773621,0.523376,
-0.776672,0.524902,
-0.767517,0.561523,
-0.764465,0.601196,
-0.759888,0.590515,
-0.75531,0.535583,
-0.749207,0.511169,
-0.744629,0.566101,
-0.737,0.59967,
-0.72937,0.592041,
-0.726318,0.538635,
-0.724792,0.517273,
-0.721741,0.566101,
-0.718689,0.59967,
-0.720215,0.621033,
-0.721741,0.572205,
-0.718689,0.512695,
-0.718689,0.570679,
-0.718689,0.604248,
-0.720215,0.587463,
-0.727844,0.534058,
-0.732422,0.515747,
-0.738525,0.537109,
-0.747681,0.598145,
-0.75531,0.588989,
-0.765991,0.537109,
-0.782776,0.514221,
-0.799561,0.569153,
-0.80719,0.604248,
-0.822449,0.585938,
-0.837708,0.495911,
-0.857544,0.512695,
-0.875854,0.553894,
-0.895691,0.595093,
-0.91095,0.58136,
-0.924683,0.538635,
-0.939941,0.517273,
-0.953674,0.563049,
-0.970459,0.602722,
-0.990295,0.584412,
-1.01318,0.52948,
-1.03607,0.515747,
-1.0498,0.566101,
-1.06354,0.601196,
-1.08337,0.584412,
-1.10779,0.535583,
-1.13068,0.506592,
-1.15356,0.561523,
-1.1795,0.602722,
-1.20087,0.58136,
-1.22986,0.532532,
-1.25122,0.520325,
-1.27869,0.563049,
-1.30615,0.602722,
-1.32599,0.588989,
-1.35956,0.535583,
-1.38092,0.514221,
-1.40686,0.561523,
-1.42975,0.605774,
-1.45416,0.579834,
-1.47552,0.520325,
-1.49994,0.517273,
-1.5274,0.561523,
-1.54419,0.602722,
-1.57013,0.578308,
-1.58997,0.532532,
-1.61743,0.511169,
-1.63574,0.563049,
-1.66473,0.598145,
-1.68762,0.57373,
-1.71051,0.532532,
-1.7334,0.514221,
-1.75629,0.561523,
-1.77612,0.59967,
-1.79138,0.572205,
-1.80969,0.524902,
-1.82648,0.517273,
-1.84479,0.567627,
-1.8631,0.604248,
-1.87836,0.572205,
-1.90125,0.527954,
-1.91498,0.514221,
-1.93329,0.561523,
-1.95007,0.602722,
-1.96838,0.570679,
-1.98669,0.527954,
-2.00348,0.514221,
-2.02179,0.566101,
-2.0401,0.604248,
-2.05994,0.567627,
-2.0813,0.532532,
-2.09961,0.514221,
-2.11487,0.566101,
-2.13318,0.59967,
-2.15149,0.569153,
-2.16827,0.52948,
-2.18658,0.515747,
-2.2049,0.563049,
-2.22015,0.601196,
-2.23999,0.570679,
-2.25372,0.52948,
-2.26593,0.517273,
-2.28271,0.575256,
-2.29797,0.605774,
-2.31171,0.572205,
-2.33154,0.526428,
-2.3468,0.521851,
-2.35901,0.566101,
-2.37579,0.595093,
-2.39563,0.572205,
-2.41241,0.526428,
-2.4231,0.515747,
-2.4353,0.559998,
-2.44598,0.614929,
-2.45667,0.57373,
-2.46582,0.518799,
-2.46735,0.512695,
-2.46735,0.57373,
-2.45972,0.605774,
-2.44751,0.546265,
-2.43073,0.537109,
-2.41089,0.515747,
-2.38495,0.563049,
-2.34833,0.6073,
-2.2995,0.572205,
-2.23999,0.524902,
-2.1698,0.515747,
-2.09198,0.572205,
-2.00958,0.608826,
-1.91956,0.567627,
-1.82648,0.537109,
-1.72577,0.514221,
-1.62354,0.570679,
-1.5213,0.613403,
-1.41602,0.561523,
-1.31226,0.523376,
-1.2085,0.511169,
-1.10779,0.578308,
-1.00708,0.601196,
-0.907898,0.559998,
-0.816345,0.517273,
-0.72937,0.518799,
-0.643921,0.567627,
-0.564575,0.611877,
-0.495911,0.558472,
-0.424194,0.523376,
-0.361633,0.502014,
-0.311279,0.575256,
-0.259399,0.605774,
-0.216675,0.559998,
-0.186157,0.517273,
-0.152588,0.517273,
-0.128174,0.566101,
-0.108337,0.610352,
-0.0854492,0.553894,
-0.0732422,0.523376,
-0.0595093,0.523376,
-0.0579834,0.561523,
-0.0564575,0.610352,
-0.0579834,0.563049,
-0.0610352,0.520325,
-0.0686646,0.512695,
-0.0808716,0.561523,
-0.0915527,0.6073,
-0.112915,0.553894,
-0.137329,0.521851,
-0.17395,0.520325,
-0.202942,0.561523,
-0.231934,0.608826,
-0.262451,0.55542,
-0.292969,0.518799,
-0.331116,0.520325,
-0.369263,0.561523,
-0.404358,0.6073,
-0.437927,0.553894,
-0.476074,0.520325,
-0.518799,0.521851,
-0.55542,0.553894,
-0.595093,0.602722,
-0.634766,0.55542,
-0.674438,0.579834,
-0.714111,0.532532,
-0.753784,0.556946,
-0.790405,0.6073,
-0.827026,0.558472,
-0.854492,0.521851,
-0.888062,0.532532,
-0.912476,0.559998,
-0.932312,0.610352,
-0.949097,0.556946,
-0.970459,0.520325,
-0.98114,0.523376,
-0.994873,0.563049,
-1.00403,0.610352,
-1.01166,0.556946,
-1.01013,0.521851,
-1.01166,0.524902,
-1.01013,0.563049,
-1.00555,0.6073,
-1.00098,0.553894,
-0.994873,0.518799,
-0.993347,0.521851,
-0.987244,0.541687,
-0.984192,0.621033,
-0.973511,0.559998,
-0.961304,0.520325,
-0.956726,0.526428,
-0.942993,0.569153,
-0.935364,0.6073,
-0.926208,0.559998,
-0.917053,0.515747,
-0.91095,0.526428,
-0.906372,0.567627,
-0.895691,0.608826,
-0.888062,0.552368,
-0.881958,0.523376,
-0.87738,0.541687,
-0.872803,0.570679,
-0.872803,0.608826,
-0.869751,0.558472,
-0.868225,0.518799,
-0.866699,0.527954,
-0.869751,0.567627,
-0.874329,0.605774,
-0.880432,0.55542,
-0.886536,0.518799,
-0.900269,0.52948,
-0.907898,0.567627,
-0.923157,0.608826,
-0.941467,0.558472,
-0.9552,0.518799,
-0.971985,0.532532,
-0.993347,0.561523,
-1.01318,0.604248,
-1.02844,0.559998,
-1.05133,0.514221,
-1.07574,0.527954,
-1.09253,0.563049,
-1.11542,0.604248,
-1.13373,0.563049,
-1.15814,0.518799,
-1.1795,0.527954,
-1.20239,0.561523,
-1.2207,0.605774,
-1.24969,0.546265,
-1.27106,0.517273,
-1.297,0.523376,
-1.32446,0.566101,
-1.35193,0.621033,
-1.37482,0.563049,
-1.39771,0.514221,
-1.42517,0.526428,
-1.44958,0.563049,
-1.47095,0.6073,
-1.49994,0.575256,
-1.5213,0.515747,
-1.54877,0.541687,
-1.57166,0.563049,
-1.59607,0.6073,
-1.61896,0.569153,
-1.64337,0.512695,
-1.67084,0.532532,
-1.69067,0.570679,
-1.71661,0.610352,
-1.7395,0.567627,
-1.76697,0.511169,
-1.79443,0.527954,
-1.8219,0.567627,
-1.84326,0.610352,
-1.86768,0.578308,
-1.89056,0.532532,
-1.91803,0.527954,
-1.93939,0.570679,
-1.96838,0.608826,
-1.99127,0.58136,
-2.01416,0.508118,
-2.034,0.524902,
-2.05994,0.572205,
-2.08282,0.604248,
-2.10266,0.57373,
-2.12555,0.505066,
-2.14233,0.524902,
-2.16217,0.567627,
-2.18048,0.611877,
-2.19727,0.579834,
-2.22168,0.511169,
-2.23846,0.537109,
-2.25677,0.566101,
-2.28119,0.59967,
-2.2995,0.584412,
-2.31781,0.514221,
-2.3407,0.534058,
-2.35291,0.566101,
-2.37579,0.613403,
-2.39563,0.585938,
-2.41394,0.502014,
-2.43225,0.52948,
-2.44904,0.566101,
-2.46582,0.605774,
-2.47955,0.582886,
-2.49634,0.526428,
-2.5177,0.537109,
-2.53448,0.566101,
-2.5528,0.611877,
-2.56805,0.592041,
-2.58331,0.511169,
-2.59857,0.534058,
-2.61536,0.552368,
-2.62909,0.6073,
-2.64435,0.587463,
-2.66418,0.514221,
-2.67487,0.523376,
-2.68402,0.569153,
-2.68402,0.6073,
-2.68402,0.587463,
-2.67487,0.511169,
-2.66113,0.523376,
-2.63672,0.566101,
-2.60315,0.613403,
-2.56042,0.587463,
-2.50549,0.509644,
-2.44751,0.526428,
-2.37579,0.563049,
-2.29187,0.611877,
-2.2049,0.590515,
-2.11182,0.512695,
-2.00806,0.521851,
-1.90735,0.63324,
-1.80206,0.610352,
-1.69678,0.592041,
-1.58844,0.500488,
-1.48468,0.515747,
-1.37939,0.569153,
-1.26801,0.608826,
-1.1673,0.593567,
-1.06964,0.514221,
-0.968933,0.520325,
-0.875854,0.559998,
-0.790405,0.613403,
-0.698853,0.602722,
-0.614929,0.514221,
-0.538635,0.518799,
-0.462341,0.563049,
-0.396729,0.608826,
-0.338745,0.59967,
-0.291443,0.517273,
-0.248718,0.521851,
-0.209045,0.567627,
-0.183105,0.610352,
-0.158691,0.590515,
-0.131226,0.512695,
-0.120544,0.520325,
-0.106812,0.563049,
-0.0991821,0.605774,
-0.0915527,0.598145,
-0.0961304,0.512695,
-0.0976563,0.517273,
-0.102234,0.559998,
-0.112915,0.605774,
-0.120544,0.549316,
-0.135803,0.523376,
-0.154114,0.520325,
-0.178528,0.572205,
-0.19989,0.602722,
-0.22583,0.598145,
-0.256348,0.532532,
-0.285339,0.549316,
-0.317383,0.559998,
-0.3479,0.608826,
-0.382996,0.602722,
-0.418091,0.520325,
-0.453186,0.520325,
-0.489807,0.570679,
-0.531006,0.605774,
-0.570679,0.552368,
-0.6073,0.505066,
-0.650024,0.526428,
-0.697327,0.575256,
-0.737,0.613403,
-0.778198,0.604248,
-0.814819,0.515747,
-0.852966,0.521851,
-0.886536,0.567627,
-0.914001,0.608826,
-0.939941,0.59967,
-0.968933,0.52948,
-0.98877,0.524902,
-1.01166,0.578308,
-1.02386,0.604248,
-1.03912,0.601196,
-1.05896,0.518799,
-1.06354,0.521851,
-1.07269,0.567627,
-1.08185,0.605774,
-1.0849,0.601196,
-1.08948,0.518799,
-1.09253,0.521851,
-1.09406,0.569153,
-1.08795,0.604248,
-1.08643,0.602722,
-1.07422,0.520325,
-1.07117,0.523376,
-1.06049,0.569153,
-1.05286,0.6073,
-1.04218,0.59967,
-1.03607,0.520325,
-1.02386,0.524902,
-1.01013,0.569153,
-1.0025,0.598145,
-0.993347,0.602722,
-0.987244,0.515747,
-0.98114,0.517273,
-0.975037,0.567627,
-0.965881,0.6073,
-0.965881,0.602722,
-0.967407,0.520325,
-0.968933,0.521851,
-0.968933,0.570679,
-0.970459,0.604248,
-0.975037,0.604248,
-0.982666,0.518799,
-0.990295,0.520325,
-0.994873,0.569153,
-1.00708,0.602722,
-1.01776,0.59967,
-1.02539,0.526428,
-1.0376,0.520325,
-1.05286,0.569153,
-1.07117,0.6073,
-1.0849,0.59967,
-1.10779,0.524902,
-1.12152,0.520325,
-1.14288,0.569153,
-1.16119,0.608826,
-1.18256,0.59967,
-1.20697,0.523376,
-1.22375,0.514221,
-1.24817,0.570679,
-1.26801,0.590515,
-1.29242,0.59967,
-1.31683,0.495911,
-1.33514,0.494385,
-1.35498,0.570679,
-1.38092,0.605774,
-1.40228,0.602722,
-1.42517,0.523376,
-1.45264,0.514221,
-1.48163,0.602722,
-1.50452,0.610352,
-1.53198,0.595093,
-1.56097,0.566101,
-1.59149,0.582886,
-1.62201,0.576782,
-1.64948,0.59967,
-1.67847,0.601196,
-1.71204,0.532532,
-1.74255,0.517273,
-1.7746,0.575256,
-1.80511,0.604248,
-1.82953,0.6073,
-1.85852,0.517273,
-1.88293,0.55542,
-1.90887,0.572205,
-1.93329,0.604248,
-1.95618,0.59967,
-1.98059,0.52948,
-2.00806,0.515747,
-2.03247,0.57373,
-2.05688,0.610352,
-2.07977,0.601196,
-2.10419,0.526428,
-2.12708,0.514221,
-2.15454,0.57373,
-2.17743,0.656128,
-2.19727,0.59967,
-2.2171,0.532532,
-2.24304,0.523376,
-2.26593,0.582886,
-2.28577,0.601196,
-2.30865,0.601196,
-2.33154,0.526428,
-2.34833,0.515747,
-2.36816,0.578308,
-2.39105,0.601196,
-2.41241,0.601196,
-2.43225,0.52948,
-2.45056,0.517273,
-2.4704,0.57373,
-2.48871,0.601196,
-2.50702,0.595093,
-2.52686,0.532532,
-2.54822,0.517273,
-2.56348,0.575256,
-2.58484,0.602722,
-2.60162,0.593567,
-2.61993,0.52948,
-2.63672,0.514221,
-2.65961,0.57373,
-2.67944,0.604248,
-2.69928,0.592041,
-2.72064,0.532532,
-2.742,0.514221,
-2.76184,0.572205,
-2.77557,0.604248,
-2.79236,0.595093,
-2.80762,0.535583,
-2.8183,0.514221,
-2.84119,0.566101,
-2.85492,0.59967,
-2.8717,0.593567,
-2.88391,0.532532,
-2.89459,0.514221,
-2.9007,0.569153,
-2.90527,0.643921,
-2.9007,0.590515,
-2.89459,0.534058,
-2.87781,0.514221,
-2.85645,0.569153,
-2.8244,0.602722,
-2.7771,0.595093,
-2.72675,0.547791,
-2.66418,0.511169,
-2.59094,0.587463,
-2.50702,0.567627,
-2.41547,0.593567,
-2.31934,0.538635,
-2.21252,0.514221,
-2.10266,0.576782,
-1.98364,0.593567,
-1.8692,0.593567,
-1.75018,0.537109,
-1.64032,0.511169,
-1.52893,0.572205,
-1.41907,0.59967,
-1.31073,0.593567,
-1.19934,0.559998,
-1.09253,0.515747,
-0.994873,0.570679,
-0.897217,0.59967,
-0.801086,0.590515,
-0.712585,0.537109,
-0.631714,0.511169,
-0.55542,0.572205,
-0.4776,0.602722,
-0.411987,0.593567,
-0.354004,0.537109,
-0.302124,0.512695,
-0.257874,0.572205,
-0.216675,0.59967,
-0.187683,0.587463,
-0.166321,0.541687,
-0.146484,0.512695,
-0.131226,0.552368,
-0.117493,0.598145,
-0.108337,0.584412,
-0.106812,0.540161,
-0.106812,0.512695,
-0.111389,0.57373,
-0.119019,0.6073,
-0.123596,0.587463,
-0.141907,0.538635,
-0.154114,0.509644,
-0.17395,0.57373,
-0.192261,0.598145,
-0.218201,0.582886,
-0.248718,0.540161,
-0.282288,0.509644,
-0.312805,0.57373,
-0.340271,0.593567,
-0.369263,0.585938,
-0.405884,0.540161,
-0.442505,0.509644,
-0.483704,0.572205,
-0.526428,0.595093,
-0.564575,0.585938,
-0.605774,0.543213,
-0.65155,0.511169,
-0.692749,0.57373,
-0.72937,0.593567,
-0.769043,0.578308,
-0.808716,0.549316,
-0.848389,0.491333,
-0.880432,0.576782,
-0.917053,0.598145,
-0.950623,0.584412,
-0.979614,0.537109,
-1.00861,0.508118,
-1.03302,0.579834,
-1.05438,0.605774,
-1.06964,0.58136,
-1.08795,0.544739,
-1.09863,0.506592,
-1.10779,0.567627,
-1.11237,0.588989,
-1.11694,0.587463,
-1.11847,0.541687,
-1.11694,0.511169,
-1.10931,0.570679,
-1.10779,0.595093,
-1.10168,0.575256,
-1.091,0.541687,
-1.08337,0.506592,
-1.07269,0.566101,
-1.06049,0.598145,
-1.04675,0.578308,
-1.02997,0.544739,
-1.01776,0.509644,
-1.00403,0.570679,
-1.00098,0.59967,
-0.994873,0.584412,
-0.984192,0.532532,
-0.979614,0.506592,
-0.975037,0.570679,
-0.970459,0.595093,
-0.970459,0.575256,
-0.968933,0.537109,
-0.973511,0.506592,
-0.971985,0.57373,
-0.971985,0.590515,
-0.975037,0.575256,
-0.976563,0.546265,
-0.982666,0.506592,
-0.991821,0.566101,
-1.0025,0.604248,
-1.01471,0.576782,
-1.02386,0.546265,
-1.03912,0.508118,
-1.05286,0.569153,
-1.06812,0.592041,
-1.0849,0.566101,
-1.10779,0.547791,
-1.12915,0.506592,
-1.14746,0.570679,
-1.16577,0.587463,
-1.1795,0.572205,
-1.19629,0.55542,
-1.21613,0.515747,
-1.23291,0.569153,
-1.25427,0.588989,
-1.27716,0.57373,
-1.30005,0.547791,
-1.32141,0.517273,
-1.34735,0.566101,
-1.36719,0.590515,
-1.3916,0.575256,
-1.41907,0.549316,
-1.44806,0.500488,
-1.47552,0.567627,
-1.50452,0.587463,
-1.53198,0.572205,
-1.56403,0.547791,
-1.59607,0.508118,
-1.63269,0.567627,
-1.66168,0.601196,
-1.6922,0.570679,
-1.72272,0.547791,
-1.75171,0.508118,
-1.7807,0.559998,
-1.80817,0.59967,
-1.83716,0.576782,
-1.86615,0.602722,
-1.89819,0.50354,
-1.92871,0.567627,
-1.96228,0.592041,
-1.98517,0.567627,
-2.01569,0.535583,
-2.04163,0.512695,
-2.06757,0.520325,
-2.09198,0.595093,
-2.11487,0.569153,
-2.13776,0.550842,
-2.16064,0.515747,
-2.18048,0.559998,
-2.20642,0.57373,
-2.22473,0.547791,
-2.23999,0.543213,
-2.2583,0.511169,
-2.27814,0.558472,
-2.2934,0.588989,
-2.31018,0.567627,
-2.32391,0.553894,
-2.3468,0.509644,
-2.36359,0.563049,
-2.38342,0.590515,
-2.39716,0.569153,
-2.41699,0.547791,
-2.43073,0.509644,
-2.44751,0.566101,
-2.46429,0.590515,
-2.48413,0.567627,
-2.49786,0.550842,
-2.51617,0.514221,
-2.53296,0.563049,
-2.54974,0.588989,
-2.56653,0.570679,
-2.58636,0.550842,
-2.60315,0.492859,
-2.61993,0.553894,
-2.63672,0.547791,
-2.65198,0.567627,
-2.67029,0.552368,
-2.68555,0.502014,
-2.70233,0.567627,
-2.72369,0.590515,
-2.73285,0.569153,
-2.75269,0.59967,
-2.76794,0.534058,
-2.78625,0.556946,
-2.80457,0.590515,
-2.82135,0.575256,
-2.84119,0.549316,
-2.8595,0.508118,
-2.87781,0.55542,
-2.89764,0.592041,
-2.92053,0.569153,
-2.93884,0.552368,
-2.96326,0.508118,
-2.98004,0.556946,
-2.99377,0.592041,
-3.00293,0.570679,
-3.01208,0.550842,
-3.01361,0.509644,
-3.00598,0.559998,
-2.9892,0.590515,
-2.96936,0.572205,
-2.93884,0.552368,
-2.89764,0.511169,
-2.84271,0.556946,
-2.78015,0.590515,
-2.70538,0.566101,
-2.62604,0.547791,
-2.53754,0.511169,
-2.43835,0.556946,
-2.33459,0.587463,
-2.22168,0.567627,
-2.10571,0.550842,
-1.98975,0.512695,
-1.87073,0.549316,
-1.74713,0.588989,
-1.63269,0.582886,
-1.51978,0.556946,
-1.40686,0.511169,
-1.29395,0.561523,
-1.18713,0.592041,
-1.08643,0.570679,
-0.98877,0.558472,
-0.898743,0.514221,
-0.811768,0.550842,
-0.726318,0.590515,
-0.650024,0.572205,
-0.58136,0.549316,
-0.521851,0.509644,
-0.466919,0.546265,
-0.422668,0.585938,
-0.379944,0.569153,
-0.341797,0.543213,
-0.315857,0.509644,
-0.288391,0.549316,
-0.268555,0.587463,
-0.25177,0.570679,
-0.244141,0.552368,
-0.239563,0.508118,
-0.242615,0.549316,
-0.248718,0.587463,
-0.253296,0.572205,
-0.262451,0.547791,
-0.273132,0.508118,
-0.294495,0.540161,
-0.314331,0.584412,
-0.331116,0.570679,
-0.358582,0.543213,
-0.384521,0.505066,
-0.411987,0.544739,
-0.448608,0.587463,
-0.480652,0.576782,
-0.517273,0.552368,
-0.552368,0.509644,
-0.588989,0.537109,
-0.62561,0.631714,
-0.666809,0.575256,
-0.706482,0.544739,
-0.749207,0.511169,
-0.790405,0.541687,
-0.830078,0.585938,
-0.872803,0.576782,
-0.912476,0.540161,
-0.953674,0.511169,
-0.994873,0.541687,
-1.03455,0.576782,
-1.07269,0.576782,
-1.11084,0.556946,
-1.13983,0.527954,
-1.1673,0.541687,
-1.19019,0.579834,
-1.21155,0.578308,
-1.23596,0.55542,
-1.26038,0.498962,
-1.27563,0.535583,
-1.29242,0.572205,
-1.29852,0.579834,
-1.3092,0.546265,
-1.31378,0.509644,
-1.32751,0.535583,
-1.32904,0.584412,
-1.33209,0.578308,
-1.33362,0.547791,
-1.33209,0.508118,
-1.32599,0.52948,
-1.32446,0.579834,
-1.31683,0.584412,
-1.31073,0.546265,
-1.3031,0.509644,
-1.29395,0.532532,
-1.28937,0.588989,
-1.28326,0.578308,
-1.27106,0.547791,
-1.2619,0.509644,
-1.25732,0.544739,
-1.25275,0.585938,
-1.25732,0.58136,
-1.27106,0.546265,
-1.28326,0.509644,
-1.297,0.532532,
-1.3031,0.582886,
-1.31683,0.582886,
-1.32599,0.546265,
-1.33667,0.511169,
-1.35498,0.534058,
-1.36566,0.585938,
-1.38397,0.579834,
-1.39618,0.544739,
-1.40839,0.511169,
-1.42517,0.532532,
-1.4389,0.584412,
-1.45264,0.579834,
-1.46484,0.541687,
-1.48315,0.506592,
-1.49689,0.535583,
-1.51062,0.58136,
-1.5274,0.585938,
-1.55182,0.540161,
-1.57318,0.515747,
-1.59607,0.52948,
-1.61743,0.582886,
-1.64337,0.628662,
-1.66779,0.505066,
-1.6922,0.512695,
-1.72119,0.527954,
-1.74255,0.58136,
-1.76697,0.58136,
-1.79291,0.544739,
-1.81732,0.523376,
-1.84174,0.52948,
-1.8631,0.58136,
-1.88293,0.584412,
-1.90887,0.543213,
-1.93481,0.518799,
-1.96533,0.532532,
-1.99127,0.579834,
-2.02179,0.58136,
-2.04926,0.541687,
-2.07672,0.508118,
-2.10571,0.532532,
-2.13776,0.582886,
-2.16522,0.585938,
-2.19116,0.544739,
-2.22473,0.512695,
-2.25067,0.534058,
-2.27661,0.582886,
-2.30103,0.58136,
-2.32544,0.543213,
-2.34985,0.512695,
-2.37122,0.52948,
-2.40021,0.582886,
-2.42004,0.579834,
-2.44598,0.534058,
-2.47345,0.511169,
-2.49634,0.52948,
-2.5177,0.58136,
-2.54059,0.584412,
-2.57568,0.541687,
-2.60468,0.509644,
-2.63519,0.526428,
-2.66266,0.584412,
-2.68555,0.58136,
-2.70844,0.541687,
-2.73438,0.508118,
-2.76031,0.534058,
-2.78015,0.58136,
-2.80151,0.579834,
-2.82135,0.544739,
-2.84119,0.509644,
-2.85797,0.527954,
-2.87628,0.58136,
-2.89612,0.58136,
-2.91443,0.541687,
-2.92664,0.511169,
-2.94495,0.521851,
-2.96173,0.58136,
-2.97852,0.584412,
-2.99683,0.541687,
-3.01514,0.512695,
-3.02887,0.526428,
-3.04108,0.579834,
-3.05939,0.558472,
-3.0777,0.505066,
-3.09753,0.488281,
-3.1189,0.527954,
-3.14026,0.585938,
-3.16467,0.58136,
-3.18756,0.535583,
-3.21503,0.485229,
-3.23334,0.526428,
-3.25775,0.585938,
-3.27759,0.593567,
-3.2959,0.558472,
-3.31726,0.523376,
-3.33405,0.526428,
-3.35083,0.584412,
-3.35846,0.584412,
-3.37219,0.544739,
-3.37677,0.514221,
-3.37982,0.526428,
-3.37677,0.582886,
-3.37372,0.58136,
-3.36151,0.541687,
-3.33862,0.498962,
-3.30658,0.523376,
-3.26385,0.584412,
-3.21045,0.582886,
-3.14178,0.538635,
-3.06854,0.512695,
-2.98157,0.518799,
-2.89307,0.587463,
-2.79541,0.582886,
-2.69775,0.541687,
-2.58942,0.515747,
-2.47803,0.524902,
-2.36359,0.585938,
-2.25372,0.584412,
-2.13928,0.543213,
-2.02637,0.514221,
-1.91956,0.527954,
-1.80969,0.588989,
-1.69983,0.584412,
-1.59912,0.538635,
-1.50299,0.511169,
-1.41144,0.518799,
-1.31989,0.572205,
-1.23749,0.585938,
-1.16119,0.541687,
-1.09253,0.517273,
-1.02386,0.526428,
-0.965881,0.587463,
-0.909424,0.590515,
-0.866699,0.550842,
-0.827026,0.521851,
-0.790405,0.521851,
-0.764465,0.590515,
-0.740051,0.587463,
-0.721741,0.541687,
-0.715637,0.512695,
-0.71106,0.524902,
-0.709534,0.601196,
-0.709534,0.585938,
-0.721741,0.541687,
-0.733948,0.511169,
-0.747681,0.524902,
-0.759888,0.590515,
-0.776672,0.585938,
-0.793457,0.544739,
-0.811768,0.517273,
-0.837708,0.52948,
-0.849915,0.593567,
-0.875854,0.587463,
-0.90332,0.549316,
-0.933838,0.55542,
-0.967407,0.552368,
-1.00403,0.587463,
-1.03912,0.590515,
-1.08643,0.543213,
-1.12762,0.515747,
-1.1795,0.518799,
-1.21765,0.587463,
-1.26343,0.585938,
-1.3092,0.549316,
-1.34888,0.526428,
-1.39008,0.520325,
-1.42822,0.582886,
-1.47095,0.579834,
-1.51215,0.602722,
-1.54419,0.517273,
-1.57471,0.521851,
-1.60522,0.592041,
-1.62811,0.588989,
-1.65558,0.546265,
-1.67389,0.517273,
-1.69678,0.538635,
-1.71661,0.593567,
-1.72729,0.59967,
-1.73035,0.547791,
-1.74103,0.521851,
-1.74561,0.524902,
-1.74866,0.588989,
-1.74561,0.592041,
-1.74255,0.547791,
-1.7395,0.517273,
-1.73035,0.524902,
-1.72729,0.587463,
-1.72119,0.590515,
-1.71356,0.546265,
-1.70288,0.517273,
-1.69067,0.527954,
-1.67694,0.590515,
-1.66321,0.592041,
-1.65253,0.547791,
-1.64185,0.518799,
-1.63422,0.521851,
-1.62506,0.590515,
-1.61438,0.598145,
-1.61133,0.549316,
-1.61285,0.517273,
-1.61743,0.52948,
-1.62048,0.587463,
-1.61896,0.595093,
-1.62354,0.579834,
-1.62506,0.515747,
-1.62811,0.524902,
-1.63574,0.590515,
-1.63727,0.593567,
-1.64795,0.547791,
-1.6571,0.518799,
-1.66473,0.52948,
-1.67084,0.592041,
-1.67847,0.598145,
-1.69525,0.556946,
-1.70746,0.526428,
-1.72424,0.523376,
-1.74255,0.593567,
-1.75934,0.590515,
-1.77307,0.547791,
-1.79749,0.523376,
-1.81427,0.506592,
-1.83563,0.585938,
-1.85547,0.59967,
-1.87073,0.550842,
-1.88751,0.518799,
-1.90582,0.521851,
-1.92108,0.590515,
-1.94092,0.598145,
-1.95465,0.550842,
-1.97906,0.518799,
-2.00195,0.52948,
-2.02484,0.587463,
-2.04315,0.585938,
-2.06604,0.552368,
-2.0874,0.515747,
-2.11029,0.526428,
-2.13776,0.590515,
-2.1637,0.598145,
-2.18964,0.547791,
-2.2171,0.517273,
-2.24304,0.527954,
-2.27051,0.592041,
-2.28882,0.6073,
-2.31018,0.553894,
-2.33307,0.517273,
-2.35291,0.52948,
-2.37579,0.595093,
-2.40326,0.601196,
-2.42462,0.55542,
-2.45667,0.52948,
-2.48108,0.518799,
-2.50397,0.592041,
-2.52838,0.595093,
-2.55432,0.553894,
-2.57721,0.512695,
-2.60162,0.532532,
-2.62756,0.598145,
-2.64587,0.595093,
-2.66724,0.55542,
-2.68097,0.518799,
-2.69775,0.527954,
-2.71759,0.592041,
-2.7359,0.595093,
-2.75726,0.550842,
-2.77863,0.500488,
-2.79541,0.524902,
-2.8183,0.552368,
-2.83661,0.59967,
-2.85492,0.553894,
-2.87323,0.515747,
-2.89307,0.523376,
-2.9129,0.595093,
-2.93427,0.601196,
-2.948,0.527954,
-2.96936,0.514221,
-2.99072,0.526428,
-3.01819,0.595093,
-3.04108,0.602722,
-3.06549,0.556946,
-3.08533,0.515747,
-3.11279,0.526428,
-3.13568,0.592041,
-3.15552,0.595093,
-3.17535,0.552368,
-3.19214,0.515747,
-3.2135,0.523376,
-3.23486,0.595093,
-3.2547,0.610352,
-3.27301,0.563049,
-3.28827,0.517273,
-3.302,0.52948,
-3.31879,0.595093,
-3.32947,0.598145,
-3.34167,0.556946,
-3.35236,0.502014,
-3.35541,0.52948,
-3.36304,0.592041,
-3.35693,0.601196,
-3.3493,0.566101,
-3.34015,0.515747,
-3.32489,0.527954,
-3.28979,0.593567,
-3.25165,0.602722,
-3.21198,0.559998,
-3.15399,0.511169,
-3.08075,0.527954,
-3.00446,0.592041,
-2.91901,0.601196,
-2.82593,0.527954,
-2.71912,0.521851,
-2.60925,0.524902,
-2.49329,0.592041,
-2.37122,0.602722,
-2.24304,0.55542,
-2.11182,0.514221,
-1.98517,0.526428,
-1.85547,0.590515,
-1.72729,0.601196,
-1.5976,0.550842,
-1.48163,0.515747,
-1.36108,0.526428,
-1.24817,0.593567,
-1.14288,0.602722,
-1.03607,0.55542,
-0.941467,0.509644,
-0.85144,0.534058,
-0.769043,0.590515,
-0.694275,0.613403,
-0.624084,0.572205,
-0.563049,0.517273,
-0.506592,0.532532,
-0.456238,0.590515,
-0.411987,0.605774,
-0.372314,0.553894,
-0.341797,0.492859,
-0.318909,0.527954,
-0.311279,0.593567,
-0.312805,0.602722,
-0.314331,0.553894,
-0.318909,0.523376,
-0.326538,0.537109,
-0.338745,0.590515,
-0.350952,0.605774,
-0.370789,0.55542,
-0.392151,0.518799,
-0.416565,0.527954,
-0.437927,0.590515,
-0.462341,0.602722,
-0.488281,0.553894,
-0.521851,0.518799,
-0.549316,0.527954,
-0.578308,0.592041,
-0.610352,0.602722,
-0.648499,0.55542,
-0.689697,0.517273,
-0.72937,0.532532,
-0.769043,0.592041,
-0.813293,0.602722,
-0.856018,0.547791,
-0.904846,0.520325,
-0.949097,0.532532,
-0.991821,0.585938,
-1.0376,0.601196,
-1.07727,0.540161,
-1.11542,0.468445,
-1.15204,0.52948,
-1.18713,0.588989,
-1.2207,0.6073,
-1.24969,0.566101,
-1.28174,0.518799,
-1.3092,0.523376,
-1.33209,0.653076,
-1.35193,0.561523,
-1.37177,0.55542,
-1.38855,0.518799,
-1.40076,0.540161,
-1.41296,0.587463,
-1.41907,0.602722,
-1.4267,0.552368,
-1.43433,0.518799,
-1.43433,0.538635,
-1.4328,0.587463,
-1.42975,0.601196,
-1.4267,0.553894,
-1.42212,0.515747,
-1.41754,0.535583,
-1.40533,0.590515,
-1.39465,0.604248,
-1.38092,0.550842,
-1.37024,0.518799,
-1.35803,0.540161,
-1.34277,0.587463,
-1.33209,0.59967,
-1.32141,0.552368,
-1.31073,0.518799,
-1.29852,0.540161,
-1.29089,0.587463,
-1.28632,0.601196,
-1.27563,0.552368,
-1.26953,0.523376,
-1.26038,0.526428,
-1.26038,0.575256,
-1.25885,0.605774,
-1.25732,0.552368,
-1.26343,0.518799,
-1.27106,0.544739,
-1.28174,0.590515,
-1.29089,0.602722,
-1.3031,0.552368,
-1.31989,0.517273,
-1.32751,0.547791,
-1.33972,0.592041,
-1.35345,0.602722,
-1.36871,0.550842,
-1.38245,0.514221,
-1.39618,0.543213,
-1.40686,0.588989,
-1.42365,0.602722,
-1.43585,0.544739,
-1.45264,0.518799,
-1.46637,0.535583,
-1.48163,0.588989,
-1.49689,0.608826,
-1.51215,0.550842,
-1.53503,0.521851,
-1.56097,0.547791,
-1.58386,0.578308,
-1.61285,0.613403,
-1.63727,0.549316,
-1.66168,0.515747,
-1.68304,0.543213,
-1.71051,0.592041,
-1.73492,0.604248,
-1.75934,0.549316,
-1.78528,0.517273,
-1.81122,0.535583,
-1.83716,0.585938,
-1.86157,0.604248,
-1.88904,0.553894,
-1.91803,0.521851,
-1.94397,0.549316,
-1.97296,0.588989,
-2.00195,0.602722,
-2.02484,0.549316,
-2.05383,0.520325,
-2.07214,0.547791,
-2.10266,0.592041,
-2.12555,0.605774,
-2.14996,0.547791,
-2.17438,0.518799,
-2.19574,0.547791,
-2.21558,0.598145,
-2.24304,0.616455,
-2.2644,0.553894,
-2.29492,0.515747,
-2.32086,0.546265,
-2.34375,0.584412,
-2.36816,0.601196,
-2.388,0.55542,
-2.40936,0.515747,
-2.42767,0.55542,
-2.44751,0.587463,
-2.46887,0.595093,
-2.48566,0.549316,
-2.50702,0.512695,
-2.52686,0.547791,
-2.5528,0.584412,
-2.57111,0.59967,
-2.59399,0.558472,
-2.61078,0.515747,
-2.63672,0.549316,
-2.65961,0.587463,
-2.68097,0.601196,
-2.70081,0.547791,
-2.72522,0.514221,
-2.742,0.549316,
-2.76031,0.585938,
-2.77863,0.598145,
-2.80151,0.544739,
-2.82288,0.512695,
-2.84576,0.544739,
-2.86407,0.567627,
-2.88239,0.605774,
-2.90222,0.547791,
-2.92053,0.511169,
-2.94342,0.547791,
-2.95868,0.590515,
-2.97852,0.602722,
-2.99683,0.547791,
-3.01666,0.512695,
-3.0304,0.547791,
-3.04718,0.585938,
-3.06702,0.605774,
-3.08533,0.544739,
-3.10364,0.518799,
-3.12042,0.547791,
-3.13568,0.58136,
-3.14636,0.601196,
-3.15704,0.556946,
-3.16162,0.517273,
-3.1601,0.549316,
-3.14941,0.592041,
-3.13721,0.601196,
-3.10974,0.549316,
-3.07312,0.512695,
-3.03497,0.549316,
-2.98309,0.582886,
-2.92511,0.59967,
-2.85645,0.543213,
-2.77405,0.509644,
-2.68097,0.552368,
-2.58331,0.582886,
-2.4704,0.592041,
-2.35748,0.547791,
-2.24152,0.511169,
-2.11945,0.566101,
-2.00043,0.592041,
-1.88293,0.598145,
-1.77002,0.546265,
-1.65405,0.526428,
-1.53809,0.559998,
-1.42822,0.592041,
-1.31836,0.601196,
-1.21307,0.547791,
-1.11694,0.508118,
-1.02539,0.556946,
-0.941467,0.584412,
-0.865173,0.592041,
-0.790405,0.547791,
-0.724792,0.505066,
-0.663757,0.550842,
-0.605774,0.585938,
-0.553894,0.593567,
-0.508118,0.546265,
-0.474548,0.511169,
-0.444031,0.552368,
-0.424194,0.584412,
-0.404358,0.592041,
-0.393677,0.544739,
-0.387573,0.508118,
-0.382996,0.552368,
-0.384521,0.584412,
-0.387573,0.595093,
-0.395203,0.549316,
-0.411987,0.518799,
-0.427246,0.622559,
-0.450134,0.585938,
-0.469971,0.592041,
-0.488281,0.544739,
-0.514221,0.511169,
-0.546265,0.552368,
-0.576782,0.587463,
-0.6073,0.598145,
-0.640869,0.543213,
-0.675964,0.508118,
-0.715637,0.549316,
-0.753784,0.587463,
-0.794983,0.590515,
-0.831604,0.546265,
-0.869751,0.508118,
-0.91095,0.547791,
-0.952148,0.588989,
-0.98877,0.598145,
-1.02692,0.547791,
-1.07117,0.495911,
-1.11084,0.549316,
-1.14441,0.587463,
-1.17493,0.59967,
-1.2085,0.544739,
-1.23596,0.509644,
-1.26801,0.546265,
-1.29852,0.585938,
-1.32141,0.595093,
-1.33972,0.546265,
-1.36108,0.50354,
-1.38092,0.547791,
-1.3916,0.585938,
-1.40228,0.595093,
-1.40839,0.544739,
-1.42212,0.505066,
-1.42517,0.544739,
-1.42822,0.585938,
-1.42822,0.588989,
-1.42517,0.544739,
-1.41602,0.505066,
-1.41144,0.543213,
-1.40228,0.587463,
-1.39771,0.604248,
-1.39313,0.552368,
-1.39008,0.50354,
-1.37939,0.543213,
-1.37177,0.582886,
-1.36414,0.588989,
-1.36108,0.546265,
-1.35803,0.505066,
-1.34888,0.550842,
-1.34888,0.582886,
-1.34583,0.593567,
-1.34735,0.543213,
-1.34735,0.505066,
-1.34735,0.538635,
-1.34888,0.582886,
-1.34735,0.590515,
-1.34888,0.537109,
-1.34888,0.520325,
-1.35498,0.543213,
-1.36108,0.588989,
-1.36566,0.590515,
-1.37329,0.547791,
-1.38855,0.492859,
-1.39923,0.532532,
-1.41602,0.582886,
-1.4267,0.584412,
-1.44196,0.543213,
-1.45569,0.502014,
-1.48163,0.540161,
-1.50146,0.582886,
-1.5213,0.604248,
-1.53351,0.546265,
-1.5564,0.502014,
-1.57318,0.537109,
-1.59454,0.587463,
-1.6098,0.588989,
-1.63574,0.553894,
-1.6571,0.523376,
-1.68152,0.541687,
-1.71051,0.622559,
-1.73798,0.541687,
-1.76697,0.550842,
-1.79749,0.482178,
-1.82648,0.540161,
-1.85547,0.585938,
-1.88599,0.588989,
-1.91803,0.541687,
-1.95313,0.500488,
-1.98669,0.543213,
-2.01721,0.592041,
-2.04926,0.587463,
-2.07977,0.540161,
-2.11182,0.50354,
-2.14233,0.537109,
-2.17133,0.578308,
-2.20184,0.587463,
-2.23083,0.532532,
-2.2583,0.50354,
-2.28271,0.534058,
-2.30713,0.585938,
-2.33002,0.587463,
-2.35291,0.537109,
-2.37732,0.552368,
-2.40173,0.552368,
-2.42462,0.588989,
-2.44904,0.587463,
-2.47192,0.543213,
-2.49786,0.50354,
-2.52228,0.537109,
-2.54364,0.576782,
-2.56348,0.584412,
-2.58636,0.541687,
-2.60468,0.502014,
-2.62451,0.534058,
-2.63824,0.587463,
-2.65961,0.582886,
-2.67487,0.546265,
-2.69623,0.498962,
-2.71454,0.52948,
-2.72827,0.587463,
-2.74506,0.584412,
-2.76337,0.541687,
-2.78168,0.495911,
-2.80151,0.532532,
-2.81525,0.595093,
-2.83203,0.584412,
-2.84729,0.534058,
-2.87018,0.508118,
-2.88696,0.521851,
-2.90527,0.65918,
-2.92664,0.579834,
-2.94342,0.532532,
-2.96326,0.486755,
-2.97852,0.50354,
-2.99988,0.595093,
-3.01819,0.59967,
-3.0365,0.544739,
-3.06244,0.500488,
-3.0899,0.527954,
-3.12042,0.604248,
-3.15094,0.58136,
-3.17535,0.543213,
-3.20129,0.494385,
-3.22418,0.52948,
-3.2486,0.585938,
-3.27301,0.535583,
-3.29132,0.541687,
-3.31268,0.495911,
-3.32794,0.527954,
-3.33862,0.584412,
-3.33862,0.58136,
-3.33252,0.552368,
-3.31879,0.492859,
-3.29742,0.570679,
-3.2608,0.590515,
-3.21808,0.58136,
-3.16925,0.538635,
-3.10059,0.512695,
-3.0304,0.526428,
-2.948,0.59967,
-2.8595,0.576782,
-2.75879,0.546265,
-2.65656,0.466919,
-2.54364,0.505066,
-2.42767,0.587463,
-2.31018,0.58136,
-2.18811,0.546265,
-2.06757,0.492859,
-1.9516,0.518799,
-1.83868,0.553894,
-1.72272,0.575256,
-1.61133,0.558472,
-1.50299,0.492859,
-1.39923,0.524902,
-1.29852,0.588989,
-1.21155,0.587463,
-1.12305,0.540161,
-1.04218,0.489807,
-0.968933,0.520325,
-0.906372,0.584412,
-0.842285,0.58136,
-0.790405,0.541687,
-0.747681,0.502014,
-0.706482,0.521851,
-0.674438,0.585938,
-0.650024,0.576782,
-0.62561,0.540161,
-0.608826,0.495911,
-0.595093,0.518799,
-0.587463,0.640869,
-0.578308,0.57373,
-0.578308,0.537109,
-0.579834,0.488281,
-0.592041,0.532532,
-0.598145,0.58136,
-0.6073,0.579834,
-0.624084,0.524902,
-0.639343,0.489807,
-0.666809,0.517273,
-0.692749,0.593567,
-0.717163,0.575256,
-0.747681,0.538635,
-0.776672,0.491333,
-0.811768,0.517273,
-0.848389,0.587463,
-0.886536,0.582886,
-0.924683,0.535583,
-0.965881,0.489807,
-1.00861,0.527954,
-1.05286,0.585938,
-1.09863,0.579834,
-1.14288,0.543213,
-1.18866,0.492859,
-1.23444,0.514221,
-1.28021,0.584412,
-1.32141,0.579834,
-1.36414,0.538635,
-1.40381,0.489807,
-1.44196,0.512695,
-1.4801,0.58136,
-1.51062,0.58136,
-1.53809,0.543213,
-1.56403,0.492859,
-1.58844,0.515747,
-1.60675,0.587463,
-1.62659,0.58136,
-1.64337,0.537109,
-1.65558,0.476074,
-1.66321,0.508118,
-1.67389,0.582886,
-1.67694,0.579834,
-1.68152,0.541687,
-1.69067,0.488281,
-1.69067,0.512695,
-1.68762,0.585938,
-1.68304,0.582886,
-1.67389,0.543213,
-1.66626,0.489807,
-1.65863,0.512695,
-1.63879,0.585938,
-1.62659,0.58136,
-1.61133,0.527954,
-1.6037,0.491333,
-1.59149,0.518799,
-1.58081,0.584412,
-1.57166,0.584412,
-1.56555,0.543213,
-1.55792,0.489807,
-1.55334,0.526428,
-1.5564,0.578308,
-1.55029,0.584412,
-1.54877,0.534058,
-1.54266,0.488281,
-1.54419,0.508118,
-1.53961,0.582886,
-1.54266,0.58136,
-1.54266,0.546265,
-1.54114,0.492859,
-1.54877,0.509644,
-1.55182,0.582886,
-1.55334,0.58136,
-1.56403,0.535583,
-1.57623,0.488281,
-1.58997,0.509644,
-1.60217,0.588989,
-1.61438,0.569153,
-1.63116,0.495911,
-1.64337,0.483704,
-1.66016,0.511169,
-1.67847,0.582886,
-1.69983,0.58136,
-1.71509,0.527954,
-1.73492,0.486755,
-1.75171,0.55542,
-1.77612,0.613403,
-1.80206,0.579834,
-1.8219,0.540161,
-1.84326,0.492859,
-1.8692,0.488281,
-1.89819,0.585938,
-1.92413,0.579834,
-1.9455,0.537109,
-1.96991,0.485229,
-1.99738,0.506592,
-2.02026,0.582886,
-2.0462,0.561523,
-2.0752,0.538635,
-2.09656,0.505066,
-2.12402,0.505066,
-2.14844,0.58136,
-2.1698,0.58136,
-2.19421,0.544739,
-2.21558,0.492859,
-2.23999,0.498962,
-2.25983,0.579834,
-2.28271,0.588989,
-2.30713,0.540161,
-2.33154,0.494385,
-2.35748,0.508118,
-2.38342,0.582886,
-2.40021,0.582886,
-2.42004,0.517273,
-2.44751,0.491333,
-2.46582,0.506592,
-2.48566,0.579834,
-2.50549,0.58136,
-2.52686,0.543213,
-2.54669,0.489807,
-2.57111,0.509644,
-2.59552,0.578308,
-2.61688,0.576782,
-2.63672,0.540161,
-2.65808,0.491333,
-2.67487,0.505066,
-2.69012,0.576782,
-2.70538,0.58136,
-2.72217,0.537109,
-2.74048,0.489807,
-2.75879,0.506592,
-2.7771,0.576782,
-2.79846,0.584412,
-2.81677,0.537109,
-2.83966,0.489807,
-2.85797,0.506592,
-2.87933,0.570679,
-2.89764,0.579834,
-2.91138,0.538635,
-2.92969,0.489807,
-2.94189,0.509644,
-2.96326,0.576782,
-2.98462,0.58136,
-3.00903,0.540161,
-3.0304,0.491333,
-3.04871,0.508118,
-3.06702,0.57373,
-3.08075,0.587463,
-3.09753,0.534058,
-3.10516,0.482178,
-3.11279,0.502014,
-3.11737,0.572205,
-3.11432,0.584412,
-3.10822,0.538635,
-3.09753,0.492859,
-3.07159,0.509644,
-3.03802,0.585938,
-2.99683,0.587463,
-2.94342,0.534058,
-2.87933,0.489807,
-2.80914,0.506592,
-2.72675,0.57373,
-2.63519,0.592041,
-2.53296,0.546265,
-2.42615,0.483704,
-2.31476,0.494385,
-2.19727,0.57373,
-2.0813,0.58136,
-1.96228,0.538635,
-1.84326,0.492859,
-1.72882,0.511169,
-1.61438,0.585938,
-1.50299,0.592041,
-1.39465,0.540161,
-1.28784,0.494385,
-1.17798,0.514221,
-1.0788,0.570679,
-0.98877,0.602722,
-0.900269,0.534058,
-0.817871,0.495911,
-0.740051,0.514221,
-0.665283,0.572205,
-0.596619,0.584412,
-0.535583,0.546265,
-0.4776,0.494385,
-0.431824,0.512695,
-0.392151,0.57373,
-0.35553,0.587463,
-0.323486,0.537109,
-0.300598,0.495911,
-0.283813,0.512695,
-0.268555,0.569153,
-0.259399,0.593567,
-0.25177,0.537109,
-0.253296,0.494385,
-0.257874,0.506592,
-0.263977,0.58136,
-0.273132,0.592041,
-0.291443,0.502014,
-0.315857,0.494385,
-0.334167,0.520325,
-0.357056,0.569153,
-0.390625,0.587463,
-0.419617,0.535583,
-0.460815,0.50354,
-0.498962,0.553894,
-0.537109,0.584412,
-0.579834,0.592041,
-0.622559,0.538635,
-0.668335,0.498962,
-0.714111,0.512695,
-0.765991,0.567627,
-0.816345,0.588989,
-0.863647,0.534058,
-0.91095,0.498962,
-0.956726,0.515747,
-0.996399,0.563049,
-1.0376,0.588989,
-1.0788,0.540161,
-1.12,0.498962,
-1.15509,0.511169,
-1.19476,0.559998,
-1.22223,0.587463,
-1.25427,0.541687,
-1.28021,0.512695,
-1.30157,0.515747,
-1.32141,0.566101,
-1.33667,0.592041,
-1.35193,0.537109,
-1.36719,0.50354,
-1.37329,0.514221,
-1.37939,0.558472,
-1.38245,0.598145,
-1.38702,0.540161,
-1.38245,0.498962,
-1.37939,0.517273,
-1.36871,0.561523,
-1.35803,0.595093,
-1.35193,0.546265,
-1.3382,0.500488,
-1.32751,0.511169,
-1.31226,0.546265,
-1.30005,0.595093,
-1.28784,0.540161,
-1.28021,0.500488,
-1.26495,0.518799,
-1.2558,0.556946,
-1.24969,0.590515,
-1.24359,0.527954,
-1.22986,0.506592,
-1.22833,0.515747,
-1.22528,0.566101,
-1.22375,0.559998,
-1.22375,0.538635,
-1.2207,0.511169,
-1.21918,0.521851,
-1.2207,0.556946,
-1.22681,0.6073,
-1.22681,0.534058,
-1.22986,0.569153,
-1.24054,0.521851,
-1.25122,0.558472,
-1.26343,0.595093,
-1.27411,0.538635,
-1.28479,0.505066,
-1.3031,0.518799,
-1.31683,0.558472,
-1.33057,0.595093,
-1.34277,0.541687,
-1.36261,0.506592,
-1.37787,0.518799,
-1.39771,0.558472,
-1.41907,0.598145,
-1.4389,0.535583,
-1.46179,0.505066,
-1.49231,0.520325,
-1.51978,0.55542,
-1.53809,0.592041,
-1.56403,0.541687,
-1.58691,0.50354,
-1.61438,0.517273,
-1.64185,0.521851,
-1.66626,0.563049,
-1.69373,0.535583,
-1.71661,0.50354,
-1.74561,0.526428,
-1.77612,0.558472,
-1.80359,0.595093,
-1.83258,0.509644,
-1.8631,0.505066,
-1.88904,0.521851,
-1.91803,0.55542,
-1.95007,0.587463,
-1.98059,0.534058,
-2.00958,0.502014,
-2.03857,0.524902,
-2.06604,0.563049,
-2.09198,0.587463,
-2.11945,0.541687,
-2.14691,0.505066,
-2.17438,0.526428,
-2.20184,0.55542,
-2.22626,0.598145,
-2.25372,0.527954,
-2.28271,0.508118,
-2.31018,0.52948,
-2.33917,0.566101,
-2.36664,0.592041,
-2.3941,0.540161,
-2.41394,0.505066,
-2.4353,0.526428,
-2.45819,0.556946,
-2.47803,0.575256,
-2.49481,0.532532,
-2.5116,0.506592,
-2.53296,0.52948,
-2.54822,0.556946,
-2.56348,0.585938,
-2.57568,0.535583,
-2.59399,0.491333,
-2.61078,0.52948,
-2.62909,0.553894,
-2.6413,0.587463,
-2.66266,0.535583,
-2.67639,0.511169,
-2.6947,0.535583,
-2.71149,0.550842,
-2.72675,0.585938,
-2.74048,0.535583,
-2.75726,0.509644,
-2.77252,0.534058,
-2.78778,0.553894,
-2.80457,0.604248,
-2.8244,0.524902,
-2.83356,0.514221,
-2.85492,0.534058,
-2.8717,0.553894,
-2.88696,0.592041,
-2.90375,0.540161,
-2.92053,0.514221,
-2.93732,0.535583,
-2.95258,0.578308,
-2.96936,0.588989,
-2.9892,0.537109,
-3.00293,0.526428,
-3.01666,0.537109,
-3.02277,0.553894,
-3.02124,0.588989,
-3.01514,0.534058,
-3.00446,0.556946,
-2.98157,0.535583,
-2.95105,0.550842,
-2.90985,0.587463,
-2.86255,0.537109,
-2.80151,0.523376,
-2.73285,0.549316,
-2.65656,0.556946,
-2.56653,0.590515,
-2.46582,0.538635,
-2.36359,0.515747,
-2.25372,0.534058,
-2.14233,0.524902,
-2.02179,0.592041,
-1.89819,0.540161,
-1.77765,0.518799,
-1.66016,0.535583,
-1.54419,0.55542,
-1.42822,0.593567,
-1.31378,0.541687,
-1.20087,0.520325,
-1.08948,0.535583,
-0.98877,0.55542,
-0.892639,0.592041,
-0.805664,0.541687,
-0.724792,0.518799,
-0.645447,0.535583,
-0.572205,0.55542,
-0.505066,0.587463,
-0.442505,0.538635,
-0.392151,0.514221,
-0.346375,0.538635,
-0.30365,0.55542,
-0.268555,0.585938,
-0.239563,0.541687,
-0.213623,0.514221,
-0.196838,0.540161,
-0.18158,0.523376,
-0.175476,0.660706,
-0.177002,0.538635,
-0.180054,0.524902,
-0.186157,0.537109,
-0.193787,0.552368,
-0.212097,0.590515,
-0.231934,0.543213,
-0.25177,0.520325,
-0.279236,0.537109,
-0.305176,0.550842,
-0.337219,0.595093,
-0.369263,0.543213,
-0.402832,0.518799,
-0.436401,0.540161,
-0.471497,0.552368,
-0.505066,0.588989,
-0.537109,0.538635,
-0.578308,0.517273,
-0.621033,0.538635,
-0.665283,0.552368,
-0.709534,0.588989,
-0.758362,0.541687,
-0.805664,0.520325,
-0.856018,0.538635,
-0.904846,0.552368,
-0.950623,0.593567,
-0.98877,0.541687,
-1.02997,0.521851,
-1.06812,0.535583,
-1.10321,0.553894,
-1.13678,0.595093,
-1.17035,0.544739,
-1.19629,0.520325,
-1.22375,0.521851,
-1.24664,0.556946,
-1.26343,0.592041,
-1.28174,0.544739,
-1.29852,0.494385,
-1.30463,0.556946,
-1.31836,0.556946,
-1.32446,0.593567,
-1.32294,0.540161,
-1.32904,0.517273,
-1.32294,0.561523,
-1.32141,0.595093,
-1.31989,0.587463,
-1.3092,0.546265,
-1.30005,0.514221,
-1.29089,0.538635,
-1.28174,0.553894,
-1.26953,0.593567,
-1.26495,0.543213,
-1.25427,0.476074,
-1.24817,0.535583,
-1.24359,0.550842,
-1.22986,0.593567,
-1.2207,0.540161,
-1.2146,0.512695,
-1.20544,0.532532,
-1.19781,0.553894,
-1.18713,0.588989,
-1.18561,0.550842,
-1.17645,0.518799,
-1.17188,0.537109,
-1.16272,0.559998,
-1.16119,0.590515,
-1.15662,0.552368,
-1.15814,0.517273,
-1.15967,0.538635,
-1.16425,0.556946,
-1.17493,0.588989,
-1.18408,0.553894,
-1.19171,0.515747,
-1.20087,0.523376,
-1.21613,0.518799,
-1.22833,0.592041,
-1.24054,0.550842,
-1.25732,0.515747,
-1.27411,0.538635,
-1.28937,0.559998,
-1.30615,0.593567,
-1.33209,0.556946,
-1.35345,0.538635,
-1.3855,0.537109,
-1.40686,0.553894,
-1.43585,0.584412,
-1.46942,0.563049,
-1.49994,0.517273,
-1.52588,0.527954,
-1.5564,0.556946,
-1.58539,0.592041,
-1.6098,0.558472,
-1.63879,0.521851,
-1.66626,0.511169,
-1.6983,0.559998,
-1.72882,0.593567,
-1.76086,0.563049,
-1.79138,0.520325,
-1.8158,0.532532,
-1.84021,0.561523,
-1.8692,0.588989,
-1.89667,0.567627,
-1.92871,0.515747,
-1.9577,0.52948,
-1.98669,0.561523,
-2.01569,0.665283,
-2.04315,0.563049,
-2.07214,0.517273,
-2.09961,0.532532,
-2.1225,0.556946,
-2.14844,0.590515,
-2.18048,0.569153,
-2.20642,0.515747,
-2.23389,0.527954,
-2.25983,0.559998,
-2.28424,0.588989,
-2.31018,0.567627,
-2.33459,0.517273,
-2.35901,0.52948,
-2.38495,0.556946,
-2.40021,0.592041,
-2.42462,0.566101,
-2.45056,0.517273,
-2.4704,0.512695,
-2.49176,0.556946,
-2.51617,0.590515,
-2.53448,0.572205,
-2.55127,0.518799,
-2.57111,0.523376,
-2.59399,0.559998,
-2.61536,0.590515,
-2.63214,0.567627,
-2.6535,0.520325,
-2.66876,0.521851,
-2.6886,0.559998,
-2.71149,0.587463,
-2.72675,0.570679,
-2.74353,0.515747,
-2.76489,0.526428,
-2.78168,0.556946,
-2.79999,0.588989,
-2.82135,0.567627,
-2.83966,0.515747,
-2.8595,0.527954,
-2.88086,0.576782,
-2.89917,0.590515,
-2.91595,0.570679,
-2.93121,0.518799,
-2.94342,0.523376,
-2.96173,0.558472,
-2.97852,0.585938,
-2.99377,0.546265,
-3.00598,0.512695,
-3.01514,0.521851,
-3.03192,0.558472,
-3.04565,0.584412,
-3.05481,0.567627,
-3.06549,0.512695,
-3.06854,0.520325,
-3.06702,0.558472,
-3.05786,0.59967,
-3.04413,0.570679,
-3.02277,0.515747,
-2.9953,0.523376,
-2.95563,0.558472,
-2.90833,0.590515,
-2.84729,0.575256,
-2.78168,0.514221,
-2.70233,0.521851,
-2.61536,0.552368,
-2.5177,0.585938,
-2.41089,0.57373,
-2.3056,0.514221,
-2.18964,0.521851,
-2.07062,0.572205,
-1.94855,0.569153,
-1.8219,0.57373,
-1.69525,0.515747,
-1.5686,0.526428,
-1.44653,0.563049,
-1.32599,0.584412,
-1.21002,0.57373,
-1.09863,0.515747,
-0.991821,0.523376,
-0.889587,0.556946,
-0.801086,0.587463,
-0.708008,0.576782,
-0.628662,0.498962,
-0.553894,0.511169,
-0.480652,0.556946,
-0.421143,0.585938,
-0.370789,0.575256,
-0.32196,0.515747,
-0.285339,0.520325,
-0.259399,0.537109,
-0.231934,0.590515,
-0.216675,0.575256,
-0.198364,0.518799,
-0.195313,0.518799,
-0.192261,0.561523,
-0.193787,0.621033,
-0.198364,0.616455,
-0.212097,0.515747,
-0.219727,0.520325,
-0.239563,0.561523,
-0.253296,0.587463,
-0.27771,0.57373,
-0.30365,0.511169,
-0.328064,0.520325,
-0.35553,0.559998,
-0.386047,0.582886,
-0.419617,0.575256,
-0.453186,0.505066,
-0.492859,0.520325,
-0.532532,0.570679,
-0.570679,0.585938,
-0.614929,0.579834,
-0.65918,0.508118,
-0.704956,0.521851,
-0.761414,0.556946,
-0.810242,0.58136,
-0.863647,0.575256,
-0.912476,0.506592,
-0.965881,0.517273,
-1.00708,0.543213,
-1.0498,0.58136,
-1.09406,0.57373,
-1.13373,0.506592,
-1.17188,0.515747,
-1.20544,0.558472,
-1.24207,0.582886,
-1.26801,0.576782,
-1.29852,0.50354,
-1.32141,0.515747,
-1.33514,0.558472,
-1.34583,0.584412,
-1.35803,0.569153,
-1.36566,0.508118,
-1.37024,0.515747,
-1.37482,0.55542,
-1.37329,0.58136,
-1.37177,0.576782,
-1.36871,0.506592,
-1.36261,0.515747,
-1.35345,0.556946,
-1.33514,0.582886,
-1.31989,0.578308,
-1.3031,0.502014,
-1.28937,0.515747,
-1.27563,0.558472,
-1.26038,0.578308,
-1.24817,0.575256,
-1.23291,0.505066,
-1.21765,0.512695,
-1.20697,0.556946,
-1.19324,0.578308,
-1.18408,0.578308,
-1.17645,0.50354,
-1.17035,0.515747,
-1.16425,0.57373,
-1.15814,0.579834,
-1.15662,0.637817,
-1.15662,0.508118,
-1.16272,0.515747,
-1.16577,0.553894,
-1.17188,0.582886,
-1.1795,0.576782,
-1.19019,0.505066,
-1.20544,0.512695,
-1.21155,0.55542,
-1.21918,0.576782,
-1.22681,0.575256,
-1.24512,0.518799,
-1.25885,0.521851,
-1.26953,0.55542,
-1.28632,0.582886,
-1.30463,0.576782,
-1.31989,0.505066,
-1.34583,0.505066,
-1.37177,0.538635,
-1.39465,0.579834,
-1.41907,0.576782,
-1.44806,0.508118,
-1.474,0.509644,
-1.49994,0.550842,
-1.52893,0.579834,
-1.54877,0.575256,
-1.57928,0.509644,
-1.61133,0.511169,
-1.64185,0.553894,
-1.67389,0.579834,
-1.70135,0.576782,
-1.7334,0.50354,
-1.76392,0.511169,
-1.79291,0.55542,
-1.82037,0.58136,
-1.84937,0.58136,
-1.87836,0.512695,
-1.90887,0.509644,
-1.94244,0.550842,
-1.97449,0.578308,
-2.00806,0.590515,
-2.0401,0.508118,
-2.07062,0.506592,
-2.10114,0.549316,
-2.13013,0.578308,
-2.15759,0.578308,
-2.18811,0.506592,
-2.21405,0.509644,
-2.23999,0.552368,
-2.26746,0.575256,
-2.29034,0.58136,
-2.31171,0.505066,
-2.34222,0.508118,
-2.36206,0.550842,
-2.38495,0.584412,
-2.41547,0.578308,
-2.43835,0.508118,
-2.45972,0.508118,
-2.48871,0.550842,
-2.50549,0.58136,
-2.52991,0.617981,
-2.5528,0.511169,
-2.57721,0.505066,
-2.6001,0.549316,
-2.62146,0.584412,
-2.63824,0.576782,
-2.65656,0.509644,
-2.67487,0.521851,
-2.6947,0.543213,
-2.70996,0.579834,
-2.73132,0.575256,
-2.74658,0.509644,
-2.76794,0.506592,
-2.78931,0.549316,
-2.80914,0.576782,
-2.83203,0.57373,
-2.85645,0.505066,
-2.8717,0.505066,
-2.89459,0.546265,
-2.91595,0.58136,
-2.93121,0.570679,
-2.94647,0.50354,
-2.97089,0.505066,
-2.98004,0.544739,
-3.0014,0.58136,
-3.01971,0.572205,
-3.03497,0.502014,
-3.05634,0.502014,
-3.07007,0.546265,
-3.08533,0.579834,
-3.09906,0.572205,
-3.11584,0.50354,
-3.12195,0.505066,
-3.12653,0.546265,
-3.125,0.578308,
-3.12042,0.572205,
-3.10211,0.508118,
-3.07465,0.502014,
-3.04108,0.546265,
-2.99683,0.578308,
-2.93884,0.570679,
-2.8656,0.500488,
-2.78168,0.498962,
-2.69012,0.543213,
-2.58942,0.578308,
-2.47955,0.570679,
-2.36511,0.502014,
-2.24457,0.498962,
-2.11487,0.541687,
-1.98822,0.576782,
-1.85547,0.572205,
-1.72272,0.502014,
-1.59607,0.502014,
-1.46484,0.534058,
-1.3382,0.532532,
-1.22223,0.556946,
-1.10321,0.509644,
-0.993347,0.495911,
-0.889587,0.543213,
-0.788879,0.584412,
-0.694275,0.561523,
-0.610352,0.561523,
-0.532532,0.502014,
-0.462341,0.544739,
-0.390625,0.57373,
-0.328064,0.567627,
-0.273132,0.517273,
-0.228882,0.515747,
-0.193787,0.544739,
-0.163269,0.579834,
-0.135803,0.567627,
-0.114441,0.508118,
-0.100708,0.506592,
-0.0900269,0.540161,
-0.0839233,0.584412,
-0.0839233,0.570679,
-0.0869751,0.505066,
-0.100708,0.498962,
-0.111389,0.543213,
-0.126648,0.578308,
-0.146484,0.570679,
-0.164795,0.506592,
-0.186157,0.500488,
-0.215149,0.538635,
-0.244141,0.579834,
-0.271606,0.569153,
-0.300598,0.500488,
-0.340271,0.492859,
-0.382996,0.541687,
-0.42572,0.576782,
-0.465393,0.566101,
-0.509644,0.500488,
-0.561523,0.495911,
-0.608826,0.538635,
-0.656128,0.547791,
-0.701904,0.593567,
-0.750732,0.505066,
-0.801086,0.500488,
-0.846863,0.546265,
-0.888062,0.582886,
-0.932312,0.57373,
-0.967407,0.491333,
-1.00708,0.512695,
-1.04065,0.541687,
-1.07269,0.579834,
-1.09711,0.567627,
-1.12152,0.514221,
-1.14594,0.495911,
-1.16577,0.544739,
-1.18561,0.576782,
-1.19476,0.567627,
-1.21307,0.506592,
-1.22528,0.494385,
-1.23138,0.543213,
-1.23596,0.578308,
-1.24207,0.570679,
-1.24054,0.505066,
-1.24054,0.495911,
-1.23291,0.540161,
-1.22681,0.576782,
-1.21918,0.569153,
-1.21002,0.506592,
-1.19781,0.494385,
-1.18866,0.543213,
-1.17798,0.576782,
-1.16577,0.569153,
-1.15204,0.506592,
-1.13983,0.494385,
-1.1261,0.546265,
-1.11694,0.578308,
-1.10779,0.561523,
-1.09558,0.506592,
-1.08948,0.494385,
-1.0849,0.541687,
-1.08032,0.576782,
-1.07574,0.561523,
-1.0788,0.476074,
-1.08337,0.498962,
-1.08795,0.543213,
-1.091,0.578308,
-1.09253,0.561523,
-1.09863,0.508118,
-1.10321,0.494385,
-1.11542,0.543213,
-1.12762,0.578308,
-1.13373,0.558472,
-1.14594,0.506592,
-1.15967,0.494385,
-1.17645,0.549316,
-1.18866,0.575256,
-1.20697,0.561523,
-1.22528,0.489807,
-1.24817,0.488281,
-1.26801,0.540161,
-1.29395,0.576782,
-1.31989,0.556946,
-1.34735,0.50354,
-1.37939,0.495911,
-1.40686,0.544739,
-1.43585,0.585938,
-1.4679,0.588989,
-1.49994,0.517273,
-1.53046,0.495911,
-1.55945,0.540161,
-1.59454,0.576782,
-1.62506,0.55542,
-1.65863,0.508118,
-1.68915,0.492859,
-1.72119,0.543213,
-1.74866,0.575256,
-1.7746,0.552368,
-1.80511,0.506592,
-1.83563,0.500488,
-1.8631,0.546265,
-1.89056,0.579834,
-1.92108,0.549316,
-1.9516,0.505066,
-1.98364,0.492859,
-2.00958,0.544739,
-2.03705,0.576782,
-2.06757,0.546265,
-2.09503,0.509644,
-2.13013,0.495911,
-2.15607,0.604248,
-2.18811,0.569153,
-2.2171,0.552368,
-2.24762,0.508118,
-2.27203,0.489807,
-2.30103,0.546265,
-2.32544,0.579834,
-2.34985,0.518799,
-2.37579,0.518799,
-2.40173,0.495911,
-2.42615,0.543213,
-2.44751,0.572205,
-2.4704,0.538635,
-2.49481,0.508118,
-2.51617,0.492859,
-2.54059,0.550842,
-2.56195,0.58136,
-2.58789,0.549316,
-2.60925,0.511169,
-2.62909,0.494385,
-2.65045,0.550842,
-2.67181,0.563049,
-2.69318,0.550842,
-2.71454,0.506592,
-2.73438,0.495911,
-2.75574,0.547791,
-2.76947,0.590515,
-2.78625,0.543213,
-2.80304,0.509644,
-2.82135,0.498962,
-2.84576,0.547791,
-2.87018,0.58136,
-2.89001,0.550842,
-2.91138,0.518799,
-2.93579,0.509644,
-2.95868,0.547791,
-2.98157,0.58136,
-2.99988,0.550842,
-3.02429,0.508118,
-3.04565,0.50354,
-3.07007,0.553894,
-3.09143,0.576782,
-3.11127,0.547791,
-3.13263,0.508118,
-3.14789,0.500488,
-3.16162,0.543213,
-3.17688,0.579834,
-3.18298,0.549316,
-3.18604,0.505066,
-3.18604,0.498962,
-3.17841,0.547791,
-3.15704,0.58136,
-3.13263,0.549316,
-3.10211,0.514221,
-3.05328,0.502014,
-2.99683,0.546265,
-2.93274,0.582886,
-2.85187,0.550842,
-2.76642,0.506592,
-2.66876,0.502014,
-2.56195,0.549316,
-2.45056,0.58136,
-2.32544,0.549316,
-2.20337,0.506592,
-2.07977,0.494385,
-1.95007,0.547791,
-1.81885,0.582886,
-1.69067,0.547791,
-1.5686,0.506592,
-1.44806,0.495911,
-1.32751,0.550842,
-1.21155,0.582886,
-1.10779,0.544739,
-1.00555,0.506592,
-0.91095,0.500488,
-0.823975,0.547791,
-0.741577,0.576782,
-0.668335,0.547791,
-0.598145,0.506592,
-0.540161,0.500488,
-0.489807,0.547791,
-0.436401,0.582886,
-0.393677,0.546265,
-0.360107,0.509644,
-0.331116,0.498962,
-0.311279,0.547791,
-0.294495,0.58136,
-0.288391,0.547791,
-0.286865,0.502014,
-0.285339,0.502014,
-0.283813,0.550842,
-0.288391,0.59967,
-0.296021,0.541687,
-0.315857,0.506592,
-0.335693,0.50354,
-0.354004,0.549316,
-0.379944,0.582886,
-0.402832,0.538635,
-0.434875,0.50354,
-0.463867,0.50354,
-0.498962,0.552368,
-0.534058,0.58136,
-0.569153,0.527954,
-0.608826,0.505066,
-0.650024,0.505066,
-0.695801,0.550842,
-0.744629,0.585938,
-0.793457,0.540161,
-0.839233,0.50354,
-0.891113,0.502014,
-0.941467,0.55542,
-0.984192,0.58136,
-1.02692,0.546265,
-1.06812,0.502014,
-1.10931,0.50354,
-1.13983,0.552368,
-1.1734,0.584412,
-1.2085,0.540161,
-1.23596,0.508118,
-1.2619,0.50354,
-1.29242,0.549316,
-1.31989,0.584412,
-1.34735,0.544739,
-1.36261,0.50354,
-1.38092,0.506592,
-1.39465,0.550842,
-1.40839,0.584412,
-1.41754,0.541687,
-1.42822,0.505066,
-1.42975,0.509644,
-1.42975,0.547791,
-1.42517,0.585938,
-1.42212,0.546265,
-1.41449,0.517273,
-1.41144,0.506592,
-1.40686,0.546265,
-1.39923,0.587463,
-1.39618,0.541687,
-1.38702,0.508118,
-1.37482,0.506592,
-1.36719,0.550842,
-1.35651,0.587463,
-1.3504,0.544739,
-1.34583,0.502014,
-1.33667,0.506592,
-1.33057,0.52948,
-1.32446,0.587463,
-1.31836,0.543213,
-1.31378,0.506592,
-1.31683,0.500488,
-1.31531,0.546265,
-1.30615,0.598145,
-1.3031,0.543213,
-1.30615,0.570679,
-1.30615,0.498962,
-1.31378,0.553894,
-1.32294,0.584412,
-1.33057,0.547791,
-1.34583,0.50354,
-1.35956,0.506592,
-1.37787,0.538635,
-1.38855,0.588989,
-1.40228,0.534058,
-1.42059,0.509644,
-1.43738,0.50354,
-1.46027,0.544739,
-1.48163,0.588989,
-1.50604,0.546265,
-1.53046,0.502014,
-1.55182,0.509644,
-1.57928,0.549316,
-1.6037,0.585938,
-1.63574,0.552368,
-1.66473,0.50354,
-1.6922,0.512695,
-1.71814,0.550842,
-1.74561,0.585938,
-1.77612,0.550842,
-1.80969,0.50354,
-1.84021,0.514221,
-1.87073,0.549316,
-1.89972,0.592041,
-1.92719,0.549316,
-1.95465,0.502014,
-1.98822,0.511169,
-2.02179,0.549316,
-2.05231,0.588989,
-2.0813,0.550842,
-2.10876,0.502014,
-2.13928,0.506592,
-2.16827,0.552368,
-2.19421,0.587463,
-2.22321,0.552368,
-2.25372,0.500488,
-2.28424,0.508118,
-2.31476,0.550842,
-2.34222,0.590515,
-2.36816,0.553894,
-2.39563,0.50354,
-2.4231,0.509644,
-2.44904,0.552368,
-2.47192,0.590515,
-2.49329,0.552368,
-2.5177,0.502014,
-2.53601,0.514221,
-2.55585,0.550842,
-2.58179,0.59967,
-2.6001,0.569153,
-2.62146,0.506592,
-2.63977,0.508118,
-2.66266,0.550842,
-2.68097,0.58136,
-2.70081,0.628662,
-2.7359,0.494385,
-2.77405,0.524902,
-2.81067,0.552368,
-2.84271,0.587463,
-2.87018,0.558472,
-2.90222,0.518799,
-2.93121,0.512695,
-2.96021,0.511169,
-2.98767,0.585938,
-3.01514,0.553894,
-3.03955,0.505066,
-3.07007,0.506592,
-3.09296,0.552368,
-3.11584,0.588989,
-3.13873,0.559998,
-3.1601,0.50354,
-3.18451,0.512695,
-3.21045,0.549316,
-3.23944,0.590515,
-3.26538,0.558472,
-3.28979,0.506592,
-3.31726,0.517273,
-3.3432,0.556946,
-3.36456,0.602722,
-3.38287,0.556946,
-3.39813,0.50354,
-3.42102,0.515747,
-3.43628,0.550842,
-3.45306,0.592041,
-3.46985,0.556946,
-3.49121,0.505066,
-3.508,0.515747,
-3.52325,0.550842,
-3.53241,0.588989,
-3.53851,0.559998,
-3.54004,0.498962,
-3.53088,0.515747,
-3.51563,0.55542,
-3.49274,0.592041,
-3.45306,0.556946,
-3.40576,0.500488,
-3.34625,0.517273,
-3.28064,0.552368,
-3.20282,0.604248,
-3.11737,0.563049,
-3.02734,0.50354,
-2.92664,0.514221,
-2.82288,0.553894,
-2.70844,0.59967,
-2.58942,0.563049,
-2.46735,0.495911,
-2.34985,0.517273,
-2.22626,0.550842,
-2.11029,0.579834,
-1.99127,0.563049,
-1.88141,0.506592,
-1.77002,0.517273,
-1.66168,0.547791,
-1.55487,0.592041,
-1.45416,0.566101,
-1.36261,0.500488,
-1.27563,0.521851,
-1.19629,0.552368,
-1.1322,0.593567,
-1.07117,0.569153,
-1.01318,0.502014,
-0.964355,0.514221,
-0.917053,0.549316,
-0.883484,0.592041,
-0.852966,0.569153,
-0.830078,0.50354,
-0.810242,0.514221,
-0.801086,0.553894,
-0.794983,0.593567,
-0.796509,0.567627,
-0.805664,0.50354,
-0.810242,0.514221,
-0.823975,0.553894,
-0.842285,0.593567,
-0.856018,0.563049,
-0.881958,0.50354,
-0.90332,0.515747,
-0.924683,0.553894,
-0.959778,0.593567,
-0.991821,0.570679,
-1.01776,0.505066,
-1.04675,0.512695,
-1.08032,0.550842,
-1.11847,0.592041,
-1.15662,0.569153,
-1.20697,0.505066,
-1.24817,0.511169,
-1.29242,0.553894,
-1.33362,0.592041,
-1.38245,0.570679,
-1.4328,0.502014,
-1.48163,0.511169,
-1.53046,0.552368,
-1.57928,0.593567,
-1.62506,0.569153,
-1.66626,0.502014,
-1.70746,0.520325,
-1.74713,0.556946,
-1.77917,0.593567,
-1.80664,0.572205,
-1.83716,0.500488,
-1.86157,0.512695,
-1.87988,0.550842,
-1.90277,0.595093,
-1.91956,0.584412,
-1.93329,0.50354,
-1.9516,0.515747,
-1.95923,0.556946,
-1.97144,0.595093,
-1.97144,0.579834,
-1.96991,0.50354,
-1.97296,0.518799,
-1.96686,0.553894,
-1.95923,0.593567,
-1.94855,0.576782,
-1.93787,0.502014,
-1.92871,0.511169,
-1.92108,0.55542,
-1.90887,0.601196,
-1.89819,0.576782,
-1.88599,0.502014,
-1.87073,0.512695,
-1.85547,0.552368,
-1.84479,0.59967,
-1.83258,0.578308,
-1.8219,0.505066,
-1.81122,0.550842,
-1.80511,0.538635,
-1.79901,0.59967,
-1.79291,0.578308,
-1.7868,0.498962,
-1.77917,0.509644,
-1.77917,0.552368,
-1.7746,0.595093,
-1.77155,0.585938,
-1.77612,0.505066,
-1.77917,0.508118,
-1.78375,0.550842,
-1.79291,0.602722,
-1.80206,0.582886,
-1.81427,0.50354,
-1.82648,0.511169,
-1.82953,0.552368,
-1.84021,0.601196,
-1.85394,0.578308,
-1.86462,0.50354,
-1.87988,0.508118,
-1.90125,0.55542,
-1.91803,0.595093,
-1.94244,0.584412,
-1.95923,0.505066,
-1.97449,0.512695,
-1.99585,0.550842,
-2.01569,0.59967,
-2.04163,0.585938,
-2.06604,0.505066,
-2.09198,0.511169,
-2.12402,0.532532,
-2.15302,0.593567,
-2.1759,0.585938,
-2.2049,0.506592,
-2.23083,0.509644,
-2.25525,0.550842,
-2.28271,0.593567,
-2.30865,0.578308,
-2.33459,0.511169,
-2.36816,0.517273,
-2.39716,0.556946,
-2.4292,0.601196,
-2.45819,0.58136,
-2.48718,0.505066,
-2.5177,0.511169,
-2.54211,0.549316,
-2.57111,0.575256,
-2.59552,0.588989,
-2.61688,0.500488,
-2.64282,0.512695,
-2.66724,0.550842,
-2.69012,0.59967,
-2.71454,0.585938,
-2.73895,0.517273,
-2.771,0.511169,
-2.79236,0.547791,
-2.82135,0.598145,
-2.84882,0.582886,
-2.87476,0.4776,
-2.9007,0.514221,
-2.92511,0.547791,
-2.94952,0.595093,
-2.97394,0.588989,
-2.99072,0.505066,
-3.01514,0.512695,
-3.0365,0.552368,
-3.05328,0.598145,
-3.07312,0.582886,
-3.0899,0.506592,
-3.10822,0.509644,
-3.1311,0.547791,
-3.14941,0.598145,
-3.16925,0.592041,
-3.18909,0.498962,
-3.2074,0.508118,
-3.22266,0.553894,
-3.24249,0.601196,
-3.25775,0.585938,
-3.27911,0.506592,
-3.2959,0.511169,
-3.32184,0.55542,
-3.3371,0.584412,
-3.35693,0.559998,
-3.37524,0.473022,
-3.39661,0.509644,
-3.41949,0.55542,
-3.43628,0.593567,
-3.45764,0.584412,
-3.47748,0.515747,
-3.49579,0.508118,
-3.5141,0.595093,
-3.53241,0.598145,
-3.55377,0.58136,
-3.5675,0.509644,
-3.58429,0.508118,
-3.59344,0.552368,
-3.59802,0.598145,
-3.59955,0.584412,
-3.58582,0.52948,
-3.56598,0.462341,
-3.53546,0.550842,
-3.49579,0.59967,
-3.44391,0.575256,
-3.3844,0.518799,
-3.30963,0.508118,
-3.22723,0.553894,
-3.13721,0.59967,
-3.03497,0.585938,
-2.92969,0.512695,
-2.81372,0.505066,
-2.69623,0.559998,
-2.56958,0.598145,
-2.43683,0.590515,
-2.30865,0.514221,
-2.18506,0.505066,
-2.05536,0.556946,
-1.92871,0.598145,
-1.80664,0.584412,
-1.68762,0.509644,
-1.57166,0.495911,
-1.4679,0.558472,
-1.36414,0.593567,
-1.26343,0.587463,
-1.1734,0.514221,
-1.08948,0.506592,
-1.00861,0.494385,
-0.947571,0.592041,
-0.888062,0.59967,
-0.834656,0.509644,
-0.785828,0.502014,
-0.743103,0.559998,
-0.706482,0.588989,
-0.679016,0.654602,
-0.656128,0.514221,
-0.639343,0.505066,
-0.630188,0.553894,
-0.624084,0.593567,
-0.621033,0.58136,
-0.622559,0.509644,
-0.62561,0.518799,
-0.642395,0.558472,
-0.653076,0.59967,
-0.669861,0.587463,
-0.694275,0.514221,
-0.718689,0.506592,
-0.746155,0.553894,
-0.775146,0.590515,
-0.804138,0.584412,
-0.837708,0.517273,
-0.872803,0.500488,
-0.91095,0.559998,
-0.942993,0.588989,
-0.978088,0.582886,
-1.01166,0.515747,
-1.05133,0.495911,
-1.09711,0.563049,
-1.14136,0.595093,
-1.18561,0.582886,
-1.22986,0.521851,
-1.27411,0.505066,
-1.31989,0.556946,
-1.36414,0.582886,
-1.40686,0.584412,
-1.45111,0.523376,
-1.49078,0.500488,
-1.52588,0.552368,
-1.56097,0.598145,
-1.59454,0.587463,
-1.62201,0.524902,
-1.65253,0.498962,
-1.67694,0.553894,
-1.69525,0.590515,
-1.71204,0.592041,
-1.72729,0.534058,
-1.7334,0.495911,
-1.73492,0.556946,
-1.74408,0.590515,
-1.74255,0.58136,
-1.74103,0.523376,
-1.7395,0.506592,
-1.74103,0.556946,
-1.72729,0.592041,
-1.71814,0.58136,
-1.70898,0.521851,
-1.69678,0.495911,
-1.68762,0.55542,
-1.67999,0.588989,
-1.66779,0.587463,
-1.66168,0.526428,
-1.65253,0.498962,
-1.64337,0.556946,
-1.63727,0.588989,
-1.62964,0.584412,
-1.61743,0.508118,
-1.60522,0.498962,
-1.59912,0.55542,
-1.5976,0.593567,
-1.59454,0.579834,
-1.59302,0.523376,
-1.59912,0.500488,
-1.59912,0.552368,
-1.6037,0.588989,
-1.60828,0.579834,
-1.61285,0.526428,
-1.62354,0.498962,
-1.62964,0.550842,
-1.64032,0.587463,
-1.64948,0.575256,
-1.66473,0.524902,
-1.67542,0.494385,
-1.6922,0.553894,
-1.70288,0.587463,
-1.72119,0.576782,
-1.73798,0.524902,
-1.75781,0.50354,
-1.77917,0.549316,
-1.80054,0.584412,
-1.81885,0.579834,
-1.84479,0.527954,
-1.8692,0.491333,
-1.88904,0.55542,
-1.9104,0.587463,
-1.93481,0.576782,
-1.9577,0.527954,
-1.98517,0.500488,
-2.00958,0.550842,
-2.03247,0.585938,
-2.05841,0.57373,
-2.0874,0.540161,
-2.11029,0.495911,
-2.13318,0.552368,
-2.16064,0.593567,
-2.18658,0.546265,
-2.21405,0.537109,
-2.24457,0.486755,
-2.27356,0.552368,
-2.30103,0.582886,
-2.33459,0.575256,
-2.36511,0.526428,
-2.38953,0.492859,
-2.42615,0.553894,
-2.45514,0.572205,
-2.48413,0.569153,
-2.51465,0.527954,
-2.54364,0.492859,
-2.57721,0.553894,
-2.6062,0.582886,
-2.63824,0.575256,
-2.67181,0.532532,
-2.69623,0.495911,
-2.72675,0.55542,
-2.75574,0.579834,
-2.78015,0.572205,
-2.80914,0.526428,
-2.83661,0.492859,
-2.85797,0.55542,
-2.88239,0.58136,
-2.90375,0.569153,
-2.92664,0.526428,
-2.948,0.491333,
-2.96783,0.55542,
-2.9953,0.579834,
-3.01056,0.569153,
-3.03802,0.52948,
-3.05939,0.495911,
-3.07922,0.553894,
-3.09753,0.579834,
-3.11279,0.566101,
-3.12195,0.532532,
-3.14484,0.495911,
-3.16467,0.553894,
-3.17993,0.582886,
-3.19672,0.566101,
-3.21808,0.527954,
-3.23792,0.495911,
-3.25623,0.55542,
-3.27606,0.579834,
-3.29285,0.572205,
-3.31573,0.534058,
-3.32794,0.500488,
-3.35236,0.55542,
-3.37219,0.578308,
-3.38593,0.559998,
-3.40729,0.579834,
-3.42865,0.494385,
-3.45001,0.553894,
-3.4668,0.578308,
-3.48511,0.569153,
-3.50037,0.532532,
-3.5141,0.505066,
-3.53088,0.55542,
-3.54614,0.556946,
-3.5553,0.558472,
-3.5675,0.527954,
-3.57971,0.500488,
-3.58887,0.552368,
-3.58734,0.57373,
-3.57513,0.561523,
-3.56293,0.544739,
-3.54309,0.489807,
-3.5141,0.553894,
-3.47137,0.575256,
-3.41949,0.559998,
-3.35083,0.534058,
-3.27454,0.50354,
-3.18604,0.55542,
-3.08685,0.561523,
-2.98004,0.553894,
-2.86865,0.535583,
-2.75421,0.500488,
-2.62909,0.55542,
-2.50244,0.58136,
-2.38037,0.559998,
-2.25525,0.534058,
-2.12555,0.502014,
-2.00195,0.550842,
-1.87531,0.572205,
-1.75781,0.55542,
-1.64032,0.532532,
-1.53198,0.500488,
-1.4267,0.553894,
-1.32751,0.569153,
-1.24359,0.556946,
-1.16119,0.534058,
-1.08185,0.494385,
-1.01166,0.550842,
-0.952148,0.572205,
-0.891113,0.55542,
-0.845337,0.534058,
-0.802612,0.500488,
-0.764465,0.550842,
-0.738525,0.569153,
-0.714111,0.556946,
-0.695801,0.52948,
-0.679016,0.495911,
-0.669861,0.547791,
-0.662231,0.570679,
-0.663757,0.552368,
-0.665283,0.532532,
-0.674438,0.498962,
-0.683594,0.544739,
-0.698853,0.57373,
-0.712585,0.553894,
-0.727844,0.538635,
-0.749207,0.500488,
-0.778198,0.544739,
-0.804138,0.566101,
-0.834656,0.55542,
-0.862122,0.549316,
-0.897217,0.50354,
-0.930786,0.544739,
-0.965881,0.570679,
-1.00861,0.550842,
-1.05133,0.532532,
-1.09406,0.506592,
-1.14136,0.546265,
-1.18713,0.570679,
-1.23291,0.556946,
-1.28326,0.534058,
-1.33057,0.495911,
-1.38397,0.547791,
-1.42517,0.569153,
-1.46637,0.553894,
-1.50452,0.537109,
-1.54266,0.494385,
-1.57166,0.546265,
-1.60217,0.566101,
-1.62506,0.552368,
-1.65253,0.537109,
-1.67236,0.495911,
-1.68915,0.543213,
-1.70441,0.567627,
-1.72424,0.552368,
-1.73645,0.52948,
-1.74866,0.500488,
-1.75781,0.538635,
-1.76544,0.561523,
-1.77307,0.527954,
-1.77155,0.52948,
-1.76849,0.500488,
-1.76849,0.553894,
-1.76086,0.563049,
-1.74713,0.553894,
-1.7395,0.532532,
-1.73035,0.492859,
-1.71661,0.546265,
-1.70898,0.567627,
-1.69983,0.552368,
-1.6861,0.535583,
-1.67236,0.495911,
-1.6571,0.546265,
-1.64185,0.566101,
-1.62964,0.550842,
-1.61896,0.535583,
-1.60675,0.491333,
-1.59912,0.546265,
-1.59454,0.572205,
-1.58539,0.552368,
-1.57928,0.534058,
-1.58081,0.492859,
-1.57776,0.546265,
-1.58386,0.575256,
-1.58844,0.553894,
-1.58844,0.532532,
-1.59607,0.495911,
-1.60522,0.543213,
-1.62201,0.570679,
-1.63116,0.541687,
-1.6449,0.534058,
-1.66321,0.492859,
-1.67999,0.544739,
-1.69525,0.572205,
-1.71356,0.526428,
-1.73187,0.535583,
-1.75476,0.492859,
-1.7746,0.538635,
-1.79901,0.569153,
-1.82037,0.55542,
-1.84631,0.52948,
-1.8692,0.494385,
-1.90277,0.538635,
-1.92261,0.563049,
-1.94397,0.553894,
-1.97144,0.52948,
-1.99738,0.492859,
-2.02789,0.535583,
-2.05688,0.558472,
-2.08435,0.62561,
-2.11487,0.532532,
-2.14386,0.492859,
-2.17743,0.532532,
-2.2049,0.558472,
-2.23389,0.549316,
-2.26135,0.532532,
-2.29034,0.495911,
-2.31628,0.537109,
-2.34375,0.566101,
-2.37427,0.55542,
-2.40021,0.526428,
-2.43225,0.494385,
-2.46277,0.52948,
-2.49023,0.567627,
-2.51312,0.570679,
-2.54059,0.563049,
-2.56805,0.500488,
-2.59399,0.526428,
-2.61993,0.563049,
-2.6413,0.55542,
-2.66266,0.534058,
-2.68707,0.492859,
-2.71454,0.524902,
-2.74048,0.561523,
-2.76337,0.558472,
-2.78931,0.526428,
-2.81219,0.506592,
-2.83508,0.524902,
-2.8595,0.561523,
-2.87933,0.593567,
-2.90833,0.532532,
-2.93579,0.495911,
-2.96021,0.520325,
-2.98309,0.563049,
-3.00446,0.558472,
-3.02277,0.52948,
-3.0426,0.498962,
-3.06396,0.518799,
-3.08228,0.563049,
-3.10364,0.563049,
-3.12347,0.526428,
-3.14178,0.492859,
-3.15857,0.521851,
-3.17841,0.544739,
-3.20282,0.561523,
-3.21808,0.526428,
-3.24554,0.498962,
-3.27148,0.520325,
-3.29132,0.567627,
-3.31421,0.566101,
-3.33405,0.527954,
-3.35846,0.495911,
-3.3783,0.518799,
-3.39813,0.566101,
-3.41949,0.561523,
-3.43933,0.527954,
-3.46222,0.498962,
-3.48206,0.518799,
-3.49731,0.567627,
-3.51563,0.570679,
-3.53241,0.526428,
-3.55072,0.502014,
-3.56598,0.518799,
-3.58734,0.572205,
-3.60565,0.561523,
-3.62549,0.50354,
-3.64075,0.498962,
-3.65753,0.517273,
-3.67126,0.566101,
-3.67584,0.567627,
-3.68042,0.526428,
-3.67279,0.508118,
-3.65906,0.517273,
-3.63617,0.566101,
-3.6026,0.572205,
-3.5614,0.527954,
-3.51257,0.50354,
-3.45764,0.523376,
-3.38287,0.569153,
-3.30505,0.569153,
-3.22266,0.523376,
-3.125,0.480652,
-3.01819,0.520325,
-2.90527,0.569153,
-2.79999,0.566101,
-2.69012,0.526428,
-2.56958,0.502014,
-2.44904,0.521851,
-2.33307,0.567627,
-2.20947,0.570679,
-2.08893,0.52948,
-1.97144,0.480652,
-1.85852,0.514221,
-1.74866,0.567627,
-1.6449,0.566101,
-1.54572,0.52948,
-1.45416,0.500488,
-1.36108,0.517273,
-1.28174,0.572205,
-1.20544,0.563049,
-1.13983,0.527954,
-1.08643,0.502014,
-1.03912,0.514221,
-0.994873,0.561523,
-0.958252,0.567627,
-0.926208,0.524902,
-0.90332,0.502014,
-0.878906,0.512695,
-0.863647,0.561523,
-0.848389,0.566101,
-0.839233,0.532532,
-0.83313,0.495911,
-0.837708,0.520325,
-0.839233,0.559998,
-0.843811,0.566101,
-0.854492,0.526428,
-0.871277,0.508118,
-0.886536,0.520325,
-0.907898,0.567627,
-0.933838,0.566101,
-0.958252,0.521851,
-0.98877,0.498962,
-1.01776,0.508118,
-1.04675,0.567627,
-1.08032,0.567627,
-1.11542,0.521851,
-1.15204,0.502014,
-1.19629,0.512695,
-1.23749,0.561523,
-1.27869,0.567627,
-1.32751,0.520325,
-1.37787,0.500488,
-1.42212,0.509644,
-1.46484,0.567627,
-1.50604,0.569153,
-1.54877,0.521851,
-1.58844,0.500488,
-1.62811,0.509644,
-1.66016,0.569153,
-1.69678,0.563049,
-1.72882,0.526428,
-1.75934,0.500488,
-1.78528,0.50354,
-1.81732,0.569153,
-1.84174,0.572205,
-1.86157,0.526428,
-1.88446,0.502014,
-1.89514,0.511169,
-1.90887,0.570679,
-1.91956,0.57373,
-1.92261,0.524902,
-1.93024,0.500488,
-1.93176,0.514221,
-1.93329,0.57373,
-1.92719,0.570679,
-1.92261,0.526428,
-1.91498,0.500488,
-1.9104,0.508118,
-1.90277,0.576782,
-1.88751,0.58136,
-1.87836,0.524902,
-1.87378,0.500488,
-1.86157,0.514221,
-1.85089,0.578308,
-1.83563,0.569153,
-1.828,0.526428,
-1.8158,0.502014,
-1.80206,0.515747,
-1.78986,0.576782,
-1.77765,0.572205,
-1.77155,0.521851,
-1.76697,0.50354,
-1.75781,0.486755,
-1.75476,0.576782,
-1.75018,0.570679,
-1.75018,0.526428,
-1.75018,0.505066,
-1.75171,0.506592,
-1.75781,0.575256,
-1.76392,0.569153,
-1.77002,0.52948,
-1.77917,0.505066,
-1.79596,0.508118,
-1.80969,0.6073,
-1.82037,0.572205,
-1.83258,0.526428,
-1.85089,0.50354,
-1.86615,0.505066,
-1.88599,0.572205,
-1.90582,0.57373,
-1.92261,0.537109,
-1.94855,0.505066,
-1.96838,0.509644,
-1.98975,0.57373,
-2.01111,0.57373,
-2.03247,0.523376,
-2.05841,0.505066,
-2.08435,0.502014,
-2.11029,0.541687,
-2.1347,0.575256,
-2.15912,0.524902,
-2.18353,0.50354,
-2.20947,0.508118,
-2.23694,0.575256,
-2.2583,0.578308,
-2.28271,0.532532,
-2.31323,0.506592,
-2.33612,0.505066,
-2.36359,0.57373,
-2.39258,0.575256,
-2.41699,0.534058,
-2.44293,0.506592,
-2.46735,0.512695,
-2.48871,0.575256,
-2.5116,0.576782,
-2.54059,0.526428,
-2.56805,0.50354,
-2.59552,0.508118,
-2.62146,0.576782,
-2.64893,0.578308,
-2.67639,0.535583,
-2.71149,0.506592,
-2.73895,0.509644,
-2.76337,0.575256,
-2.78778,0.578308,
-2.81372,0.534058,
-2.83966,0.508118,
-2.8656,0.505066,
-2.88544,0.57373,
-2.90985,0.579834,
-2.93732,0.52948,
-2.96326,0.505066,
-2.98462,0.506592,
-3.00446,0.575256,
-3.02887,0.579834,
-3.05023,0.532532,
-3.0777,0.505066,
-3.09906,0.509644,
-3.12042,0.57373,
-3.13873,0.578308,
-3.15857,0.534058,
-3.18298,0.505066,
-3.21045,0.509644,
-3.23639,0.57373,
-3.25317,0.572205,
-3.27454,0.534058,
-3.2959,0.502014,
-3.31726,0.511169,
-3.34167,0.569153,
-3.36304,0.582886,
-3.38287,0.526428,
-3.39966,0.485229,
-3.41797,0.492859,
-3.43475,0.579834,
-3.45154,0.58136,
-3.46527,0.535583,
-3.48511,0.500488,
-3.50494,0.508118,
-3.52325,0.602722,
-3.54309,0.621033,
-3.55835,0.538635,
-3.57971,0.50354,
-3.59497,0.508118,
-3.6087,0.578308,
-3.62091,0.584412,
-3.62549,0.527954,
-3.62549,0.498962,
-3.62396,0.514221,
-3.60718,0.57373,
-3.58887,0.578308,
-3.55988,0.537109,
-3.52173,0.488281,
-3.47137,0.506592,
-3.40729,0.572205,
-3.33405,0.584412,
-3.25317,0.534058,
-3.1662,0.508118,
-3.07007,0.514221,
-2.96326,0.578308,
-2.85034,0.582886,
-2.7298,0.541687,
-2.59552,0.505066,
-2.46887,0.514221,
-2.33917,0.576782,
-2.2049,0.582886,
-2.07214,0.537109,
-1.94092,0.505066,
-1.81885,0.512695,
-1.69525,0.575256,
-1.58081,0.58136,
-1.474,0.538635,
-1.37482,0.474548,
-1.28021,0.495911,
-1.19476,0.578308,
-1.12,0.582886,
-1.0437,0.534058,
-0.973511,0.502014,
-0.914001,0.515747,
-0.85907,0.553894,
-0.814819,0.584412,
-0.773621,0.538635,
-0.741577,0.502014,
-0.717163,0.511169,
-0.70343,0.579834,
-0.689697,0.58136,
-0.682068,0.535583,
-0.680542,0.50354,
-0.683594,0.508118,
-0.691223,0.578308,
-0.698853,0.585938,
-0.708008,0.543213,
-0.727844,0.502014,
-0.746155,0.511169,
-0.767517,0.575256,
-0.790405,0.587463,
-0.816345,0.540161,
-0.848389,0.495911,
-0.878906,0.512695,
-0.914001,0.576782,
-0.952148,0.590515,
-0.98877,0.569153,
-1.03455,0.511169,
-1.07727,0.515747,
-1.12152,0.576782,
-1.17798,0.587463,
-1.22681,0.538635,
-1.27716,0.498962,
-1.33667,0.523376,
-1.3855,0.58136,
-1.4389,0.587463,
-1.48163,0.543213,
-1.52283,0.502014,
-1.56403,0.514221,
-1.6037,0.57373,
-1.64032,0.593567,
-1.67847,0.540161,
-1.72272,0.500488,
-1.76086,0.511169,
-1.79138,0.57373,
-1.8158,0.587463,
-1.84326,0.543213,
-1.86462,0.498962,
-1.88141,0.517273,
-1.89362,0.582886,
-1.90277,0.584412,
-1.90887,0.541687,
-1.91498,0.541687,
-1.91956,0.537109,
-1.91956,0.578308,
-1.92108,0.590515,
-1.92413,0.543213,
-1.92413,0.495911,
-1.92719,0.512695,
-1.92261,0.575256,
-1.91803,0.543213,
-1.9104,0.521851,
-1.90582,0.50354,
-1.89972,0.512695,
-1.88446,0.575256,
-1.87836,0.588989,
-1.86615,0.547791,
-1.86157,0.502014,
-1.85089,0.518799,
-1.84479,0.57373,
-1.83563,0.592041,
-1.83105,0.546265,
-1.8219,0.502014,
-1.81732,0.515747,
-1.81427,0.575256,
-1.80664,0.588989,
-1.80511,0.538635,
-1.80359,0.508118,
-1.80206,0.514221,
-1.81122,0.575256,
-1.8158,0.595093,
-1.82037,0.544739,
-1.83105,0.502014,
-1.84021,0.508118,
-1.84937,0.556946,
-1.85852,0.598145,
-1.87378,0.537109,
-1.88599,0.500488,
-1.90125,0.512695,
-1.91345,0.575256,
-1.92413,0.592041,
-1.9455,0.540161,
-1.96533,0.500488,
-1.98517,0.517273,
-2.00195,0.578308,
-2.02179,0.595093,
-2.04315,0.540161,
-2.06757,0.498962,
-2.0874,0.514221,
-2.11182,0.575256,
-2.13928,0.576782,
-2.16064,0.535583,
-2.18658,0.45929,
-2.21252,0.526428,
-2.23083,0.578308,
-2.25525,0.592041,
-2.28271,0.540161,
-2.30865,0.50354,
-2.33307,0.511169,
-2.36053,0.575256,
-2.388,0.579834,
-2.41241,0.541687,
-2.43683,0.495911,
-2.46429,0.518799,
-2.49329,0.57373,
-2.5177,0.587463,
-2.54059,0.575256,
-2.56958,0.505066,
-2.60162,0.515747,
-2.63062,0.57373,
-2.65961,0.590515,
-2.6886,0.538635,
-2.71454,0.509644,
-2.73895,0.523376,
-2.76794,0.57373,
-2.79388,0.590515,
-2.8183,0.535583,
-2.84271,0.502014,
-2.87018,0.520325,
-2.89459,0.575256,
-2.91443,0.585938,
-2.93884,0.535583,
-2.96783,0.50354,
-2.98462,0.520325,
-3.01514,0.572205,
-3.03802,0.588989,
-3.05634,0.534058,
-3.0777,0.498962,
-3.09753,0.524902,
-3.125,0.572205,
-3.14484,0.587463,
-3.1662,0.535583,
-3.19366,0.500488,
-3.21655,0.524902,
-3.24097,0.572205,
-3.25775,0.588989,
-3.27911,0.541687,
-3.302,0.500488,
-3.32031,0.523376,
-3.34473,0.57373,
-3.35999,0.585938,
-3.38135,0.540161,
-3.40271,0.492859,
-3.42255,0.524902,
-3.44696,0.572205,
-3.46832,0.582886,
-3.48969,0.544739,
-3.5141,0.505066,
-3.53088,0.543213,
-3.55072,0.57373,
-3.56598,0.587463,
-3.58124,0.534058,
-3.59802,0.505066,
-3.61328,0.532532,
-3.63159,0.559998,
-3.6438,0.588989,
-3.65448,0.541687,
-3.65753,0.495911,
-3.65601,0.52948,
-3.65448,0.575256,
-3.64685,0.590515,
-3.63159,0.532532,
-3.6026,0.506592,
-3.56598,0.52948,
-3.52173,0.576782,
-3.46832,0.598145,
-3.39661,0.532532,
-3.31879,0.559998,
-3.22571,0.534058,
-3.12805,0.567627,
-3.01819,0.593567,
-2.9007,0.535583,
-2.77557,0.505066,
-2.64893,0.535583,
-2.51465,0.57373,
-2.3819,0.590515,
-2.24609,0.532532,
-2.11487,0.511169,
-1.98517,0.527954,
-1.85242,0.58136,
-1.73035,0.587463,
-1.6098,0.534058,
-1.49841,0.553894,
-1.39618,0.534058,
-1.3031,0.569153,
-1.21918,0.585938,
-1.13068,0.535583,
-1.06354,0.502014,
-0.98877,0.52948,
-0.923157,0.572205,
-0.863647,0.585938,
-0.811768,0.535583,
-0.769043,0.494385,
-0.735474,0.532532,
-0.704956,0.569153,
-0.680542,0.585938,
-0.665283,0.535583,
-0.646973,0.495911,
-0.642395,0.52948,
-0.636292,0.570679,
-0.63324,0.584412,
-0.634766,0.534058,
-0.639343,0.500488,
-0.648499,0.526428,
-0.657654,0.575256,
-0.669861,0.587463,
-0.691223,0.537109,
-0.715637,0.498962,
-0.743103,0.534058,
-0.765991,0.572205,
-0.798035,0.582886,
-0.831604,0.532532,
-0.869751,0.495911,
-0.906372,0.52948,
-0.944519,0.570679,
-0.98114,0.587463,
-1.02692,0.534058,
-1.07269,0.498962,
-1.11847,0.52948,
-1.1734,0.575256,
-1.21613,0.587463,
-1.25885,0.532532,
-1.30157,0.495911,
-1.34583,0.527954,
-1.3916,0.567627,
-1.43127,0.587463,
-1.47095,0.532532,
-1.51215,0.502014,
-1.55029,0.527954,
-1.58691,0.569153,
-1.62048,0.584412,
-1.65253,0.506592,
-1.67847,0.495911,
-1.6983,0.535583,
-1.71661,0.57373,
-1.73645,0.588989,
-1.74866,0.532532,
-1.76392,0.492859,
-1.7746,0.585938,
-1.7868,0.570679,
-1.79749,0.587463,
-1.80359,0.537109,
-1.81122,0.50354,
-1.81427,0.534058,
-1.81122,0.570679,
-1.80817,0.55542,
-1.80664,0.505066,
-1.80511,0.494385,
-1.80664,0.535583,
-1.80511,0.57373,
-1.80054,0.58136,
-1.79443,0.52948,
-1.78528,0.492859,
-1.78223,0.540161,
-1.77765,0.569153,
-1.76849,0.58136,
-1.76239,0.52948,
-1.75171,0.495911,
-1.74713,0.537109,
-1.7395,0.572205,
-1.73492,0.582886,
-1.72729,0.535583,
-1.72424,0.494385,
-1.71814,0.540161,
-1.72119,0.570679,
-1.72119,0.576782,
-1.72729,0.532532,
-1.72882,0.492859,
-1.73645,0.553894,
-1.7395,0.584412,
-1.74561,0.582886,
-1.75171,0.534058,
-1.76392,0.489807,
-1.7746,0.534058,
-1.78375,0.578308,
-1.79901,0.559998,
-1.81427,0.52948,
-1.83563,0.491333,
-1.85242,0.537109,
-1.87531,0.575256,
-1.89667,0.587463,
-1.91956,0.535583,
-1.9455,0.480652,
-1.96838,0.524902,
-1.9928,0.57373,
-2.01569,0.579834,
-2.04163,0.532532,
-2.06604,0.489807,
-2.09045,0.535583,
-2.11639,0.57373,
-2.14539,0.576782,
-2.17743,0.532532,
-2.20947,0.489807,
-2.24762,0.527954,
-2.28424,0.570679,
-2.31476,0.578308,
-2.34375,0.534058,
-2.37885,0.486755,
-2.40631,0.532532,
-2.43225,0.575256,
-2.45514,0.576782,
-2.48718,0.532532,
-2.50854,0.488281,
-2.53754,0.508118,
-2.56653,0.57373,
-2.59247,0.579834,
-2.61536,0.52948,
-2.6413,0.486755,
-2.66724,0.535583,
-2.69012,0.572205,
-2.72064,0.579834,
-2.75421,0.52948,
-2.79541,0.489807,
-2.83661,0.532532,
-2.87781,0.57373,
-2.91443,0.578308,
-2.95868,0.534058,
-2.9953,0.486755,
-3.02887,0.52948,
-3.06702,0.572205,
-3.09906,0.578308,
-3.13568,0.52948,
-3.16772,0.485229,
-3.20129,0.532532,
-3.23792,0.569153,
-3.26996,0.578308,
-3.29895,0.526428,
-3.32642,0.483704,
-3.35693,0.526428,
-3.38287,0.575256,
-3.41034,0.575256,
-3.43323,0.527954,
-3.45917,0.486755,
-3.48511,0.524902,
-3.51563,0.570679,
-3.54309,0.584412,
-3.56903,0.526428,
-3.59344,0.486755,
-3.62244,0.527954,
-3.64685,0.572205,
-3.66669,0.575256,
-3.68195,0.527954,
-3.69873,0.486755,
-3.71857,0.523376,
-3.73383,0.570679,
-3.75214,0.57373,
-3.76587,0.532532,
-3.78876,0.469971,
-3.80554,0.535583,
-3.8269,0.579834,
-3.84369,0.576782,
-3.8681,0.532532,
-3.89557,0.486755,
-3.91235,0.524902,
-3.93066,0.57373,
-3.94745,0.575256,
-3.95508,0.526428,
-3.96729,0.506592,
-3.97186,0.537109,
-3.97644,0.578308,
-3.97339,0.576782,
-3.95966,0.523376,
-3.93372,0.483704,
-3.90167,0.526428,
-3.8559,0.549316,
-3.80249,0.576782,
-3.72772,0.527954,
-3.65143,0.488281,
-3.56598,0.532532,
-3.46222,0.575256,
-3.35083,0.57373,
-3.23639,0.537109,
-3.11432,0.482178,
-2.99072,0.521851,
-2.86102,0.575256,
-2.73132,0.57373,
