-1.6449,0.392151,
-1.64185,0.369263,
-1.64795,0.379944,
-1.64642,0.419617,
-1.64948,0.450134,
-1.65253,0.393677,
-1.65863,0.370789,
-1.66016,0.372314,
-1.66626,0.411987,
-1.67236,0.45166,
-1.67542,0.379944,
-1.68304,0.366211,
-1.68762,0.370789,
-1.69678,0.410461,
-1.69983,0.450134,
-1.69983,0.393677,
-1.70593,0.367737,
-1.71051,0.370789,
-1.71509,0.413513,
-1.72424,0.436401,
-1.72882,0.395203,
-1.73645,0.367737,
-1.74255,0.375366,
-1.75171,0.411987,
-1.76392,0.450134,
-1.77612,0.404358,
-1.79291,0.366211,
-1.80664,0.38147,
-1.82495,0.410461,
-1.84326,0.448608,
-1.86005,0.405884,
-1.88141,0.369263,
-1.90277,0.378418,
-1.91956,0.411987,
-1.94244,0.456238,
-1.96228,0.405884,
-1.98059,0.366211,
-2.00348,0.376892,
-2.02637,0.411987,
-2.04926,0.453186,
-2.07062,0.40741,
-2.09198,0.357056,
-2.11334,0.436401,
-2.13776,0.411987,
-2.15759,0.453186,
-2.18048,0.405884,
-2.20642,0.369263,
-2.22931,0.375366,
-2.2522,0.410461,
-2.27966,0.456238,
-2.3056,0.405884,
-2.33002,0.363159,
-2.35596,0.376892,
-2.3819,0.411987,
-2.40936,0.450134,
-2.43073,0.410461,
-2.45667,0.363159,
-2.4826,0.376892,
-2.50854,0.410461,
-2.53296,0.45166,
-2.55432,0.415039,
-2.58179,0.363159,
-2.60315,0.375366,
-2.63062,0.410461,
-2.65503,0.440979,
-2.67792,0.37384,
-2.70233,0.372314,
-2.72522,0.376892,
-2.74963,0.40741,
-2.77557,0.453186,
-2.80609,0.419617,
-2.83508,0.366211,
-2.86102,0.402832,
-2.88544,0.411987,
-2.91138,0.454712,
-2.93579,0.419617,
-2.96173,0.363159,
-2.98462,0.378418,
-3.01056,0.411987,
-3.03802,0.45166,
-3.05786,0.419617,
-3.08685,0.363159,
-3.10822,0.38147,
-3.125,0.413513,
-3.14941,0.436401,
-3.16925,0.421143,
-3.19061,0.366211,
-3.21198,0.378418,
-3.23029,0.40741,
-3.25317,0.45166,
-3.27148,0.422668,
-3.29285,0.361633,
-3.31268,0.38147,
-3.33252,0.411987,
-3.3493,0.450134,
-3.36761,0.424194,
-3.38593,0.372314,
-3.40576,0.386047,
-3.42407,0.411987,
-3.44086,0.450134,
-3.45764,0.424194,
-3.47748,0.361633,
-3.49274,0.38147,
-3.5141,0.408936,
-3.53241,0.456238,
-3.5553,0.42572,
-3.57208,0.363159,
-3.59039,0.384521,
-3.61176,0.413513,
-3.62854,0.450134,
-3.6438,0.427246,
-3.66821,0.363159,
-3.68652,0.382996,
-3.70178,0.413513,
-3.72162,0.450134,
-3.73688,0.427246,
-3.75519,0.363159,
-3.76892,0.378418,
-3.78418,0.408936,
-3.79944,0.454712,
-3.80402,0.431824,
-3.8147,0.366211,
-3.8147,0.38147,
-3.81165,0.401306,
-3.79181,0.45166,
-3.76282,0.43335,
-3.72162,0.3479,
-3.66516,0.340271,
-3.58734,0.411987,
-3.48511,0.454712,
-3.37219,0.436401,
-3.25012,0.369263,
-3.12042,0.382996,
-2.98615,0.445557,
-2.8656,0.450134,
-2.74353,0.43335,
-2.62451,0.367737,
-2.51312,0.376892,
-2.40479,0.410461,
-2.2995,0.456238,
-2.19421,0.436401,
-2.09351,0.349426,
-1.99738,0.378418,
-1.90277,0.415039,
-1.80817,0.431824,
-1.71814,0.43335,
-1.63727,0.363159,
-1.56097,0.375366,
-1.48315,0.413513,
-1.41296,0.45166,
-1.34277,0.434875,
-1.27411,0.366211,
-1.21307,0.375366,
-1.15662,0.410461,
-1.11084,0.45166,
-1.06506,0.436401,
-1.03302,0.361633,
-0.996399,0.375366,
-0.967407,0.415039,
-0.942993,0.454712,
-0.923157,0.434875,
-0.904846,0.360107,
-0.897217,0.37384,
-0.88501,0.413513,
-0.87738,0.450134,
-0.871277,0.428772,
-0.874329,0.363159,
-0.881958,0.372314,
-0.888062,0.410461,
-0.898743,0.454712,
-0.912476,0.431824,
-0.930786,0.361633,
-0.949097,0.367737,
-0.968933,0.410461,
-0.990295,0.45166,
-1.01776,0.436401,
-1.04523,0.366211,
-1.07269,0.369263,
-1.10321,0.411987,
-1.13678,0.453186,
-1.1673,0.436401,
-1.21002,0.375366,
-1.23749,0.370789,
-1.27563,0.411987,
-1.31836,0.450134,
-1.35193,0.434875,
-1.39008,0.360107,
-1.42365,0.367737,
-1.46179,0.413513,
-1.49384,0.453186,
-1.52283,0.439453,
-1.54877,0.369263,
-1.57166,0.375366,
-1.58997,0.40741,
-1.6037,0.506592,
-1.61743,0.436401,
-1.62811,0.367737,
-1.63269,0.369263,
-1.63574,0.411987,
-1.63269,0.453186,
-1.63727,0.434875,
-1.63269,0.363159,
-1.62506,0.337219,
-1.61896,0.410461,
-1.60675,0.454712,
-1.59607,0.436401,
-1.58691,0.361633,
-1.57776,0.369263,
-1.56555,0.410461,
-1.55029,0.453186,
-1.53961,0.437927,
-1.53046,0.366211,
-1.52283,0.367737,
-1.51825,0.411987,
-1.50452,0.445557,
-1.49841,0.439453,
-1.48926,0.366211,
-1.48163,0.378418,
-1.48163,0.42572,
-1.47705,0.454712,
-1.47552,0.439453,
-1.48163,0.367737,
-1.48163,0.37384,
-1.48926,0.418091,
-1.49078,0.457764,
-1.49841,0.439453,
-1.50757,0.42572,
-1.51672,0.382996,
-1.52588,0.422668,
-1.53351,0.448608,
-1.54419,0.436401,
-1.55487,0.366211,
-1.57471,0.370789,
-1.59149,0.413513,
-1.60828,0.453186,
-1.62506,0.440979,
-1.64948,0.367737,
-1.67084,0.372314,
-1.69067,0.411987,
-1.71509,0.45166,
-1.73492,0.436401,
-1.76086,0.361633,
-1.78528,0.369263,
-1.81274,0.410461,
-1.83868,0.450134,
-1.86615,0.440979,
-1.89056,0.367737,
-1.92261,0.370789,
-1.9516,0.411987,
-1.97601,0.421143,
-2.00806,0.427246,
-2.034,0.367737,
-2.06451,0.370789,
-2.09351,0.415039,
-2.12708,0.454712,
-2.15607,0.436401,
-2.18658,0.367737,
-2.21863,0.370789,
-2.24762,0.411987,
-2.27509,0.457764,
-2.30255,0.437927,
-2.32697,0.367737,
-2.35901,0.366211,
-2.38647,0.413513,
-2.41241,0.448608,
-2.43683,0.440979,
-2.4704,0.370789,
-2.50244,0.367737,
-2.53754,0.416565,
-2.57263,0.445557,
-2.6062,0.436401,
-2.63977,0.370789,
-2.66876,0.363159,
-2.6947,0.415039,
-2.72064,0.444031,
-2.74658,0.434875,
-2.77252,0.370789,
-2.79846,0.361633,
-2.83508,0.416565,
-2.86713,0.445557,
-2.89612,0.437927,
-2.93121,0.372314,
-2.95868,0.361633,
-2.99072,0.413513,
-3.01971,0.445557,
-3.04565,0.437927,
-3.07465,0.37384,
-3.10059,0.361633,
-3.12347,0.418091,
-3.14789,0.447083,
-3.16925,0.437927,
-3.19672,0.37384,
-3.22113,0.358582,
-3.24249,0.415039,
-3.26538,0.445557,
-3.28827,0.440979,
-3.31116,0.372314,
-3.32947,0.366211,
-3.35236,0.393677,
-3.37219,0.450134,
-3.39355,0.439453,
-3.41644,0.38147,
-3.44391,0.360107,
-3.46375,0.419617,
-3.48816,0.444031,
-3.50494,0.413513,
-3.53088,0.384521,
-3.55225,0.358582,
-3.5675,0.413513,
-3.59039,0.494385,
-3.6026,0.43335,
-3.62244,0.375366,
-3.63617,0.370789,
-3.65601,0.419617,
-3.66821,0.440979,
-3.68195,0.437927,
-3.70331,0.378418,
-3.72009,0.357056,
-3.73993,0.415039,
-3.76282,0.442505,
-3.78723,0.43335,
-3.80859,0.382996,
-3.83148,0.35553,
-3.85742,0.413513,
-3.87726,0.439453,
-3.89404,0.42572,
-3.91083,0.382996,
-3.93524,0.372314,
-3.9566,0.424194,
-3.97949,0.444031,
-4.00238,0.42572,
-4.02527,0.379944,
-4.05121,0.354004,
-4.07562,0.419617,
-4.09851,0.439453,
-4.1214,0.43335,
-4.14276,0.38147,
-4.1748,0.357056,
-4.20837,0.416565,
-4.23431,0.440979,
-4.25568,0.428772,
-4.26483,0.395203,
-4.26636,0.358582,
-4.24652,0.410461,
-4.20837,0.440979,
-4.14886,0.431824,
-4.07104,0.378418,
-3.97339,0.35553,
-3.8559,0.416565,
-3.71857,0.445557,
-3.5675,0.396729,
-3.41492,0.384521,
-3.25775,0.35553,
-3.10974,0.418091,
-2.96173,0.439453,
-2.82288,0.42572,
-2.6886,0.378418,
-2.56958,0.35553,
-2.45819,0.411987,
-2.35138,0.436401,
-2.25525,0.424194,
-2.1637,0.379944,
-2.0752,0.358582,
-1.99127,0.418091,
-1.91498,0.434875,
-1.84631,0.42572,
-1.7807,0.384521,
-1.72882,0.363159,
-1.67694,0.416565,
-1.62354,0.437927,
-1.58386,0.422668,
-1.54114,0.38147,
-1.50452,0.358582,
-1.47095,0.416565,
-1.44653,0.434875,
-1.42212,0.422668,
-1.40533,0.386047,
-1.39465,0.354004,
-1.38092,0.415039,
-1.36719,0.434875,
-1.35803,0.421143,
-1.35956,0.387573,
-1.35803,0.354004,
-1.35803,0.413513,
-1.36414,0.431824,
-1.37177,0.419617,
-1.38397,0.386047,
-1.40076,0.360107,
-1.41907,0.413513,
-1.44196,0.413513,
-1.45874,0.416565,
-1.48468,0.387573,
-1.50909,0.357056,
-1.53961,0.418091,
-1.5686,0.437927,
-1.60065,0.418091,
-1.63574,0.390625,
-1.67847,0.357056,
-1.71356,0.413513,
-1.75171,0.427246,
-1.79138,0.404358,
-1.83716,0.39978,
-1.88141,0.360107,
-1.92719,0.415039,
-1.96991,0.437927,
-2.01111,0.419617,
-2.05078,0.389099,
-2.0874,0.358582,
-2.11945,0.419617,
-2.15149,0.428772,
-2.17743,0.418091,
-2.20337,0.392151,
-2.22321,0.358582,
-2.24152,0.415039,
-2.25372,0.428772,
-2.26135,0.416565,
-2.26746,0.386047,
-2.26746,0.361633,
-2.2644,0.413513,
-2.27203,0.431824,
-2.27203,0.415039,
-2.27051,0.390625,
-2.26288,0.361633,
-2.2583,0.405884,
-2.24304,0.42572,
-2.22473,0.422668,
-2.20795,0.39978,
-2.19269,0.35553,
-2.17438,0.411987,
-2.15454,0.424194,
-2.13928,0.418091,
-2.11945,0.393677,
-2.10266,0.358582,
-2.09045,0.415039,
-2.07367,0.431824,
-2.05841,0.404358,
-2.04773,0.386047,
-2.03857,0.360107,
-2.03705,0.408936,
-2.03247,0.424194,
-2.03094,0.411987,
-2.02637,0.387573,
-2.02789,0.35553,
-2.02789,0.405884,
-2.03247,0.42572,
-2.0401,0.401306,
-2.04315,0.386047,
-2.05688,0.360107,
-2.07062,0.402832,
-2.08588,0.427246,
-2.09961,0.413513,
-2.11792,0.389099,
-2.13776,0.357056,
-2.15912,0.405884,
-2.18506,0.421143,
-2.20947,0.415039,
-2.23694,0.390625,
-2.26288,0.35553,
-2.29034,0.402832,
-2.32086,0.42572,
-2.35138,0.415039,
-2.38342,0.392151,
-2.41089,0.358582,
-2.44904,0.39978,
-2.48108,0.424194,
-2.52075,0.411987,
-2.55432,0.390625,
-2.59247,0.357056,
-2.63214,0.401306,
-2.66876,0.42572,
-2.70386,0.415039,
-2.742,0.387573,
-2.77405,0.357056,
-2.80914,0.39978,
-2.84424,0.437927,
-2.87781,0.404358,
-2.91138,0.401306,
-2.94495,0.358582,
-2.97852,0.39978,
-3.00751,0.434875,
-3.03955,0.390625,
-3.07159,0.393677,
-3.10211,0.357056,
-3.125,0.395203,
-3.15857,0.422668,
-3.19214,0.415039,
-3.22113,0.393677,
-3.2547,0.357056,
-3.28369,0.395203,
-3.31421,0.428772,
-3.34625,0.411987,
-3.37372,0.390625,
-3.40118,0.361633,
-3.43323,0.392151,
-3.45917,0.422668,
-3.48511,0.415039,
-3.51257,0.387573,
-3.53699,0.358582,
-3.56293,0.392151,
-3.58582,0.42572,
-3.6087,0.419617,
-3.6377,0.389099,
-3.66211,0.360107,
-3.68347,0.384521,
-3.70178,0.405884,
-3.72162,0.413513,
-3.74298,0.393677,
-3.76282,0.35553,
-3.7796,0.386047,
-3.79486,0.431824,
-3.81012,0.416565,
-3.8269,0.387573,
-3.84674,0.360107,
-3.862,0.386047,
-3.87573,0.42572,
-3.89404,0.418091,
-3.90778,0.392151,
-3.92303,0.358582,
-3.93829,0.390625,
-3.95203,0.422668,
-3.96881,0.419617,
-3.98712,0.390625,
-4.00391,0.360107,
-4.01611,0.387573,
-4.03442,0.424194,
-4.04816,0.421143,
-4.06799,0.389099,
-4.0863,0.361633,
-4.10767,0.384521,
-4.11987,0.42572,
-4.13971,0.42572,
-4.15955,0.396729,
-4.18396,0.360107,
-4.20227,0.396729,
-4.22668,0.422668,
-4.245,0.421143,
-4.26788,0.386047,
-4.28925,0.340271,
-4.31213,0.384521,
-4.33044,0.427246,
-4.35333,0.422668,
-4.37317,0.390625,
-4.39301,0.360107,
-4.41132,0.378418,
-4.4281,0.42572,
-4.44336,0.445557,
-4.45862,0.419617,
-4.46777,0.361633,
-4.47388,0.387573,
-4.46472,0.428772,
-4.44336,0.424194,
-4.40826,0.387573,
-4.35028,0.363159,
-4.27551,0.384521,
-4.17328,0.427246,
-4.05884,0.431824,
-3.93066,0.372314,
-3.79181,0.361633,
-3.6438,0.38147,
-3.50494,0.428772,
-3.36456,0.424194,
-3.22723,0.386047,
-3.10211,0.358582,
-2.97852,0.379944,
-2.86407,0.437927,
-2.75421,0.42572,
-2.65198,0.386047,
-2.5528,0.358582,
-2.46429,0.378418,
-2.36969,0.43335,
-2.28577,0.42572,
-2.2049,0.387573,
-2.12708,0.360107,
-2.05536,0.375366,
-1.98517,0.427246,
-1.92261,0.424194,
-1.8692,0.387573,
-1.81732,0.361633,
-1.77002,0.37384,
-1.73492,0.427246,
-1.69525,0.427246,
-1.66473,0.392151,
-1.63879,0.361633,
-1.62048,0.378418,
-1.60522,0.42572,
-1.58844,0.42572,
-1.58386,0.387573,
-1.57776,0.361633,
-1.58081,0.376892,
-1.58844,0.428772,
-1.59149,0.42572,
-1.60065,0.386047,
-1.61285,0.361633,
-1.62964,0.372314,
-1.64948,0.427246,
-1.67084,0.424194,
-1.6922,0.384521,
-1.71509,0.361633,
-1.74103,0.370789,
-1.77307,0.427246,
-1.79749,0.422668,
-1.828,0.384521,
-1.8631,0.361633,
-1.89819,0.375366,
-1.93481,0.434875,
-1.97449,0.424194,
-2.01874,0.386047,
-2.05536,0.361633,
-2.10266,0.372314,
-2.13776,0.42572,
-2.17743,0.431824,
-2.21863,0.396729,
-2.25372,0.360107,
-2.29034,0.37384,
-2.32391,0.437927,
-2.35901,0.427246,
-2.388,0.384521,
-2.41241,0.372314,
-2.43378,0.370789,
-2.45209,0.431824,
-2.46582,0.428772,
-2.47498,0.386047,
-2.4826,0.369263,
-2.48718,0.37384,
-2.48566,0.439453,
-2.4826,0.431824,
-2.47803,0.393677,
-2.4704,0.363159,
-2.46124,0.37384,
-2.44446,0.434875,
-2.42767,0.431824,
-2.41089,0.384521,
-2.3941,0.366211,
-2.37122,0.375366,
-2.35291,0.434875,
-2.33154,0.43335,
-2.31171,0.389099,
-2.2934,0.369263,
-2.27814,0.37384,
-2.25983,0.427246,
-2.24762,0.431824,
-2.23389,0.387573,
-2.22321,0.367737,
-2.21558,0.376892,
-2.20642,0.427246,
-2.19879,0.437927,
-2.19269,0.384521,
-2.19116,0.372314,
-2.18506,0.37384,
-2.18506,0.428772,
-2.18811,0.43335,
-2.19116,0.386047,
-2.19574,0.370789,
-2.20947,0.37384,
-2.22015,0.427246,
-2.22931,0.434875,
-2.24915,0.387573,
-2.26288,0.367737,
-2.28119,0.38147,
-2.30103,0.43335,
-2.32239,0.424194,
-2.34375,0.387573,
-2.37122,0.366211,
-2.39716,0.37384,
-2.41852,0.428772,
-2.44446,0.431824,
-2.46429,0.382996,
-2.49329,0.367737,
-2.5238,0.369263,
-2.54974,0.428772,
-2.57416,0.434875,
-2.60315,0.393677,
-2.63519,0.369263,
-2.66113,0.361633,
-2.6947,0.428772,
-2.71912,0.393677,
-2.74811,0.387573,
-2.77863,0.367737,
-2.80304,0.37384,
-2.83356,0.428772,
-2.86407,0.436401,
-2.88544,0.386047,
-2.91595,0.367737,
-2.94495,0.361633,
-2.97241,0.437927,
-2.99988,0.436401,
-3.0304,0.40741,
-3.05481,0.37384,
-3.0838,0.369263,
-3.10974,0.408936,
-3.13568,0.427246,
-3.16467,0.392151,
-3.18756,0.370789,
-3.2135,0.354004,
-3.23792,0.42572,
-3.26233,0.434875,
-3.28369,0.392151,
-3.30811,0.367737,
-3.33405,0.375366,
-3.35999,0.43335,
-3.38287,0.439453,
-3.40881,0.395203,
-3.43018,0.369263,
-3.46375,0.422668,
-3.48511,0.42572,
-3.50494,0.442505,
-3.52936,0.390625,
-3.54614,0.367737,
-3.56445,0.376892,
-3.57971,0.428772,
-3.59802,0.439453,
-3.6087,0.393677,
-3.62701,0.366211,
-3.64227,0.372314,
-3.65601,0.431824,
-3.67126,0.439453,
-3.68805,0.396729,
-3.70178,0.366211,
-3.71857,0.37384,
-3.7323,0.43335,
-3.74603,0.440979,
-3.76129,0.393677,
-3.77502,0.369263,
-3.78876,0.382996,
-3.79944,0.428772,
-3.80707,0.439453,
-3.8147,0.395203,
-3.8269,0.357056,
-3.83911,0.389099,
-3.84979,0.427246,
-3.86047,0.436401,
-3.87268,0.390625,
-3.88641,0.367737,
-3.90015,0.376892,
-3.91235,0.434875,
-3.92609,0.440979,
-3.94135,0.392151,
-3.9566,0.370789,
-3.97339,0.376892,
-3.98712,0.431824,
-4.00543,0.444031,
-4.02374,0.39978,
-4.03442,0.366211,
-4.05426,0.382996,
-4.07257,0.431824,
-4.09241,0.440979,
-4.11072,0.393677,
-4.13513,0.367737,
-4.15497,0.378418,
-4.17633,0.428772,
-4.19006,0.440979,
-4.21143,0.393677,
-4.23431,0.360107,
-4.24957,0.38147,
-4.26788,0.431824,
-4.28467,0.440979,
-4.3045,0.393677,
-4.31671,0.361633,
-4.32434,0.382996,
-4.32281,0.428772,
-4.31366,0.444031,
-4.28772,0.392151,
-4.24347,0.361633,
-4.18091,0.378418,
-4.09546,0.431824,
-3.99017,0.442505,
-3.86505,0.393677,
-3.7323,0.366211,
-3.59344,0.392151,
-3.44696,0.428772,
-3.30963,0.437927,
-3.17078,0.402832,
-3.03955,0.361633,
-2.9129,0.376892,
-2.79388,0.421143,
-2.67639,0.442505,
-2.56653,0.40741,
-2.46582,0.361633,
-2.36511,0.378418,
-2.2644,0.431824,
-2.17285,0.439453,
-2.08435,0.393677,
-2.00043,0.361633,
-1.92108,0.376892,
-1.84174,0.428772,
-1.77307,0.445557,
-1.70441,0.389099,
-1.6449,0.363159,
-1.59454,0.379944,
-1.54114,0.427246,
-1.49689,0.440979,
-1.45721,0.390625,
-1.42059,0.358582,
-1.3916,0.378418,
-1.36414,0.424194,
-1.34277,0.439453,
-1.31989,0.386047,
-1.3092,0.367737,
-1.29395,0.384521,
-1.29089,0.439453,
-1.28632,0.42572,
-1.29089,0.393677,
-1.28937,0.32959,
-1.297,0.386047,
-1.30463,0.434875,
-1.31226,0.440979,
-1.32599,0.386047,
-1.34583,0.384521,
-1.36414,0.387573,
-1.38702,0.411987,
-1.40686,0.445557,
-1.42975,0.387573,
-1.45569,0.369263,
-1.48163,0.384521,
-1.51215,0.436401,
-1.54419,0.440979,
-1.57776,0.40741,
-1.61133,0.366211,
-1.6449,0.379944,
-1.68304,0.427246,
-1.72424,0.440979,
-1.75934,0.392151,
-1.80511,0.366211,
-1.84021,0.378418,
-1.87683,0.428772,
-1.91193,0.440979,
-1.94244,0.392151,
-1.96991,0.360107,
-1.9928,0.379944,
-2.01721,0.427246,
-2.03552,0.437927,
-2.05078,0.390625,
-2.06146,0.361633,
-2.07062,0.379944,
-2.07214,0.42572,
-2.07214,0.437927,
-2.06909,0.390625,
-2.05994,0.363159,
-2.05231,0.382996,
-2.03857,0.42572,
-2.02789,0.437927,
-2.01416,0.392151,
-2.00043,0.366211,
-1.98669,0.386047,
-1.97296,0.424194,
-1.95923,0.422668,
-1.94397,0.389099,
-1.93481,0.366211,
-1.9165,0.384521,
-1.90582,0.427246,
-1.88904,0.437927,
-1.87836,0.389099,
-1.86768,0.363159,
-1.8631,0.386047,
-1.85547,0.389099,
-1.85242,0.424194,
-1.84631,0.387573,
-1.84784,0.360107,
-1.85089,0.387573,
-1.84937,0.424194,
-1.85242,0.436401,
-1.85547,0.375366,
-1.86768,0.370789,
-1.86462,0.389099,
-1.87683,0.427246,
-1.88293,0.437927,
-1.89362,0.386047,
-1.90277,0.360107,
-1.9165,0.402832,
-1.93329,0.428772,
-1.95007,0.437927,
-1.96686,0.384521,
-1.98822,0.363159,
-2.01111,0.387573,
-2.03247,0.428772,
-2.05688,0.422668,
-2.08282,0.387573,
-2.10724,0.367737,
-2.13776,0.389099,
-2.16522,0.424194,
-2.19269,0.440979,
-2.22015,0.387573,
-2.24762,0.361633,
-2.27509,0.389099,
-2.30103,0.428772,
-2.32544,0.437927,
-2.35748,0.393677,
-2.38037,0.361633,
-2.40936,0.392151,
-2.43378,0.428772,
-2.45972,0.437927,
-2.48718,0.386047,
-2.51617,0.360107,
-2.54974,0.384521,
-2.57111,0.427246,
-2.59857,0.444031,
-2.62299,0.387573,
-2.64893,0.360107,
-2.67487,0.392151,
-2.70233,0.427246,
-2.72675,0.436401,
-2.75574,0.387573,
-2.77863,0.357056,
-2.81067,0.408936,
-2.83813,0.43335,
-2.8595,0.43335,
-2.88391,0.375366,
-2.90527,0.358582,
-2.93427,0.402832,
-2.95563,0.427246,
-2.97546,0.434875,
-3.00293,0.387573,
-3.02277,0.354004,
-3.04718,0.395203,
-3.06702,0.427246,
-3.08533,0.428772,
-3.10516,0.389099,
-3.12347,0.35553,
-3.14178,0.396729,
-3.16162,0.422668,
-3.17688,0.43335,
-3.19366,0.382996,
-3.2074,0.358582,
-3.22418,0.396729,
-3.24402,0.424194,
-3.2608,0.431824,
-3.27454,0.386047,
-3.29437,0.358582,
-3.30963,0.378418,
-3.32184,0.390625,
-3.33099,0.413513,
-3.34015,0.389099,
-3.35388,0.35553,
-3.36151,0.390625,
-3.37524,0.404358,
-3.38593,0.43335,
-3.39355,0.386047,
-3.40881,0.354004,
-3.42102,0.392151,
-3.4317,0.42572,
-3.44238,0.43335,
-3.45459,0.387573,
-3.46069,0.350952,
-3.46985,0.396729,
-3.47595,0.427246,
-3.48663,0.428772,
-3.49579,0.390625,
-3.508,0.346375,
-3.5202,0.395203,
-3.53546,0.431824,
-3.54614,0.431824,
-3.56598,0.389099,
-3.57971,0.354004,
-3.59497,0.39978,
-3.6087,0.427246,
-3.62396,0.431824,
-3.63922,0.390625,
-3.65601,0.3479,
-3.67432,0.404358,
-3.69263,0.427246,
-3.71857,0.427246,
-3.73688,0.386047,
-3.75824,0.349426,
-3.7796,0.402832,
-3.79944,0.428772,
-3.8208,0.428772,
-3.83759,0.387573,
-3.85895,0.349426,
-3.88031,0.410461,
-3.89252,0.428772,
-3.91388,0.428772,
-3.92761,0.390625,
-3.93524,0.349426,
-3.94287,0.404358,
-3.93829,0.428772,
-3.92151,0.428772,
-3.89099,0.390625,
-3.84064,0.344849,
-3.77655,0.39978,
-3.69873,0.427246,
-3.59802,0.42572,
-3.48663,0.389099,
-3.35999,0.344849,
-3.23486,0.405884,
-3.10974,0.427246,
-2.98309,0.431824,
-2.86407,0.387573,
-2.74506,0.344849,
-2.63214,0.404358,
-2.52228,0.427246,
-2.42157,0.427246,
-2.32239,0.386047,
-2.22473,0.343323,
-2.1347,0.401306,
-2.0401,0.431824,
-1.95618,0.428772,
-1.87531,0.389099,
-1.79901,0.341797,
-1.72424,0.402832,
-1.65405,0.428772,
-1.58997,0.42572,
-1.53198,0.386047,
-1.474,0.341797,
-1.42975,0.401306,
-1.38092,0.428772,
-1.3382,0.42572,
-1.29852,0.384521,
-1.26648,0.346375,
-1.23444,0.401306,
-1.2146,0.42572,
-1.19171,0.42572,
-1.17493,0.384521,
-1.15967,0.300598,
-1.15051,0.396729,
-1.14899,0.43335,
-1.14746,0.422668,
-1.14594,0.387573,
-1.15204,0.341797,
-1.16272,0.384521,
-1.1734,0.404358,
-1.18408,0.424194,
-1.20087,0.389099,
-1.21613,0.338745,
-1.23749,0.395203,
-1.25732,0.457764,
-1.28174,0.424194,
-1.31073,0.386047,
-1.33514,0.343323,
-1.36871,0.392151,
-1.39923,0.434875,
-1.43738,0.427246,
-1.46942,0.389099,
-1.50452,0.341797,
-1.54419,0.390625,
-1.57776,0.43335,
-1.62048,0.419617,
-1.66473,0.386047,
-1.70288,0.338745,
-1.74408,0.386047,
-1.77765,0.445557,
-1.81427,0.424194,
-1.84326,0.389099,
-1.87378,0.341797,
-1.90125,0.384521,
-1.91956,0.427246,
-1.93787,0.424194,
-1.95618,0.387573,
-1.97144,0.335693,
-1.97906,0.386047,
-1.98364,0.442505,
-1.98669,0.42572,
-1.98212,0.386047,
-1.98364,0.338745,
-1.97754,0.379944,
-1.96228,0.427246,
-1.95007,0.421143,
-1.93787,0.357056,
-1.92413,0.341797,
-1.91193,0.361633,
-1.89972,0.428772,
-1.88141,0.422668,
-1.87225,0.386047,
-1.86005,0.344849,
-1.84784,0.393677,
-1.83411,0.483704,
-1.8219,0.421143,
-1.81427,0.389099,
-1.80511,0.340271,
-1.80054,0.378418,
-1.79596,0.43335,
-1.79749,0.421143,
-1.79596,0.386047,
-1.79749,0.338745,
-1.80054,0.3479,
-1.80511,0.428772,
-1.80664,0.422668,
-1.81122,0.384521,
-1.81732,0.341797,
-1.82648,0.370789,
-1.83563,0.427246,
-1.84174,0.392151,
-1.85394,0.382996,
-1.86615,0.346375,
-1.88141,0.378418,
-1.89514,0.43335,
-1.91193,0.421143,
-1.92871,0.384521,
-1.94702,0.337219,
-1.97144,0.370789,
-1.99127,0.431824,
-2.01416,0.424194,
-2.03705,0.384521,
-2.06146,0.343323,
-2.0874,0.367737,
-2.11334,0.43335,
-2.13776,0.421143,
-2.16064,0.387573,
-2.18964,0.335693,
-2.2171,0.367737,
-2.24762,0.431824,
-2.27509,0.421143,
-2.30255,0.386047,
-2.33459,0.337219,
-2.36359,0.369263,
-2.39105,0.431824,
-2.41852,0.421143,
-2.44751,0.386047,
-2.47955,0.340271,
-2.50092,0.366211,
-2.52686,0.431824,
-2.55432,0.422668,
-2.57721,0.386047,
-2.6001,0.341797,
-2.62756,0.376892,
-2.65045,0.440979,
-2.67334,0.421143,
-2.69775,0.389099,
-2.72217,0.340271,
-2.74811,0.402832,
-2.771,0.431824,
-2.79388,0.424194,
-2.81219,0.384521,
-2.83661,0.337219,
-2.8595,0.366211,
-2.88086,0.43335,
-2.90375,0.424194,
-2.92511,0.387573,
-2.94647,0.335693,
-2.96631,0.366211,
-2.99377,0.445557,
-3.01056,0.424194,
-3.0304,0.382996,
-3.05176,0.340271,
-3.07465,0.367737,
-3.08685,0.431824,
-3.10669,0.422668,
-3.125,0.384521,
-3.13873,0.338745,
-3.15552,0.361633,
-3.17383,0.43335,
-3.18756,0.434875,
-3.19672,0.392151,
-3.21503,0.343323,
-3.22723,0.37384,
-3.23944,0.431824,
-3.25012,0.431824,
-3.26233,0.387573,
-3.27454,0.341797,
-3.28369,0.360107,
-3.29285,0.437927,
-3.302,0.424194,
-3.31421,0.38147,
-3.32336,0.338745,
-3.33099,0.361633,
-3.34473,0.428772,
-3.35236,0.424194,
-3.36304,0.382996,
-3.37219,0.341797,
-3.38135,0.357056,
-3.3905,0.436401,
-3.40576,0.427246,
-3.41797,0.384521,
-3.42865,0.341797,
-3.44238,0.360107,
-3.45612,0.427246,
-3.47443,0.428772,
-3.49121,0.379944,
-3.50189,0.340271,
-3.52478,0.3479,
-3.53699,0.431824,
-3.5553,0.418091,
-3.5675,0.38147,
-3.58582,0.338745,
-3.60565,0.357056,
-3.62396,0.431824,
-3.6438,0.421143,
-3.65753,0.360107,
-3.66974,0.337219,
-3.68805,0.360107,
-3.70483,0.431824,
-3.72314,0.424194,
-3.7384,0.38147,
-3.75824,0.335693,
-3.77655,0.35553,
-3.79791,0.431824,
-3.8147,0.427246,
-3.83606,0.392151,
-3.85437,0.343323,
-3.86963,0.360107,
-3.88031,0.428772,
-3.88794,0.428772,
-3.87878,0.38147,
-3.86505,0.340271,
-3.83148,0.358582,
-3.78418,0.431824,
-3.71246,0.428772,
-3.62244,0.38147,
-3.5141,0.335693,
-3.39508,0.363159,
-3.26538,0.427246,
-3.13416,0.416565,
-2.99835,0.38147,
-2.87323,0.340271,
-2.75421,0.358582,
-2.63367,0.428772,
-2.52228,0.427246,
-2.41852,0.384521,
-2.31323,0.341797,
-2.21558,0.360107,
-2.11792,0.427246,
-2.02637,0.408936,
-1.94092,0.40741,
-1.86005,0.341797,
-1.7807,0.360107,
-1.70441,0.428772,
-1.63116,0.424194,
-1.5625,0.38147,
-1.49994,0.340271,
-1.44806,0.37384,
-1.3916,0.431824,
-1.3443,0.42572,
-1.3031,0.382996,
-1.26801,0.341797,
-1.24054,0.363159,
-1.21613,0.428772,
-1.19476,0.42572,
-1.17493,0.354004,
-1.16577,0.340271,
-1.16119,0.360107,
-1.15662,0.424194,
-1.15509,0.431824,
-1.15662,0.38147,
-1.16119,0.343323,
-1.17493,0.360107,
-1.18713,0.422668,
-1.20697,0.428772,
-1.22528,0.38147,
-1.24359,0.323486,
-1.26343,0.358582,
-1.28479,0.428772,
-1.31226,0.43335,
-1.33514,0.38147,
-1.36719,0.341797,
-1.39313,0.363159,
-1.4267,0.421143,
-1.45569,0.431824,
-1.49078,0.379944,
-1.52283,0.341797,
-1.55945,0.366211,
-1.60217,0.42572,
-1.64185,0.434875,
-1.67999,0.379944,
-1.71814,0.343323,
-1.75934,0.363159,
-1.79443,0.421143,
-1.82648,0.431824,
-1.8631,0.379944,
-1.89514,0.340271,
-1.92719,0.360107,
-1.95313,0.421143,
-1.97296,0.440979,
-1.98975,0.390625,
-2.00958,0.344849,
-2.02637,0.363159,
-2.0401,0.419617,
-2.04468,0.43335,
-2.04468,0.384521,
-2.04315,0.326538,
-2.0401,0.361633,
-2.02789,0.422668,
-2.02026,0.431824,
-2.00958,0.379944,
-1.99585,0.341797,
-1.98059,0.363159,
-1.96381,0.418091,
-1.94244,0.434875,
-1.92413,0.378418,
-1.89972,0.340271,
-1.88141,0.358582,
-1.8631,0.419617,
-1.84174,0.445557,
-1.8158,0.379944,
-1.80206,0.3479,
-1.7868,0.366211,
-1.76697,0.411987,
-1.75476,0.439453,
-1.73645,0.366211,
-1.72882,0.346375,
-1.71814,0.367737,
-1.70441,0.415039,
-1.6983,0.436401,
-1.69525,0.38147,
-1.69525,0.3479,
-1.69678,0.366211,
-1.69983,0.413513,
-1.70288,0.437927,
-1.70593,0.379944,
-1.71356,0.344849,
-1.71814,0.367737,
-1.7334,0.413513,
-1.74408,0.439453,
-1.75781,0.384521,
-1.77612,0.350952,
-1.79901,0.37384,
-1.81885,0.418091,
-1.84479,0.471497,
-1.87073,0.360107,
-1.89819,0.346375,
-1.93024,0.366211,
-1.9577,0.415039,
-1.98669,0.436401,
-2.02026,0.38147,
-2.0462,0.357056,
-2.07825,0.369263,
-2.10419,0.411987,
-2.1347,0.437927,
-2.1637,0.379944,
-2.19421,0.349426,
-2.22626,0.369263,
-2.2522,0.413513,
-2.28729,0.42572,
-2.31934,0.382996,
-2.35291,0.352478,
-2.38037,0.369263,
-2.41241,0.413513,
-2.43988,0.434875,
-2.47192,0.382996,
-2.50092,0.367737,
-2.52991,0.372314,
-2.5589,0.411987,
-2.59094,0.448608,
-2.60925,0.387573,
-2.63672,0.354004,
-2.66266,0.367737,
-2.69165,0.401306,
-2.71301,0.434875,
-2.7359,0.38147,
-2.76337,0.349426,
-2.78778,0.370789,
-2.81372,0.411987,
-2.83966,0.437927,
-2.8656,0.390625,
-2.89001,0.352478,
-2.90985,0.367737,
-2.93732,0.410461,
-2.96173,0.437927,
-2.98615,0.379944,
-3.00446,0.349426,
-3.02887,0.372314,
-3.05176,0.401306,
-3.06702,0.396729,
-3.08685,0.369263,
-3.10974,0.349426,
-3.12805,0.369263,
-3.15094,0.408936,
-3.16925,0.436401,
-3.19214,0.372314,
-3.2135,0.408936,
-3.23792,0.37384,
-3.25623,0.410461,
-3.27606,0.442505,
-3.29742,0.378418,
-3.31573,0.35553,
-3.33252,0.378418,
-3.35236,0.40741,
-3.37219,0.431824,
-3.38745,0.376892,
-3.40271,0.352478,
-3.42102,0.375366,
-3.43628,0.408936,
-3.45612,0.444031,
-3.47137,0.379944,
-3.48663,0.357056,
-3.50342,0.375366,
-3.52631,0.40741,
-3.54004,0.434875,
-3.55988,0.367737,
-3.58124,0.360107,
-3.59802,0.376892,
-3.61633,0.402832,
-3.63464,0.436401,
-3.65448,0.37384,
-3.67279,0.361633,
-3.69263,0.379944,
-3.71704,0.401306,
-3.73383,0.434875,
-3.76129,0.378418,
-3.78571,0.357056,
-3.80554,0.376892,
-3.82843,0.404358,
-3.84979,0.43335,
-3.87268,0.379944,
-3.89557,0.358582,
-3.92456,0.379944,
-3.9444,0.402832,
-3.96729,0.431824,
-3.98712,0.38147,
-4.00085,0.370789,
-4.01459,0.38147,
-4.02679,0.404358,
-4.02679,0.43335,
-4.01611,0.38147,
-3.99323,0.363159,
-3.9505,0.370789,
-3.89252,0.40741,
-3.8147,0.434875,
-3.72009,0.38147,
-3.59802,0.361633,
-3.46527,0.379944,
-3.32031,0.402832,
-3.1662,0.436401,
-3.01208,0.382996,
-2.8656,0.361633,
-2.7298,0.382996,
-2.59705,0.39978,
-2.46582,0.43335,
-2.34985,0.384521,
-2.24152,0.361633,
-2.13928,0.38147,
-2.03857,0.39978,
-1.94397,0.436401,
-1.85547,0.38147,
-1.77002,0.363159,
-1.6983,0.382996,
-1.62354,0.39978,
-1.55487,0.42572,
-1.49384,0.393677,
-1.44043,0.363159,
-1.38855,0.38147,
-1.34277,0.402832,
-1.30157,0.428772,
-1.26495,0.382996,
-1.23291,0.361633,
-1.20239,0.389099,
-1.17798,0.402832,
-1.15814,0.434875,
-1.14594,0.38147,
-1.13831,0.361633,
-1.13068,0.382996,
-1.12762,0.39978,
-1.12762,0.428772,
-1.1322,0.384521,
-1.13983,0.415039,
-1.15051,0.363159,
-1.1673,0.401306,
-1.18713,0.428772,
-1.20544,0.389099,
-1.22833,0.363159,
-1.25885,0.387573,
-1.28937,0.402832,
-1.32294,0.43335,
-1.35651,0.386047,
-1.39008,0.376892,
-1.43127,0.384521,
-1.47095,0.392151,
-1.51672,0.431824,
-1.5625,0.395203,
-1.6098,0.325012,
-1.66168,0.382996,
-1.71204,0.401306,
-1.75934,0.431824,
-1.80359,0.387573,
-1.85089,0.363159,
-1.90125,0.386047,
-1.94092,0.395203,
-1.98669,0.43335,
-2.02026,0.390625,
-2.05536,0.363159,
-2.08893,0.38147,
-2.11639,0.401306,
-2.14081,0.43335,
-2.15759,0.392151,
-2.1759,0.360107,
-2.18658,0.382996,
-2.19574,0.401306,
-2.19574,0.434875,
-2.19727,0.390625,
-2.20642,0.363159,
-2.20337,0.382996,
-2.20184,0.404358,
-2.18811,0.43335,
-2.17438,0.395203,
-2.15607,0.360107,
-2.14081,0.390625,
-2.11639,0.39978,
-2.09198,0.445557,
-2.07367,0.396729,
-2.05536,0.358582,
-2.03094,0.382996,
-2.01111,0.39978,
-1.98975,0.431824,
-1.97296,0.393677,
-1.95313,0.358582,
-1.93634,0.378418,
-1.92108,0.402832,
-1.90735,0.42572,
-1.89972,0.39978,
-1.89362,0.360107,
-1.88599,0.379944,
-1.87988,0.402832,
-1.87836,0.427246,
-1.87988,0.404358,
-1.87988,0.372314,
-1.88599,0.378418,
-1.89667,0.402832,
-1.9043,0.431824,
-1.9165,0.402832,
-1.93176,0.361633,
-1.9455,0.384521,
-1.96381,0.379944,
-1.98212,0.418091,
-2.00653,0.361633,
-2.03094,0.350952,
-2.05231,0.378418,
-2.07825,0.39978,
-2.10419,0.431824,
-2.13013,0.401306,
-2.15759,0.366211,
-2.18353,0.376892,
-2.21252,0.404358,
-2.24457,0.428772,
-2.26593,0.408936,
-2.29797,0.370789,
-2.33154,0.379944,
-2.36206,0.402832,
-2.39563,0.428772,
-2.42767,0.410461,
-2.45514,0.366211,
-2.48566,0.367737,
-2.5177,0.408936,
-2.5528,0.42572,
-2.58484,0.404358,
-2.61841,0.357056,
-2.65198,0.37384,
-2.67944,0.404358,
-2.70996,0.427246,
-2.74048,0.408936,
-2.76794,0.358582,
-2.80457,0.375366,
-2.83203,0.404358,
-2.8595,0.428772,
-2.89001,0.404358,
-2.91443,0.357056,
-2.93884,0.370789,
-2.96631,0.405884,
-2.98462,0.42572,
-3.01056,0.40741,
-3.0365,0.354004,
-3.05634,0.332642,
-3.07922,0.392151,
-3.09906,0.428772,
-3.1189,0.410461,
-3.14484,0.369263,
-3.16772,0.370789,
-3.19061,0.396729,
-3.20892,0.419617,
-3.23334,0.422668,
-3.25012,0.361633,
-3.26996,0.370789,
-3.28522,0.405884,
-3.302,0.427246,
-3.32031,0.410461,
-3.33862,0.360107,
-3.35541,0.37384,
-3.37067,0.404358,
-3.38745,0.428772,
-3.40118,0.408936,
-3.41492,0.360107,
-3.42407,0.370789,
-3.44391,0.415039,
-3.45612,0.434875,
-3.47443,0.40741,
-3.49121,0.360107,
-3.50952,0.367737,
-3.52478,0.401306,
-3.53851,0.421143,
-3.55835,0.42572,
-3.57513,0.350952,
-3.5965,0.370789,
-3.61633,0.404358,
-3.63159,0.431824,
-3.6499,0.411987,
-3.66821,0.358582,
-3.6911,0.357056,
-3.71094,0.410461,
-3.7262,0.427246,
-3.74298,0.411987,
-3.75977,0.357056,
-3.77655,0.367737,
-3.79639,0.404358,
-3.81317,0.42572,
-3.83453,0.410461,
-3.84827,0.360107,
-3.8681,0.363159,
-3.89099,0.401306,
-3.90015,0.424194,
-3.91388,0.410461,
-3.91846,0.357056,
-3.91846,0.370789,
-3.9032,0.402832,
-3.87421,0.424194,
-3.82843,0.413513,
-3.7674,0.35553,
-3.68652,0.363159,
-3.57819,0.402832,
-3.45917,0.42572,
-3.3371,0.473022,
-3.20435,0.35553,
-3.07465,0.367737,
-2.94342,0.401306,
-2.82135,0.424194,
-2.70386,0.408936,
-2.58789,0.35553,
-2.47803,0.363159,
-2.37732,0.413513,
-2.27509,0.396729,
-2.17438,0.416565,
-2.07977,0.354004,
-1.98975,0.367737,
-1.90125,0.402832,
-1.81732,0.42572,
-1.74103,0.416565,
-1.67389,0.35553,
-1.60828,0.361633,
-1.54419,0.402832,
-1.49231,0.422668,
-1.4389,0.419617,
-1.39465,0.350952,
-1.35651,0.357056,
-1.32141,0.404358,
-1.28784,0.422668,
-1.26343,0.415039,
-1.24512,0.354004,
-1.22528,0.358582,
-1.2146,0.402832,
-1.21002,0.419617,
-1.20544,0.419617,
-1.20697,0.350952,
-1.21307,0.35553,
-1.2207,0.40741,
-1.22833,0.401306,
-1.24054,0.421143,
-1.25732,0.350952,
-1.26953,0.366211,
-1.28784,0.401306,
-1.3092,0.424194,
-1.32904,0.418091,
-1.35498,0.350952,
-1.38245,0.369263,
-1.41144,0.401306,
-1.44043,0.422668,
-1.47095,0.415039,
-1.50757,0.350952,
-1.54572,0.358582,
-1.58691,0.402832,
-1.62506,0.419617,
-1.66168,0.415039,
-1.70288,0.35553,
-1.74255,0.352478,
-1.7807,0.401306,
-1.8219,0.422668,
-1.86005,0.416565,
-1.89667,0.354004,
-1.93329,0.35553,
-1.96838,0.404358,
-1.9989,0.421143,
-2.02484,0.413513,
-2.04468,0.35553,
-2.05994,0.354004,
-2.0752,0.39978,
-2.0813,0.419617,
-2.08588,0.413513,
-2.08282,0.354004,
-2.07672,0.357056,
-2.06909,0.439453,
-2.05078,0.418091,
-2.03705,0.413513,
-2.01721,0.352478,
-1.99738,0.354004,
-1.97449,0.39978,
-1.95007,0.422668,
-1.92413,0.413513,
-1.90125,0.354004,
-1.87836,0.350952,
-1.85547,0.396729,
-1.83716,0.421143,
-1.81274,0.411987,
-1.79901,0.352478,
-1.78223,0.352478,
-1.76849,0.401306,
-1.75781,0.422668,
-1.74408,0.405884,
-1.73492,0.35553,
-1.73035,0.354004,
-1.72882,0.396729,
-1.72882,0.421143,
-1.72272,0.404358,
-1.72272,0.337219,
-1.72577,0.352478,
-1.72577,0.413513,
-1.72882,0.422668,
-1.73645,0.416565,
-1.74561,0.352478,
-1.74866,0.349426,
-1.76239,0.405884,
-1.77307,0.421143,
-1.78528,0.415039,
-1.80054,0.350952,
-1.81732,0.354004,
-1.83716,0.393677,
-1.85547,0.421143,
-1.87225,0.418091,
-1.89514,0.366211,
-1.91498,0.350952,
-1.93939,0.393677,
-1.95923,0.416565,
-1.98059,0.413513,
-2.00195,0.350952,
-2.02332,0.349426,
-2.04773,0.402832,
-2.07214,0.422668,
-2.09198,0.422668,
-2.11487,0.354004,
-2.13776,0.354004,
-2.16064,0.393677,
-2.18048,0.413513,
-2.20947,0.421143,
-2.23236,0.354004,
-2.25677,0.349426,
-2.28424,0.393677,
-2.31018,0.419617,
-2.33002,0.415039,
-2.35443,0.350952,
-2.38037,0.349426,
-2.40326,0.389099,
-2.42615,0.421143,
-2.44293,0.411987,
-2.46277,0.354004,
-2.4826,0.3479,
-2.50244,0.392151,
-2.52075,0.421143,
-2.54059,0.411987,
-2.5589,0.35553,
-2.58484,0.346375,
-2.60315,0.40741,
-2.61993,0.427246,
-2.6413,0.411987,
-2.66113,0.350952,
-2.67944,0.366211,
-2.69928,0.393677,
-2.71912,0.421143,
-2.73895,0.42572,
-2.75421,0.354004,
-2.76642,0.346375,
-2.78168,0.387573,
-2.79388,0.422668,
-2.80762,0.411987,
-2.82135,0.352478,
-2.83661,0.349426,
-2.84729,0.390625,
-2.86255,0.419617,
-2.87476,0.411987,
-2.88544,0.35553,
-2.89764,0.3479,
-2.91138,0.393677,
-2.91748,0.421143,
-2.93121,0.413513,
-2.93732,0.35553,
-2.94495,0.346375,
-2.95258,0.390625,
-2.96783,0.419617,
-2.97546,0.40741,
-2.98309,0.354004,
-2.99988,0.3479,
-3.00446,0.392151,
-3.01666,0.419617,
-3.02734,0.410461,
-3.0426,0.35553,
-3.05481,0.3479,
-3.07159,0.393677,
-3.08838,0.421143,
-3.10822,0.410461,
-3.12042,0.35553,
-3.14026,0.349426,
-3.15552,0.389099,
-3.17535,0.40741,
-3.18909,0.413513,
-3.20892,0.358582,
-3.22723,0.3479,
-3.24554,0.389099,
-3.2608,0.419617,
-3.27301,0.413513,
-3.28369,0.357056,
-3.28827,0.346375,
-3.29285,0.392151,
-3.27759,0.419617,
-3.25165,0.40741,
-3.21655,0.358582,
-3.1601,0.349426,
-3.08838,0.392151,
-3.00903,0.419617,
-2.91138,0.410461,
-2.81067,0.35553,
-2.70233,0.350952,
-2.59552,0.393677,
-2.47955,0.431824,
-2.37122,0.408936,
-2.26593,0.411987,
-2.15607,0.343323,
-2.05078,0.393677,
-1.94397,0.419617,
-1.84174,0.411987,
-1.73645,0.35553,
-1.63727,0.350952,
-1.53198,0.393677,
-1.43433,0.418091,
-1.33667,0.410461,
-1.24664,0.35553,
-1.15662,0.3479,
-1.07422,0.392151,
-0.996399,0.416565,
-0.921631,0.40741,
-0.849915,0.358582,
-0.785828,0.346375,
-0.726318,0.402832,
-0.671387,0.421143,
-0.621033,0.408936,
-0.578308,0.35553,
-0.543213,0.352478,
-0.508118,0.402832,
-0.4776,0.402832,
-0.456238,0.410461,
-0.437927,0.358582,
-0.419617,0.352478,
-0.411987,0.404358,
-0.404358,0.416565,
-0.398254,0.405884,
-0.396729,0.35553,
-0.395203,0.352478,
-0.401306,0.390625,
-0.405884,0.402832,
-0.418091,0.402832,
-0.427246,0.352478,
-0.440979,0.350952,
-0.45929,0.390625,
-0.480652,0.415039,
-0.500488,0.404358,
-0.524902,0.357056,
-0.549316,0.350952,
-0.576782,0.401306,
-0.604248,0.416565,
-0.636292,0.401306,
-0.668335,0.357056,
-0.704956,0.349426,
-0.738525,0.390625,
-0.773621,0.421143,
-0.810242,0.402832,
-0.845337,0.358582,
-0.878906,0.320435,
-0.914001,0.390625,
-0.949097,0.415039,
-0.973511,0.39978,
-0.999451,0.354004,
-1.02234,0.352478,
-1.04218,0.393677,
-1.05896,0.424194,
-1.07269,0.396729,
-1.08643,0.35553,
-1.09558,0.352478,
-1.09558,0.390625,
-1.09863,0.418091,
-1.09711,0.396729,
-1.09558,0.352478,
-1.091,0.350952,
-1.08337,0.395203,
-1.07269,0.419617,
-1.06354,0.393677,
-1.05286,0.35553,
-1.04523,0.354004,
-1.03607,0.393677,
-1.02692,0.418091,
-1.01471,0.390625,
-0.996399,0.360107,
-0.990295,0.350952,
-0.975037,0.393677,
-0.965881,0.419617,
-0.9552,0.390625,
-0.946045,0.35553,
-0.935364,0.354004,
-0.924683,0.413513,
-0.907898,0.418091,
-0.904846,0.389099,
-0.900269,0.357056,
-0.897217,0.35553,
-0.900269,0.396729,
-0.900269,0.416565,
-0.900269,0.387573,
-0.901794,0.358582,
-0.906372,0.35553,
-0.912476,0.393677,
-0.917053,0.421143,
-0.926208,0.389099,
-0.932312,0.35553,
-0.942993,0.35553,
-0.952148,0.395203,
-0.965881,0.419617,
-0.976563,0.390625,
-0.994873,0.357056,
-1.01013,0.35553,
-1.03302,0.40741,
-1.0498,0.422668,
-1.06354,0.395203,
-1.08643,0.354004,
-1.10779,0.35553,
-1.1261,0.395203,
-1.14746,0.421143,
-1.17035,0.395203,
-1.19171,0.358582,
-1.21765,0.357056,
-1.24054,0.393677,
-1.2619,0.424194,
-1.28632,0.392151,
-1.30615,0.35553,
-1.33057,0.350952,
-1.35498,0.395203,
-1.37482,0.424194,
-1.39618,0.395203,
-1.41754,0.354004,
-1.44348,0.357056,
-1.46942,0.387573,
-1.48926,0.422668,
-1.51062,0.392151,
-1.52588,0.35553,
-1.55029,0.350952,
-1.57166,0.395203,
-1.59454,0.422668,
-1.61896,0.389099,
-1.64337,0.357056,
-1.66473,0.357056,
-1.68762,0.401306,
-1.71509,0.42572,
-1.73492,0.389099,
-1.75629,0.350952,
-1.77917,0.357056,
-1.79443,0.393677,
-1.81122,0.427246,
-1.83105,0.382996,
-1.85089,0.350952,
-1.86157,0.357056,
-1.88141,0.393677,
-1.89056,0.428772,
-1.90125,0.38147,
-1.91498,0.352478,
-1.92871,0.358582,
-1.93939,0.393677,
-1.94855,0.43335,
-1.95618,0.379944,
-1.96991,0.352478,
-1.97906,0.360107,
-1.98975,0.392151,
-2.00043,0.431824,
-2.01263,0.378418,
-2.01874,0.350952,
-2.03094,0.360107,
-2.04163,0.395203,
-2.04773,0.431824,
-2.05841,0.379944,
-2.07214,0.352478,
-2.08435,0.360107,
-2.09503,0.392151,
-2.10876,0.434875,
-2.1225,0.38147,
-2.13776,0.349426,
-2.15607,0.358582,
-2.1759,0.393677,
-2.19269,0.43335,
-2.211,0.382996,
-2.22931,0.354004,
-2.25372,0.357056,
-2.27509,0.395203,
-2.29034,0.483704,
-2.30713,0.38147,
-2.32391,0.350952,
-2.3407,0.358582,
-2.35443,0.393677,
-2.37579,0.436401,
-2.38953,0.387573,
-2.41241,0.3479,
-2.42615,0.358582,
-2.4353,0.395203,
-2.45361,0.450134,
-2.46735,0.392151,
-2.48718,0.3479,
-2.50397,0.360107,
-2.51923,0.396729,
-2.53143,0.434875,
-2.54974,0.392151,
-2.56042,0.343323,
-2.56958,0.360107,
-2.57111,0.393677,
-2.5589,0.434875,
-2.54211,0.392151,
-2.50702,0.3479,
-2.46582,0.337219,
-2.41089,0.386047,
-2.34375,0.439453,
-2.26746,0.401306,
-2.18201,0.341797,
-2.09961,0.363159,
-2.00806,0.392151,
-1.91193,0.447083,
-1.81122,0.390625,
-1.71051,0.3479,
-1.61438,0.361633,
-1.50909,0.392151,
-1.40839,0.436401,
-1.31378,0.395203,
-1.21307,0.349426,
-1.11847,0.35553,
-1.02234,0.395203,
-0.927734,0.434875,
-0.828552,0.392151,
-0.743103,0.3479,
-0.65155,0.357056,
-0.564575,0.393677,
-0.483704,0.436401,
-0.404358,0.401306,
-0.326538,0.346375,
-0.259399,0.358582,
-0.189209,0.404358,
-0.125122,0.442505,
-0.0686646,0.401306,
-0.0152588,0.35553,
0.0289917,0.37384,
0.0732422,0.39978,
0.109863,0.444031,
0.143433,0.415039,
0.166321,0.350952,
0.190735,0.358582,
0.209045,0.395203,
0.22583,0.439453,
0.236511,0.40741,
0.247192,0.3479,
0.248718,0.363159,
0.250244,0.404358,
0.244141,0.436401,
0.234985,0.410461,
0.221252,0.346375,
0.20752,0.366211,
0.187683,0.393677,
0.164795,0.440979,
0.143433,0.415039,
0.119019,0.349426,
0.088501,0.424194,
0.0640869,0.392151,
0.0366211,0.440979,
0.00610352,0.428772,
-0.0289917,0.344849,
-0.062561,0.357056,
-0.0900269,0.395203,
-0.12207,0.437927,
-0.158691,0.389099,
-0.190735,0.346375,
-0.22583,0.370789,
-0.257874,0.396729,
-0.285339,0.436401,
-0.315857,0.415039,
-0.340271,0.349426,
-0.363159,0.37384,
-0.38147,0.376892,
-0.393677,0.427246,
-0.404358,0.415039,
-0.416565,0.3479,
-0.42572,0.367737,
-0.428772,0.390625,
-0.431824,0.43335,
-0.430298,0.39978,
-0.430298,0.317383,
-0.430298,0.366211,
-0.424194,0.396729,
-0.416565,0.444031,
-0.408936,0.416565,
-0.395203,0.352478,
-0.390625,0.363159,
-0.375366,0.395203,
-0.360107,0.434875,
-0.3479,0.416565,
-0.332642,0.338745,
-0.320435,0.358582,
-0.306702,0.401306,
-0.296021,0.428772,
-0.283813,0.418091,
-0.273132,0.344849,
-0.265503,0.363159,
-0.257874,0.39978,
-0.245667,0.434875,
-0.244141,0.421143,
-0.239563,0.346375,
-0.238037,0.357056,
-0.239563,0.395203,
-0.244141,0.436401,
-0.244141,0.416565,
-0.244141,0.344849,
-0.245667,0.341797,
-0.248718,0.396729,
-0.244141,0.436401,
-0.250244,0.418091,
-0.253296,0.350952,
-0.257874,0.354004,
-0.260925,0.393677,
-0.268555,0.436401,
-0.27771,0.424194,
-0.285339,0.344849,
-0.296021,0.354004,
-0.305176,0.393677,
-0.323486,0.436401,
-0.335693,0.42572,
-0.35553,0.344849,
-0.372314,0.354004,
-0.392151,0.390625,
-0.408936,0.439453,
-0.427246,0.480652,
-0.45166,0.346375,
-0.476074,0.357056,
-0.502014,0.393677,
-0.527954,0.436401,
-0.553894,0.408936,
-0.576782,0.35553,
-0.601196,0.350952,
-0.624084,0.396729,
-0.643921,0.439453,
-0.668335,0.421143,
-0.692749,0.344849,
-0.720215,0.350952,
-0.743103,0.40741,
-0.761414,0.440979,
-0.78125,0.419617,
-0.808716,0.350952,
-0.83313,0.350952,
-0.862122,0.396729,
-0.880432,0.439453,
-0.904846,0.419617,
-0.924683,0.349426,
-0.950623,0.349426,
-0.973511,0.396729,
-0.999451,0.436401,
-1.02539,0.422668,
-1.05286,0.3479,
-1.0788,0.334167,
-1.10474,0.401306,
-1.1261,0.437927,
-1.15204,0.416565,
-1.17645,0.325012,
-1.20087,0.315857,
-1.22528,0.393677,
-1.24969,0.439453,
-1.27106,0.419617,
-1.30005,0.3479,
-1.32294,0.357056,
-1.3443,0.395203,
-1.36261,0.405884,
-1.38092,0.416565,
-1.39923,0.349426,
-1.41602,0.354004,
-1.4389,0.395203,
-1.45416,0.439453,
-1.46332,0.418091,
-1.48163,0.344849,
-1.49231,0.369263,
-1.50452,0.395203,
-1.51978,0.434875,
-1.53046,0.424194,
-1.54266,0.340271,
-1.55792,0.357056,
-1.57013,0.395203,
-1.58844,0.422668,
-1.59454,0.418091,
-1.60828,0.349426,
-1.61896,0.349426,
-1.63269,0.396729,
-1.64185,0.440979,
-1.65253,0.421143,
-1.66321,0.350952,
-1.67694,0.357056,
-1.69067,0.39978,
-1.70288,0.421143,
-1.71204,0.421143,
-1.73035,0.352478,
-1.74561,0.350952,
-1.75629,0.393677,
-1.77307,0.437927,
-1.78528,0.419617,
-1.80359,0.343323,
-1.82037,0.408936,
-1.83563,0.395203,
-1.84937,0.437927,
-1.86462,0.418091,
-1.88446,0.35553,
-1.90582,0.350952,
-1.92108,0.392151,
-1.93787,0.437927,
-1.95618,0.431824,
-1.97601,0.349426,
-1.99738,0.3479,
-2.01721,0.39978,
-2.04163,0.43335,
-2.05841,0.421143,
-2.07672,0.35553,
-2.09656,0.341797,
-2.11639,0.390625,
-2.13318,0.434875,
-2.14691,0.419617,
-2.16064,0.35553,
-2.1637,0.346375,
-2.15607,0.393677,
-2.14081,0.434875,
-2.11182,0.419617,
-2.06757,0.352478,
-2.01416,0.3479,
-1.94855,0.395203,
-1.87836,0.436401,
-1.79291,0.421143,
-1.70288,0.352478,
-1.61438,0.3479,
-1.51825,0.396729,
-1.42212,0.43335,
-1.32141,0.419617,
-1.21765,0.35553,
-1.11694,0.350952,
-1.01624,0.393677,
-0.907898,0.427246,
-0.80719,0.431824,
-0.698853,0.35553,
-0.595093,0.3479,
-0.494385,0.408936,
-0.393677,0.427246,
-0.291443,0.419617,
-0.190735,0.358582,
-0.088501,0.3479,
0.00305176,0.396729,
0.088501,0.422668,
0.175476,0.419617,
0.25177,0.3479,
0.328064,0.32959,
0.386047,0.396729,
0.450134,0.434875,
0.505066,0.418091,
0.556946,0.3479,
0.59967,0.346375,
0.63324,0.396729,
0.671387,0.421143,
0.694275,0.418091,
0.712585,0.361633,
0.727844,0.344849,
0.738525,0.396729,
0.740051,0.42572,
0.741577,0.416565,
0.743103,0.357056,
0.737,0.343323,
0.726318,0.392151,
0.714111,0.427246,
0.698853,0.431824,
0.688171,0.361633,
0.668335,0.332642,
0.643921,0.401306,
0.624084,0.422668,
0.59967,0.418091,
0.572205,0.363159,
0.537109,0.344849,
0.50354,0.396729,
0.471497,0.405884,
0.434875,0.379944,
0.395203,0.361633,
0.354004,0.3479,
0.315857,0.396729,
0.271606,0.424194,
0.233459,0.415039,
0.196838,0.366211,
0.15564,0.344849,
0.120544,0.396729,
0.0900269,0.422668,
0.0595093,0.411987,
0.0350952,0.367737,
0.012207,0.357056,
-0.00915527,0.401306,
-0.0244141,0.421143,
-0.0411987,0.413513,
-0.0534058,0.360107,
-0.0579834,0.352478,
-0.0595093,0.404358,
-0.0595093,0.422668,
-0.0488281,0.411987,
-0.050354,0.372314,
-0.0457764,0.344849,
-0.038147,0.39978,
-0.0274658,0.402832,
-0.0213623,0.410461,
-0.0198364,0.366211,
-0.0167847,0.341797,
-0.0137329,0.37384,
-0.00610352,0.416565,
0.00457764,0.411987,
0.0137329,0.367737,
0.0244141,0.344849,
0.0305176,0.402832,
0.038147,0.419617,
0.0457764,0.40741,
0.0534058,0.411987,
0.0564575,0.340271,
0.0579834,0.39978,
0.0564575,0.421143,
0.0595093,0.389099,
0.0579834,0.369263,
0.0534058,0.341797,
0.0534058,0.396729,
0.0488281,0.421143,
0.038147,0.40741,
0.0305176,0.369263,
0.0198364,0.341797,
0.00610352,0.396729,
-0.00762939,0.421143,
-0.0198364,0.405884,
-0.0320435,0.370789,
-0.0457764,0.344849,
-0.0579834,0.395203,
-0.0778198,0.418091,
-0.0946045,0.40741,
-0.114441,0.384521,
-0.132751,0.361633,
-0.151062,0.396729,
-0.177002,0.379944,
-0.195313,0.401306,
-0.222778,0.37384,
-0.250244,0.341797,
-0.273132,0.395203,
-0.297546,0.416565,
-0.325012,0.386047,
-0.349426,0.378418,
-0.379944,0.344849,
-0.405884,0.39978,
-0.436401,0.415039,
-0.463867,0.410461,
-0.492859,0.376892,
-0.521851,0.3479,
-0.552368,0.395203,
-0.575256,0.416565,
-0.604248,0.39978,
-0.631714,0.376892,
-0.65918,0.346375,
-0.68512,0.392151,
-0.712585,0.415039,
-0.738525,0.396729,
-0.765991,0.37384,
-0.796509,0.343323,
-0.827026,0.390625,
-0.854492,0.415039,
-0.883484,0.401306,
-0.917053,0.378418,
-0.947571,0.343323,
-0.98114,0.401306,
-1.01166,0.413513,
-1.04065,0.396729,
-1.07117,0.375366,
-1.09711,0.343323,
-1.1261,0.392151,
-1.15051,0.411987,
-1.17798,0.396729,
-1.20544,0.375366,
-1.23138,0.344849,
-1.2619,0.393677,
-1.29242,0.408936,
-1.32141,0.39978,
-1.3504,0.382996,
-1.37482,0.346375,
-1.39771,0.384521,
-1.42059,0.408936,
-1.44043,0.375366,
-1.46637,0.376892,
-1.48315,0.328064,
-1.50604,0.392151,
-1.52283,0.413513,
-1.54266,0.393677,
-1.56097,0.38147,
-1.57776,0.346375,
-1.59607,0.442505,
-1.61133,0.421143,
-1.62659,0.39978,
-1.64185,0.37384,
-1.66016,0.344849,
-1.67694,0.387573,
-1.69525,0.413513,
-1.70898,0.393677,
-1.72424,0.375366,
-1.73645,0.343323,
-1.75934,0.392151,
-1.77612,0.415039,
-1.79901,0.393677,
-1.81122,0.376892,
-1.83105,0.344849,
-1.85242,0.392151,
-1.86768,0.411987,
-1.88751,0.389099,
-1.90582,0.378418,
-1.92413,0.349426,
-1.94244,0.390625,
-1.96686,0.410461,
-1.98517,0.393677,
-2.00348,0.372314,
-2.02484,0.343323,
-2.05231,0.389099,
-2.07825,0.413513,
-2.09656,0.413513,
-2.12097,0.387573,
-2.14691,0.343323,
-2.17285,0.396729,
-2.19269,0.411987,
-2.21863,0.393677,
-2.24152,0.376892,
-2.2583,0.323486,
-2.27509,0.386047,
-2.28424,0.40741,
-2.28424,0.393677,
-2.28119,0.378418,
-2.26135,0.346375,
-2.23694,0.384521,
-2.19574,0.405884,
-2.14996,0.39978,
-2.09503,0.37384,
-2.03247,0.346375,
-1.96533,0.384521,
-1.88599,0.416565,
-1.80664,0.395203,
-1.72272,0.375366,
-1.62811,0.344849,
-1.53503,0.382996,
-1.43585,0.411987,
-1.3382,0.392151,
-1.23596,0.37384,
-1.13983,0.341797,
-1.03912,0.382996,
-0.933838,0.410461,
-0.831604,0.392151,
-0.727844,0.376892,
-0.628662,0.344849,
-0.526428,0.38147,
-0.430298,0.411987,
-0.338745,0.393677,
-0.250244,0.370789,
-0.169373,0.344849,
-0.0915527,0.378418,
-0.0213623,0.415039,
0.0473022,0.387573,
0.105286,0.346375,
0.15564,0.344849,
0.202942,0.375366,
0.241089,0.411987,
0.270081,0.39978,
0.292969,0.372314,
0.315857,0.340271,
0.32959,0.375366,
0.335693,0.434875,
0.346375,0.395203,
0.346375,0.375366,
0.341797,0.360107,
0.334167,0.38147,
0.318909,0.410461,
0.302124,0.401306,
0.282288,0.361633,
0.257874,0.346375,
0.231934,0.37384,
0.210571,0.40741,
0.183105,0.40741,
0.149536,0.37384,
0.12207,0.349426,
0.0869751,0.372314,
0.050354,0.408936,
0.0152588,0.402832,
-0.0259399,0.370789,
-0.0656128,0.349426,
-0.105286,0.37384,
-0.14801,0.411987,
-0.187683,0.404358,
-0.228882,0.369263,
-0.271606,0.349426,
-0.317383,0.370789,
-0.35553,0.411987,
-0.395203,0.405884,
-0.430298,0.372314,
-0.462341,0.349426,
-0.495911,0.370789,
-0.520325,0.410461,
-0.544739,0.402832,
-0.566101,0.375366,
-0.58136,0.346375,
-0.595093,0.367737,
-0.610352,0.413513,
-0.617981,0.405884,
-0.627136,0.37384,
-0.630188,0.346375,
-0.63324,0.370789,
-0.634766,0.413513,
-0.628662,0.40741,
-0.621033,0.384521,
-0.613403,0.344849,
-0.602722,0.367737,
-0.595093,0.411987,
-0.587463,0.405884,
-0.570679,0.375366,
-0.561523,0.344849,
-0.552368,0.370789,
-0.544739,0.411987,
-0.535583,0.408936,
-0.526428,0.375366,
-0.514221,0.346375,
-0.506592,0.369263,
-0.498962,0.460815,
-0.494385,0.40741,
-0.483704,0.372314,
-0.480652,0.344849,
-0.474548,0.367737,
-0.473022,0.408936,
-0.471497,0.408936,
-0.474548,0.375366,
-0.476074,0.340271,
-0.479126,0.366211,
-0.483704,0.408936,
-0.491333,0.408936,
-0.497437,0.370789,
-0.512695,0.343323,
-0.526428,0.361633,
-0.540161,0.40741,
-0.553894,0.413513,
-0.567627,0.372314,
-0.585938,0.343323,
-0.604248,0.369263,
-0.62561,0.413513,
-0.643921,0.410461,
-0.666809,0.382996,
-0.692749,0.341797,
-0.717163,0.369263,
-0.743103,0.402832,
-0.769043,0.413513,
-0.798035,0.350952,
-0.823975,0.343323,
-0.854492,0.363159,
-0.881958,0.408936,
-0.917053,0.411987,
-0.946045,0.366211,
-0.985718,0.369263,
-1.01929,0.360107,
-1.05133,0.410461,
-1.08337,0.413513,
-1.12,0.370789,
-1.15509,0.346375,
-1.18866,0.361633,
-1.21918,0.415039,
-1.25122,0.411987,
-1.27563,0.37384,
-1.3092,0.346375,
-1.33667,0.361633,
-1.36261,0.413513,
-1.39008,0.416565,
-1.41754,0.375366,
-1.44348,0.3479,
-1.46942,0.352478,
-1.49536,0.413513,
-1.51215,0.415039,
-1.53961,0.369263,
-1.56555,0.346375,
-1.59149,0.375366,
-1.61133,0.418091,
-1.63727,0.416565,
-1.66016,0.370789,
-1.67999,0.3479,
-1.70593,0.360107,
-1.72882,0.410461,
-1.74866,0.419617,
-1.76849,0.37384,
-1.78986,0.349426,
-1.80969,0.358582,
-1.82648,0.415039,
-1.84479,0.416565,
-1.86615,0.37384,
-1.88446,0.3479,
-1.9043,0.357056,
-1.92261,0.419617,
-1.94397,0.419617,
-1.95923,0.386047,
-1.97754,0.352478,
-1.9928,0.35553,
-2.00958,0.421143,
-2.02789,0.421143,
-2.05078,0.37384,
-2.07062,0.349426,
-2.08893,0.341797,
-2.10419,0.422668,
-2.12555,0.419617,
-2.14233,0.37384,
-2.15454,0.352478,
-2.1759,0.354004,
-2.19574,0.418091,
-2.21405,0.419617,
-2.23389,0.37384,
-2.25067,0.352478,
-2.26593,0.360107,
-2.28271,0.416565,
-2.29492,0.416565,
-2.31171,0.375366,
-2.33154,0.349426,
-2.34985,0.358582,
-2.36664,0.418091,
-2.38647,0.422668,
-2.40631,0.384521,
-2.42462,0.350952,
-2.44598,0.358582,
-2.4704,0.415039,
-2.49176,0.421143,
-2.51617,0.369263,
-2.53754,0.340271,
-2.565,0.357056,
-2.58331,0.411987,
-2.6062,0.422668,
-2.62909,0.37384,
-2.64893,0.352478,
-2.67181,0.358582,
-2.69318,0.415039,
-2.70844,0.424194,
-2.73285,0.376892,
-2.74963,0.350952,
-2.77405,0.361633,
-2.79236,0.418091,
-2.81372,0.42572,
-2.82898,0.375366,
-2.83813,0.354004,
-2.84424,0.358582,
-2.83966,0.415039,
-2.8183,0.422668,
-2.79083,0.375366,
-2.74658,0.350952,
-2.6947,0.361633,
-2.62756,0.418091,
-2.5528,0.42572,
-2.46887,0.378418,
-2.38342,0.3479,
-2.28729,0.357056,
-2.18658,0.418091,
-2.08588,0.427246,
-1.98059,0.379944,
-1.87378,0.350952,
-1.76239,0.360107,
-1.65558,0.419617,
-1.54114,0.42572,
-1.42822,0.375366,
-1.31226,0.349426,
-1.19476,0.357056,
-1.08337,0.418091,
-0.968933,0.428772,
-0.85907,0.376892,
-0.750732,0.350952,
-0.645447,0.357056,
-0.541687,0.416565,
-0.442505,0.42572,
-0.35553,0.376892,
-0.263977,0.350952,
-0.183105,0.358582,
-0.109863,0.415039,
-0.038147,0.42572,
0.0213623,0.378418,
0.0793457,0.352478,
0.1297,0.358582,
0.169373,0.410461,
0.209045,0.42572,
0.233459,0.376892,
0.256348,0.349426,
0.271606,0.358582,
0.288391,0.411987,
0.292969,0.440979,
0.294495,0.379944,
0.292969,0.352478,
0.285339,0.358582,
0.273132,0.413513,
0.262451,0.436401,
0.244141,0.386047,
0.227356,0.354004,
0.20752,0.357056,
0.186157,0.416565,
0.163269,0.424194,
0.143433,0.378418,
0.117493,0.350952,
0.0900269,0.372314,
0.0595093,0.413513,
0.0244141,0.428772,
-0.00610352,0.379944,
-0.038147,0.350952,
-0.0717163,0.358582,
-0.106812,0.418091,
-0.144958,0.428772,
-0.18158,0.379944,
-0.219727,0.349426,
-0.256348,0.360107,
-0.289917,0.408936,
-0.326538,0.427246,
-0.358582,0.38147,
-0.386047,0.350952,
-0.408936,0.363159,
-0.43335,0.413513,
-0.45929,0.431824,
-0.474548,0.350952,
-0.492859,0.349426,
-0.509644,0.360107,
-0.520325,0.415039,
-0.524902,0.431824,
-0.532532,0.378418,
-0.534058,0.350952,
-0.532532,0.363159,
-0.531006,0.413513,
-0.52948,0.427246,
-0.523376,0.376892,
-0.517273,0.344849,
-0.509644,0.366211,
-0.498962,0.413513,
-0.491333,0.427246,
-0.4776,0.379944,
-0.469971,0.3479,
-0.462341,0.366211,
-0.448608,0.416565,
-0.436401,0.427246,
-0.427246,0.382996,
-0.421143,0.3479,
-0.411987,0.363159,
-0.408936,0.415039,
-0.404358,0.428772,
-0.395203,0.379944,
-0.393677,0.349426,
-0.392151,0.363159,
-0.390625,0.413513,
-0.387573,0.42572,
-0.387573,0.38147,
-0.389099,0.350952,
-0.39978,0.363159,
-0.404358,0.413513,
-0.411987,0.427246,
-0.421143,0.379944,
-0.427246,0.352478,
-0.439453,0.360107,
-0.45166,0.416565,
-0.463867,0.42572,
-0.479126,0.378418,
-0.494385,0.349426,
-0.518799,0.363159,
-0.532532,0.415039,
-0.552368,0.427246,
-0.576782,0.349426,
-0.601196,0.349426,
-0.622559,0.363159,
-0.65155,0.419617,
-0.67749,0.422668,
-0.700378,0.395203,
-0.727844,0.358582,
-0.750732,0.363159,
-0.773621,0.405884,
-0.804138,0.427246,
-0.834656,0.378418,
-0.857544,0.349426,
-0.895691,0.370789,
-0.921631,0.424194,
-0.949097,0.45929,
-0.982666,0.401306,
-1.01318,0.3479,
-1.04523,0.366211,
-1.07727,0.419617,
-1.11694,0.43335,
-1.14594,0.387573,
-1.17798,0.350952,
-1.2085,0.411987,
-1.23596,0.411987,
-1.26801,0.427246,
-1.297,0.378418,
-1.32751,0.349426,
-1.35803,0.361633,
-1.39008,0.408936,
-1.41754,0.43335,
-1.44958,0.384521,
-1.47552,0.349426,
-1.50146,0.366211,
-1.52893,0.418091,
-1.55792,0.422668,
-1.58386,0.378418,
-1.60522,0.349426,
-1.62964,0.366211,
-1.6571,0.413513,
-1.67694,0.427246,
-1.70135,0.378418,
-1.72577,0.354004,
-1.74713,0.360107,
-1.77155,0.408936,
-1.78528,0.424194,
-1.81122,0.376892,
-1.83258,0.349426,
-1.85089,0.369263,
-1.87378,0.408936,
-1.88751,0.42572,
-1.9043,0.378418,
-1.92261,0.350952,
-1.9455,0.366211,
-1.95923,0.411987,
-1.97754,0.424194,
-1.99127,0.375366,
-2.01263,0.349426,
-2.03247,0.369263,
-2.0462,0.411987,
-2.05994,0.427246,
-2.07977,0.376892,
-2.09961,0.350952,
-2.11792,0.369263,
-2.13013,0.411987,
-2.15149,0.431824,
-2.16522,0.376892,
-2.18353,0.354004,
-2.19574,0.37384,
-2.21252,0.405884,
-2.22626,0.436401,
-2.24457,0.379944,
-2.26135,0.352478,
-2.28271,0.378418,
-2.29645,0.40741,
-2.31476,0.427246,
-2.32849,0.3479,
-2.34833,0.350952,
-2.36359,0.376892,
-2.3819,0.418091,
-2.40173,0.427246,
-2.41852,0.38147,
-2.42767,0.350952,
-2.45209,0.375366,
-2.46582,0.413513,
-2.48566,0.428772,
-2.50244,0.375366,
-2.52075,0.352478,
-2.54059,0.384521,
-2.56042,0.410461,
-2.57721,0.42572,
-2.59857,0.37384,
-2.61841,0.354004,
-2.63672,0.379944,
-2.65808,0.413513,
-2.67792,0.42572,
-2.70233,0.376892,
-2.72675,0.350952,
-2.74963,0.38147,
-2.771,0.413513,
-2.79541,0.431824,
-2.81677,0.37384,
-2.83508,0.3479,
-2.84882,0.382996,
-2.85034,0.410461,
-2.85187,0.378418,
-2.83508,0.369263,
-2.80914,0.3479,
-2.76489,0.379944,
-2.70538,0.413513,
-2.63367,0.427246,
-2.55127,0.37384,
-2.46582,0.349426,
-2.37579,0.392151,
-2.27814,0.410461,
-2.17285,0.419617,
-2.06604,0.375366,
-1.96228,0.3479,
-1.84784,0.363159,
-1.73645,0.410461,
-1.62354,0.428772,
-1.50604,0.372314,
-1.3916,0.346375,
-1.27716,0.384521,
-1.15967,0.418091,
-1.04523,0.424194,
-0.933838,0.375366,
-0.816345,0.343323,
-0.712585,0.384521,
-0.6073,0.39978,
-0.506592,0.389099,
-0.40741,0.369263,
-0.315857,0.352478,
-0.228882,0.366211,
-0.149536,0.40741,
-0.0762939,0.424194,
-0.00610352,0.367737,
0.050354,0.405884,
0.100708,0.38147,
0.14801,0.415039,
0.187683,0.422668,
0.221252,0.37384,
0.244141,0.335693,
0.263977,0.38147,
0.280762,0.413513,
0.285339,0.421143,
0.288391,0.375366,
0.283813,0.343323,
0.27771,0.37384,
0.265503,0.413513,
0.25177,0.418091,
0.231934,0.376892,
0.213623,0.341797,
0.190735,0.38147,
0.166321,0.415039,
0.143433,0.419617,
0.114441,0.379944,
0.0839233,0.340271,
0.050354,0.384521,
0.0137329,0.416565,
-0.0228882,0.419617,
-0.0610352,0.375366,
-0.108337,0.335693,
-0.149536,0.386047,
-0.192261,0.416565,
-0.234985,0.415039,
-0.280762,0.375366,
-0.328064,0.335693,
-0.372314,0.386047,
-0.418091,0.413513,
-0.456238,0.416565,
-0.492859,0.37384,
-0.524902,0.335693,
-0.558472,0.389099,
-0.58136,0.416565,
-0.610352,0.419617,
-0.640869,0.37384,
-0.657654,0.337219,
-0.672913,0.404358,
-0.68512,0.418091,
-0.694275,0.419617,
-0.698853,0.375366,
-0.701904,0.337219,
-0.708008,0.390625,
-0.708008,0.401306,
-0.704956,0.42572,
-0.708008,0.372314,
-0.706482,0.334167,
-0.698853,0.389099,
-0.695801,0.413513,
-0.686646,0.416565,
-0.682068,0.35553,
-0.675964,0.300598,
-0.668335,0.396729,
-0.65918,0.422668,
-0.653076,0.421143,
-0.646973,0.370789,
-0.639343,0.346375,
-0.634766,0.382996,
-0.628662,0.413513,
-0.621033,0.42572,
-0.621033,0.378418,
-0.616455,0.334167,
-0.616455,0.384521,
-0.624084,0.413513,
-0.62561,0.419617,
-0.630188,0.37384,
-0.639343,0.326538,
-0.645447,0.370789,
-0.656128,0.413513,
-0.665283,0.411987,
-0.674438,0.366211,
-0.683594,0.32196,
-0.704956,0.38147,
-0.718689,0.416565,
-0.732422,0.416565,
-0.75531,0.376892,
-0.773621,0.328064,
-0.796509,0.384521,
-0.819397,0.413513,
-0.843811,0.422668,
-0.868225,0.37384,
-0.891113,0.325012,
-0.920105,0.384521,
-0.944519,0.419617,
-0.971985,0.413513,
-0.996399,0.37384,
-1.02234,0.326538,
-1.05286,0.372314,
-1.0788,0.415039,
-1.10779,0.413513,
-1.13831,0.37384,
-1.16577,0.326538,
-1.19781,0.384521,
-1.23138,0.419617,
-1.26495,0.415039,
-1.29547,0.376892,
-1.33057,0.323486,
-1.36414,0.378418,
-1.39923,0.419617,
-1.43433,0.415039,
-1.4679,0.375366,
-1.50146,0.328064,
-1.53503,0.379944,
-1.56708,0.419617,
-1.6037,0.421143,
-1.63269,0.370789,
-1.66779,0.328064,
-1.70135,0.375366,
-1.73035,0.418091,
-1.76392,0.410461,
-1.79443,0.350952,
-1.83105,0.325012,
-1.86615,0.376892,
-1.89667,0.415039,
-1.92719,0.410461,
-1.95465,0.370789,
-1.98364,0.328064,
-2.01111,0.367737,
-2.03247,0.405884,
-2.05383,0.42572,
-2.07977,0.372314,
-2.10571,0.325012,
-2.1286,0.370789,
-2.14691,0.418091,
-2.17133,0.410461,
-2.19269,0.37384,
-2.21405,0.325012,
-2.23389,0.372314,
-2.25525,0.411987,
-2.26746,0.40741,
-2.28729,0.37384,
-2.30255,0.325012,
-2.32544,0.369263,
-2.34222,0.419617,
-2.36206,0.40741,
-2.38342,0.357056,
-2.40326,0.328064,
-2.4231,0.360107,
-2.43988,0.419617,
-2.46124,0.40741,
-2.47803,0.361633,
-2.49634,0.323486,
-2.5177,0.358582,
-2.53448,0.416565,
-2.55737,0.410461,
-2.57263,0.37384,
-2.59094,0.328064,
-2.6123,0.357056,
-2.63367,0.416565,
-2.6535,0.40741,
-2.67792,0.370789,
-2.70081,0.325012,
-2.72217,0.360107,
-2.74353,0.411987,
-2.76642,0.40741,
-2.79388,0.372314,
-2.8183,0.337219,
-2.84424,0.354004,
-2.86713,0.415039,
-2.89459,0.405884,
-2.91748,0.370789,
-2.94495,0.323486,
-2.96631,0.354004,
-2.9892,0.421143,
-3.01514,0.404358,
-3.04108,0.372314,
-3.06854,0.328064,
-3.09753,0.35553,
-3.12195,0.416565,
-3.14484,0.405884,
-3.16467,0.370789,
-3.18146,0.326538,
-3.19061,0.354004,
-3.18909,0.418091,
-3.17078,0.408936,
-3.14484,0.428772,
-3.10364,0.325012,
-3.04718,0.35553,
-2.98309,0.419617,
-2.91443,0.411987,
-2.83813,0.372314,
-2.75574,0.326538,
-2.66876,0.350952,
-2.57721,0.419617,
-2.48413,0.415039,
-2.38953,0.370789,
-2.2934,0.32196,
-2.19269,0.346375,
-2.09198,0.416565,
-1.98822,0.415039,
-1.88904,0.360107,
-1.78528,0.328064,
-1.68915,0.352478,
-1.58997,0.419617,
-1.48926,0.411987,
-1.39618,0.370789,
-1.30157,0.32196,
-1.21765,0.349426,
-1.13068,0.408936,
-1.04828,0.379944,
-0.975037,0.346375,
-0.90332,0.325012,
-0.840759,0.366211,
-0.78125,0.415039,
-0.726318,0.410461,
-0.680542,0.372314,
-0.640869,0.32196,
-0.611877,0.396729,
-0.588989,0.422668,
-0.570679,0.40741,
-0.558472,0.370789,
-0.547791,0.328064,
-0.546265,0.3479,
-0.547791,0.415039,
-0.556946,0.413513,
-0.566101,0.375366,
-0.578308,0.323486,
-0.595093,0.344849,
-0.610352,0.419617,
-0.634766,0.415039,
-0.660706,0.376892,
-0.689697,0.32196,
-0.718689,0.35553,
-0.750732,0.415039,
-0.778198,0.416565,
-0.810242,0.370789,
-0.845337,0.328064,
-0.886536,0.350952,
-0.921631,0.415039,
-0.961304,0.413513,
-1.0025,0.375366,
-1.0437,0.325012,
-1.0849,0.346375,
-1.13068,0.411987,
-1.1734,0.415039,
-1.21765,0.375366,
-1.2558,0.325012,
-1.30157,0.349426,
-1.3382,0.413513,
-1.37939,0.413513,
-1.40533,0.367737,
-1.43738,0.326538,
-1.46637,0.350952,
-1.49231,0.418091,
-1.50757,0.413513,
-1.52588,0.375366,
-1.53961,0.326538,
-1.55182,0.344849,
-1.55792,0.413513,
-1.56097,0.411987,
-1.55792,0.37384,
-1.55792,0.323486,
-1.55487,0.3479,
-1.54572,0.411987,
-1.53809,0.411987,
-1.53198,0.369263,
-1.52588,0.325012,
-1.51978,0.340271,
-1.50909,0.415039,
-1.49841,0.413513,
-1.49078,0.372314,
-1.47705,0.32196,
-1.4679,0.346375,
-1.46027,0.418091,
-1.44958,0.408936,
-1.44043,0.369263,
-1.43127,0.328064,
-1.42059,0.346375,
-1.41602,0.410461,
-1.41754,0.413513,
-1.41296,0.369263,
-1.41449,0.325012,
-1.41602,0.3479,
-1.41602,0.408936,
-1.42212,0.416565,
-1.4267,0.370789,
-1.43738,0.323486,
-1.44043,0.346375,
-1.45416,0.410461,
-1.46484,0.408936,
-1.47705,0.363159,
-1.49384,0.32196,
-1.51062,0.341797,
-1.52588,0.411987,
-1.55029,0.418091,
-1.57318,0.375366,
-1.59302,0.323486,
-1.61743,0.346375,
-1.63574,0.411987,
-1.66321,0.415039,
-1.6861,0.367737,
-1.71051,0.325012,
-1.7395,0.349426,
-1.76849,0.410461,
-1.79291,0.421143,
-1.8158,0.370789,
-1.84631,0.314331,
-1.87378,0.344849,
-1.89667,0.411987,
-1.92413,0.419617,
-1.95618,0.366211,
-1.98059,0.296021,
-2.01416,0.354004,
-2.04468,0.395203,
-2.07214,0.419617,
-2.10266,0.369263,
-2.13013,0.32196,
-2.15302,0.3479,
-2.18811,0.437927,
-2.2171,0.419617,
-2.24915,0.366211,
-2.27661,0.32959,
-2.3056,0.346375,
-2.33154,0.404358,
-2.36359,0.421143,
-2.3941,0.360107,
-2.42462,0.325012,
-2.45056,0.344849,
-2.48108,0.405884,
-2.50549,0.413513,
-2.53448,0.367737,
-2.55737,0.325012,
-2.58484,0.344849,
-2.6123,0.384521,
-2.6413,0.401306,
-2.66571,0.326538,
-2.69165,0.328064,
-2.71301,0.3479,
-2.74048,0.404358,
-2.76031,0.419617,
-2.78778,0.367737,
-2.81067,0.328064,
-2.83051,0.387573,
-2.85034,0.416565,
-2.8717,0.418091,
-2.89154,0.363159,
-2.90833,0.334167,
-2.93274,0.349426,
-2.94952,0.39978,
-2.96936,0.418091,
-2.99072,0.411987,
-3.00903,0.335693,
-3.02124,0.35553,
-3.03955,0.405884,
-3.05634,0.422668,
-3.07007,0.366211,
-3.0899,0.335693,
-3.10822,0.350952,
-3.12195,0.401306,
-3.14178,0.422668,
-3.1601,0.369263,
-3.17841,0.332642,
-3.19977,0.3479,
-3.2196,0.39978,
-3.23334,0.424194,
-3.2486,0.366211,
-3.26233,0.335693,
-3.28064,0.3479,
-3.29285,0.39978,
-3.30963,0.427246,
-3.32642,0.37384,
-3.34167,0.337219,
-3.35846,0.352478,
-3.37524,0.402832,
-3.39203,0.411987,
-3.40729,0.366211,
-3.42407,0.334167,
-3.44543,0.350952,
-3.46527,0.45166,
-3.48358,0.415039,
-3.50189,0.367737,
-3.52478,0.332642,
-3.54462,0.350952,
-3.56598,0.395203,
-3.58429,0.42572,
-3.60565,0.366211,
-3.62854,0.340271,
-3.65143,0.349426,
-3.67126,0.395203,
-3.6911,0.413513,
-3.71094,0.367737,
-3.73077,0.337219,
-3.74603,0.350952,
-3.7674,0.396729,
-3.77808,0.42572,
-3.78113,0.369263,
-3.78113,0.338745,
-3.76892,0.349426,
-3.73688,0.39978,
-3.6972,0.424194,
-3.63617,0.363159,
-3.56598,0.337219,
-3.48969,0.352478,
-3.40271,0.396729,
-3.30658,0.421143,
-3.2074,0.361633,
-3.11127,0.343323,
-3.01208,0.372314,
-2.90833,0.395203,
-2.79999,0.424194,
-2.69165,0.367737,
-2.58636,0.338745,
-2.47955,0.35553,
-2.37427,0.393677,
-2.26593,0.413513,
-2.16217,0.363159,
-2.05994,0.340271,
-1.9577,0.35553,
-1.85852,0.392151,
-1.75781,0.416565,
-1.66473,0.363159,
-1.57166,0.350952,
-1.48468,0.37384,
-1.39923,0.39978,
-1.32294,0.418091,
-1.24817,0.361633,
-1.18256,0.341797,
-1.12152,0.363159,
-1.06812,0.390625,
-1.01929,0.422668,
-0.976563,0.366211,
-0.939941,0.343323,
-0.907898,0.363159,
-0.88501,0.376892,
-0.866699,0.402832,
-0.854492,0.37384,
-0.842285,0.340271,
-0.836182,0.363159,
-0.837708,0.387573,
-0.839233,0.416565,
-0.848389,0.366211,
-0.863647,0.341797,
-0.875854,0.361633,
-0.889587,0.387573,
-0.912476,0.418091,
-0.932312,0.366211,
-0.953674,0.344849,
-0.979614,0.367737,
-1.00708,0.386047,
-1.02692,0.42572,
-1.05743,0.366211,
-1.091,0.350952,
-1.12305,0.363159,
-1.15662,0.382996,
-1.18408,0.416565,
-1.21918,0.363159,
-1.25122,0.340271,
-1.28784,0.360107,
-1.31836,0.389099,
-1.35803,0.418091,
-1.39313,0.369263,
-1.42975,0.3479,
-1.46484,0.370789,
-1.49841,0.386047,
-1.5213,0.421143,
-1.54877,0.370789,
-1.5686,0.349426,
-1.58997,0.370789,
-1.60522,0.390625,
-1.62201,0.418091,
-1.62659,0.370789,
-1.63422,0.3479,
-1.63574,0.363159,
-1.63727,0.382996,
-1.64185,0.416565,
-1.63879,0.370789,
-1.63574,0.346375,
-1.63116,0.366211,
-1.62201,0.386047,
-1.61285,0.419617,
-1.60065,0.37384,
-1.58997,0.3479,
-1.57776,0.361633,
-1.5686,0.387573,
-1.55792,0.408936,
-1.54877,0.38147,
-1.53656,0.346375,
-1.5274,0.361633,
-1.5152,0.387573,
-1.50299,0.418091,
-1.49536,0.375366,
-1.48621,0.346375,
-1.48163,0.366211,
-1.47705,0.386047,
-1.4801,0.42572,
-1.47705,0.37384,
-1.47705,0.350952,
-1.48163,0.370789,
-1.48315,0.386047,
-1.48621,0.419617,
-1.49384,0.37384,
-1.50146,0.3479,
-1.50604,0.367737,
-1.5152,0.386047,
-1.52283,0.416565,
-1.53046,0.369263,
-1.53809,0.35553,
-1.55182,0.369263,
-1.56708,0.396729,
-1.58844,0.421143,
-1.6098,0.375366,
-1.62811,0.350952,
-1.65405,0.363159,
-1.67389,0.389099,
-1.70135,0.419617,
-1.72882,0.375366,
-1.75476,0.350952,
-1.77917,0.367737,
-1.81122,0.386047,
-1.83716,0.419617,
-1.86768,0.378418,
-1.89819,0.346375,
-1.93024,0.363159,
-1.9577,0.384521,
-1.98364,0.418091,
-2.01721,0.378418,
-2.04926,0.349426,
-2.07825,0.369263,
-2.10724,0.386047,
-2.14081,0.416565,
-2.1698,0.379944,
-2.19727,0.357056,
-2.22931,0.375366,
-2.2583,0.436401,
-2.28424,0.419617,
-2.31171,0.38147,
-2.34222,0.350952,
-2.36664,0.363159,
-2.39716,0.384521,
-2.4231,0.393677,
-2.45514,0.386047,
-2.48413,0.346375,
-2.5116,0.363159,
-2.53754,0.386047,
-2.56195,0.413513,
-2.58789,0.386047,
-2.61078,0.346375,
-2.63672,0.367737,
-2.66266,0.424194,
-2.68097,0.402832,
-2.70081,0.38147,
-2.72675,0.344849,
-2.75421,0.363159,
-2.77557,0.389099,
-2.79541,0.415039,
-2.81372,0.386047,
-2.84119,0.3479,
-2.85645,0.361633,
-2.87323,0.386047,
-2.89154,0.416565,
-2.90833,0.387573,
-2.92816,0.3479,
-2.94952,0.361633,
-2.96326,0.386047,
-2.98004,0.415039,
-2.99835,0.389099,
-3.01208,0.346375,
-3.02887,0.360107,
-3.04413,0.392151,
-3.05634,0.415039,
-3.06854,0.390625,
-3.07617,0.346375,
-3.09296,0.357056,
-3.10669,0.390625,
-3.12195,0.413513,
-3.13263,0.392151,
-3.14484,0.344849,
-3.15399,0.360107,
-3.16925,0.387573,
-3.18146,0.415039,
-3.19366,0.390625,
-3.21045,0.343323,
-3.22723,0.360107,
-3.23944,0.384521,
-3.25317,0.416565,
-3.26996,0.392151,
-3.28674,0.3479,
-3.30505,0.358582,
-3.31573,0.387573,
-3.32642,0.416565,
-3.34015,0.393677,
-3.35083,0.344849,
-3.36609,0.361633,
-3.38135,0.387573,
-3.39661,0.413513,
-3.41187,0.393677,
-3.42712,0.320435,
-3.44543,0.35553,
-3.46527,0.396729,
-3.48358,0.416565,
-3.49884,0.390625,
-3.5202,0.344849,
-3.54309,0.35553,
-3.56598,0.387573,
-3.59039,0.402832,
-3.61481,0.396729,
-3.63312,0.344849,
-3.66058,0.35553,
-3.67737,0.392151,
-3.70026,0.416565,
-3.72009,0.39978,
-3.7384,0.344849,
-3.75824,0.35553,
-3.7796,0.387573,
-3.78876,0.416565,
-3.79333,0.393677,
-3.78876,0.352478,
-3.78418,0.357056,
-3.75671,0.386047,
-3.71246,0.415039,
-3.65753,0.395203,
-3.58887,0.3479,
-3.508,0.35553,
-3.41492,0.379944,
-3.31421,0.415039,
-3.20892,0.39978,
-3.10516,0.350952,
-2.99683,0.354004,
-2.89154,0.386047,
-2.78168,0.416565,
-2.67334,0.401306,
-2.56958,0.3479,
-2.46582,0.35553,
-2.36511,0.387573,
-2.26288,0.413513,
-2.16217,0.39978,
-2.05994,0.3479,
-1.96381,0.352478,
-1.86615,0.386047,
-1.77765,0.415039,
-1.68762,0.402832,
-1.59912,0.341797,
-1.51672,0.350952,
-1.44196,0.389099,
-1.36261,0.413513,
-1.29395,0.378418,
-1.22833,0.354004,
-1.17035,0.354004,
-1.11389,0.367737,
-1.06964,0.415039,
-1.01929,0.404358,
-0.982666,0.343323,
-0.9552,0.3479,
-0.933838,0.37384,
-0.909424,0.419617,
-0.891113,0.404358,
-0.883484,0.341797,
-0.874329,0.354004,
-0.874329,0.390625,
-0.872803,0.410461,
-0.87738,0.37384,
-0.883484,0.354004,
-0.897217,0.352478,
-0.907898,0.387573,
-0.923157,0.410461,
-0.947571,0.402832,
-0.971985,0.341797,
-0.999451,0.349426,
-1.02844,0.386047,
-1.05896,0.408936,
-1.08948,0.402832,
-1.12,0.338745,
-1.15509,0.350952,
-1.19019,0.389099,
-1.22986,0.404358,
-1.26648,0.401306,
-1.30157,0.323486,
-1.3443,0.350952,
-1.38702,0.395203,
-1.42517,0.408936,
-1.46484,0.405884,
-1.50299,0.341797,
-1.53961,0.350952,
-1.57166,0.370789,
-1.60522,0.416565,
-1.63574,0.404358,
-1.66016,0.338745,
-1.68915,0.3479,
-1.70746,0.392151,
-1.72272,0.40741,
-1.73645,0.402832,
-1.74561,0.338745,
-1.74408,0.352478,
-1.74255,0.387573,
-1.7395,0.405884,
-1.73492,0.402832,
-1.72729,0.338745,
-1.71509,0.346375,
-1.70593,0.386047,
-1.69678,0.404358,
-1.67847,0.401306,
-1.66321,0.343323,
-1.6449,0.346375,
-1.62811,0.372314,
-1.61285,0.405884,
-1.59302,0.404358,
-1.57318,0.343323,
-1.5564,0.344849,
-1.53656,0.390625,
-1.5213,0.405884,
-1.50604,0.39978,
-1.49078,0.35553,
-1.4801,0.343323,
-1.4679,0.382996,
-1.45721,0.408936,
-1.44348,0.404358,
-1.43738,0.341797,
-1.43433,0.3479,
-1.4328,0.384521,
-1.4267,0.401306,
-1.42822,0.404358,
-1.43127,0.340271,
-1.43127,0.343323,
-1.43585,0.38147,
-1.44196,0.40741,
-1.45111,0.392151,
-1.45721,0.337219,
-1.46942,0.332642,
-1.48621,0.387573,
-1.50146,0.404358,
-1.51978,0.363159,
-1.53809,0.338745,
-1.55945,0.350952,
-1.57776,0.379944,
-1.60065,0.40741,
-1.62659,0.40741,
-1.6449,0.318909,
-1.66473,0.393677,
-1.68915,0.393677,
-1.71204,0.405884,
-1.73798,0.401306,
-1.76544,0.338745,
-1.7868,0.344849,
-1.81427,0.384521,
-1.84479,0.405884,
-1.86768,0.404358,
-1.88904,0.338745,
-1.91956,0.338745,
-1.9455,0.384521,
-1.96838,0.404358,
-1.98822,0.39978,
-2.01416,0.340271,
-2.04315,0.340271,
-2.07214,0.384521,
-2.09961,0.404358,
-2.1225,0.402832,
-2.15149,0.340271,
-2.1759,0.343323,
-2.20795,0.38147,
-2.23846,0.40741,
-2.26288,0.402832,
-2.2934,0.335693,
-2.32391,0.343323,
-2.34528,0.375366,
-2.37579,0.40741,
-2.40021,0.405884,
-2.43073,0.341797,
-2.46124,0.340271,
-2.49023,0.378418,
-2.51617,0.404358,
-2.54211,0.402832,
-2.56958,0.343323,
-2.59247,0.340271,
-2.62146,0.379944,
-2.6413,0.405884,
-2.66571,0.39978,
-2.6886,0.340271,
-2.70996,0.337219,
-2.7298,0.379944,
-2.75269,0.404358,
-2.77557,0.404358,
-2.79541,0.341797,
-2.81219,0.338745,
-2.82898,0.379944,
-2.84271,0.40741,
-2.86255,0.396729,
-2.87476,0.340271,
-2.89307,0.335693,
-2.90527,0.378418,
-2.91901,0.387573,
-2.92816,0.396729,
-2.94342,0.340271,
-2.95258,0.338745,
-2.96631,0.376892,
-2.97852,0.404358,
-2.98615,0.39978,
-2.99988,0.318909,
-3.01208,0.346375,
-3.02734,0.378418,
-3.0426,0.411987,
-3.05481,0.393677,
-3.06854,0.340271,
-3.08075,0.335693,
-3.09906,0.378418,
-3.10822,0.402832,
-3.1189,0.396729,
-3.13721,0.338745,
-3.15399,0.337219,
-3.1662,0.376892,
-3.17993,0.405884,
-3.19214,0.395203,
-3.21045,0.334167,
-3.22876,0.335693,
-3.25012,0.341797,
-3.26385,0.39978,
-3.28217,0.395203,
-3.30505,0.341797,
-3.32031,0.337219,
-3.3432,0.376892,
-3.36304,0.405884,
-3.38287,0.392151,
-3.40729,0.341797,
-3.42865,0.335693,
-3.44696,0.37384,
-3.4668,0.410461,
-3.48663,0.393677,
-3.50037,0.341797,
-3.52478,0.334167,
-3.54462,0.37384,
-3.56293,0.402832,
-3.58124,0.393677,
-3.6026,0.3479,
-3.6087,0.335693,
-3.61481,0.372314,
-3.60107,0.382996,
-3.58124,0.361633,
-3.53699,0.340271,
-3.48206,0.341797,
-3.41644,0.37384,
-3.34167,0.40741,
-3.2547,0.410461,
-3.16467,0.332642,
-3.06549,0.335693,
-2.97089,0.378418,
-2.87476,0.404358,
-2.77863,0.396729,
-2.68555,0.343323,
-2.58942,0.32959,
-2.49329,0.387573,
-2.40021,0.404358,
-2.31171,0.393677,
-2.22015,0.343323,
-2.13318,0.334167,
-2.04773,0.378418,
-1.96533,0.405884,
-1.88446,0.392151,
-1.81122,0.338745,
-1.7395,0.326538,
-1.67389,0.376892,
-1.6098,0.404358,
-1.54877,0.392151,
-1.49078,0.35553,
-1.4389,0.332642,
-1.39008,0.382996,
-1.34735,0.404358,
-1.3092,0.393677,
-1.27716,0.340271,
-1.24359,0.334167,
-1.22375,0.370789,
-1.19934,0.408936,
-1.1795,0.379944,
-1.17188,0.3479,
-1.16272,0.337219,
-1.15967,0.376892,
-1.16119,0.404358,
-1.16119,0.395203,
-1.17493,0.341797,
-1.18408,0.340271,
-1.19476,0.384521,
-1.21002,0.402832,
-1.23138,0.392151,
-1.25885,0.343323,
-1.28021,0.325012,
-1.31226,0.375366,
-1.33972,0.401306,
-1.37329,0.390625,
-1.40686,0.346375,
-1.44196,0.334167,
-1.48315,0.395203,
-1.52588,0.395203,
-1.56708,0.378418,
-1.61438,0.343323,
-1.65863,0.338745,
-1.70288,0.384521,
-1.74713,0.40741,
-1.79291,0.387573,
-1.83563,0.344849,
-1.88141,0.32959,
-1.92413,0.384521,
-1.96838,0.39978,
-2.01263,0.389099,
-2.04926,0.341797,
-2.0813,0.337219,
-2.10876,0.38147,
-2.13318,0.401306,
-2.14996,0.382996,
-2.1637,0.341797,
-2.17896,0.335693,
-2.18506,0.38147,
-2.19269,0.402832,
-2.19269,0.384521,
-2.18964,0.341797,
-2.18506,0.334167,
-2.18201,0.379944,
-2.1698,0.402832,
-2.15759,0.390625,
-2.14386,0.343323,
-2.13318,0.337219,
-2.11792,0.379944,
-2.10114,0.404358,
-2.0874,0.389099,
-2.0752,0.341797,
-2.06451,0.32959,
-2.05078,0.378418,
-2.03857,0.405884,
-2.02789,0.379944,
-2.01874,0.349426,
-2.01111,0.332642,
-2.00195,0.379944,
-1.9928,0.402832,
-1.98975,0.378418,
-1.98669,0.3479,
-1.98364,0.334167,
-1.98059,0.418091,
-1.97906,0.404358,
-1.98364,0.379944,
-1.98669,0.341797,
-2.00043,0.332642,
-2.00958,0.38147,
-2.01721,0.405884,
-2.03094,0.38147,
-2.04315,0.341797,
-2.05688,0.334167,
-2.07672,0.382996,
-2.09198,0.416565,
-2.11029,0.378418,
-2.1347,0.341797,
-2.15302,0.337219,
-2.17896,0.386047,
-2.20337,0.410461,
-2.22473,0.378418,
-2.24762,0.343323,
-2.27356,0.335693,
-2.3056,0.38147,
-2.32391,0.408936,
-2.34833,0.382996,
-2.37427,0.344849,
-2.39716,0.332642,
-2.42767,0.38147,
-2.45209,0.40741,
-2.47955,0.372314,
-2.50549,0.340271,
-2.53143,0.335693,
-2.5589,0.376892,
-2.58636,0.410461,
-2.6123,0.37384,
-2.64587,0.35553,
-2.67639,0.337219,
-2.70081,0.379944,
-2.72369,0.410461,
-2.74658,0.382996,
-2.7771,0.346375,
-2.80304,0.318909,
-2.82898,0.378418,
-2.85492,0.40741,
-2.87781,0.375366,
-2.90527,0.340271,
-2.92816,0.338745,
-2.96021,0.376892,
-2.98309,0.411987,
-3.00903,0.37384,
-3.03497,0.344849,
-3.05939,0.344849,
-3.0838,0.372314,
-3.10669,0.462341,
-3.13263,0.379944,
-3.1601,0.344849,
-3.18146,0.335693,
-3.20435,0.379944,
-3.22723,0.413513,
-3.24402,0.378418,
-3.26996,0.32959,
-3.28827,0.39978,
-3.31268,0.38147,
-3.33405,0.395203,
-3.35693,0.375366,
-3.37524,0.340271,
-3.39661,0.343323,
-3.41492,0.379944,
-3.4317,0.415039,
-3.45001,0.370789,
-3.4668,0.337219,
-3.48358,0.338745,
-3.49731,0.38147,
-3.51105,0.416565,
-3.52478,0.367737,
-3.53241,0.334167,
-3.54919,0.346375,
-3.55682,0.395203,
-3.56903,0.411987,
-3.57513,0.360107,
-3.58429,0.335693,
-3.59497,0.341797,
-3.60107,0.38147,
-3.60565,0.418091,
-3.61633,0.361633,
-3.62854,0.337219,
-3.63617,0.343323,
-3.65448,0.38147,
-3.66364,0.419617,
-3.68042,0.366211,
-3.6911,0.337219,
-3.70789,0.343323,
-3.72467,0.38147,
-3.74146,0.418091,
-3.75977,0.361633,
-3.77655,0.337219,
-3.79486,0.360107,
-3.81775,0.38147,
-3.83453,0.422668,
-3.8559,0.361633,
-3.87421,0.335693,
-3.89557,0.334167,
-3.91541,0.375366,
-3.93524,0.422668,
-3.95508,0.361633,
-3.97491,0.337219,
-3.99475,0.341797,
-4.00543,0.38147,
-4.01459,0.419617,
-4.01611,0.363159,
-4.01154,0.335693,
-3.99628,0.343323,
-3.96729,0.378418,
-3.92456,0.419617,
-3.87421,0.366211,
-3.80554,0.340271,
-3.73535,0.344849,
-3.65753,0.38147,
-3.57056,0.421143,
-3.48511,0.372314,
-3.39203,0.334167,
-3.30353,0.346375,
-3.2074,0.376892,
-3.10669,0.419617,
-3.01056,0.370789,
-2.91138,0.332642,
-2.8183,0.343323,
-2.71912,0.379944,
-2.62909,0.416565,
-2.54211,0.363159,
-2.44598,0.332642,
-2.35596,0.343323,
-2.26593,0.379944,
-2.17896,0.422668,
-2.09656,0.37384,
-2.01721,0.32959,
-1.93939,0.341797,
-1.86768,0.379944,
-1.80054,0.419617,
-1.7395,0.37384,
-1.68152,0.334167,
-1.62964,0.343323,
-1.58386,0.378418,
-1.54266,0.422668,
-1.50452,0.375366,
-1.46942,0.335693,
-1.44196,0.343323,
-1.42059,0.379944,
-1.40533,0.421143,
-1.39313,0.376892,
-1.38397,0.335693,
-1.38397,0.344849,
-1.3855,0.379944,
-1.38855,0.42572,
-1.3916,0.378418,
-1.39923,0.338745,
-1.41296,0.341797,
-1.4267,0.379944,
-1.44348,0.422668,
-1.46332,0.379944,
-1.48773,0.337219,
-1.50757,0.344849,
-1.53961,0.384521,
-1.5686,0.424194,
-1.59912,0.384521,
-1.62659,0.315857,
-1.65863,0.350952,
-1.69067,0.379944,
-1.72272,0.424194,
-1.75476,0.389099,
-1.7868,0.335693,
-1.8219,0.3479,
-1.85852,0.357056,
-1.89362,0.431824,
-1.93176,0.387573,
-1.96381,0.337219,
-1.9989,0.3479,
-2.02789,0.378418,
-2.05841,0.431824,
-2.08435,0.408936,
-2.10724,0.325012,
-2.12402,0.349426,
-2.13928,0.379944,
-2.15149,0.416565,
-2.16064,0.392151,
-2.16522,0.332642,
-2.17438,0.35553,
-2.1759,0.382996,
-2.17896,0.424194,
-2.17743,0.392151,
-2.17896,0.346375,
-2.17285,0.358582,
-2.16522,0.344849,
-2.15607,0.411987,
-2.15149,0.395203,
-2.14386,0.332642,
-2.13623,0.3479,
-2.11945,0.382996,
-2.11029,0.419617,
-2.09656,0.387573,
-2.08588,0.309753,
-2.07825,0.352478,
-2.06146,0.38147,
-2.05383,0.415039,
-2.0462,0.396729,
-2.03857,0.32959,
-2.03247,0.341797,
-2.02332,0.354004,
-2.02026,0.418091,
-2.01569,0.401306,
-2.01569,0.32959,
-2.01416,0.344849,
-2.01263,0.382996,
-2.00958,0.418091,
-2.01263,0.401306,
-2.01263,0.332642,
-2.01416,0.344849,
-2.01721,0.382996,
-2.02484,0.424194,
-2.02789,0.401306,
-2.03552,0.325012,
-2.0462,0.343323,
-2.05383,0.384521,
-2.06451,0.419617,
-2.07672,0.40741,
-2.09045,0.326538,
-2.09961,0.341797,
-2.11182,0.379944,
-2.12708,0.410461,
-2.14233,0.401306,
-2.15912,0.328064,
-2.1759,0.341797,
-2.19269,0.378418,
-2.2171,0.421143,
-2.23999,0.402832,
-2.2644,0.318909,
-2.28729,0.340271,
-2.31171,0.382996,
-2.33917,0.419617,
-2.36053,0.405884,
-2.38647,0.332642,
-2.41241,0.341797,
-2.4353,0.389099,
-2.46124,0.427246,
-2.49023,0.401306,
-2.51617,0.334167,
-2.54364,0.338745,
-2.56653,0.382996,
-2.59705,0.422668,
-2.62299,0.39978,
-2.64587,0.334167,
-2.67334,0.338745,
-2.69928,0.379944,
-2.72217,0.418091,
-2.74963,0.40741,
-2.77252,0.332642,
-2.79999,0.340271,
-2.8244,0.379944,
-2.84576,0.402832,
-2.8717,0.370789,
-2.89764,0.326538,
-2.92358,0.337219,
-2.94189,0.379944,
-2.96478,0.419617,
-2.98615,0.40741,
-3.00751,0.341797,
-3.0304,0.393677,
-3.04413,0.390625,
-3.05939,0.421143,
-3.07617,0.405884,
-3.0899,0.334167,
-3.10669,0.335693,
-3.12195,0.386047,
-3.13721,0.422668,
-3.15094,0.40741,
-3.16162,0.320435,
-3.17688,0.340271,
-3.19061,0.378418,
-3.20587,0.424194,
-3.21503,0.415039,
-3.22571,0.343323,
-3.23944,0.393677,
-3.24707,0.384521,
-3.25928,0.436401,
-3.26843,0.40741,
-3.28369,0.332642,
-3.29437,0.334167,
-3.30353,0.38147,
-3.30963,0.422668,
-3.31879,0.410461,
-3.32947,0.334167,
-3.33862,0.340271,
-3.34625,0.382996,
-3.35388,0.42572,
-3.36456,0.408936,
-3.37524,0.335693,
-3.38898,0.341797,
-3.39966,0.379944,
-3.41644,0.422668,
-3.43323,0.40741,
-3.44696,0.335693,
-3.46832,0.335693,
-3.48358,0.378418,
-3.50037,0.421143,
-3.51868,0.418091,
-3.53851,0.335693,
-3.55682,0.338745,
-3.57208,0.382996,
-3.59192,0.422668,
-3.6087,0.410461,
-3.62854,0.335693,
-3.64227,0.3479,
-3.66058,0.390625,
-3.68042,0.419617,
-3.69415,0.408936,
-3.71094,0.338745,
-3.72467,0.318909,
-3.73535,0.346375,
-3.74603,0.418091,
-3.74451,0.40741,
-3.74146,0.338745,
-3.72314,0.335693,
-3.6911,0.384521,
-3.65295,0.418091,
-3.59802,0.40741,
-3.53851,0.337219,
-3.47748,0.337219,
-3.39813,0.382996,
-3.32184,0.419617,
-3.23792,0.408936,
-3.15399,0.334167,
-3.07007,0.337219,
-2.98309,0.376892,
-2.89612,0.418091,
-2.80609,0.411987,
-2.71759,0.337219,
-2.63062,0.334167,
-2.54211,0.379944,
-2.45209,0.421143,
-2.36053,0.410461,
-2.27203,0.343323,
-2.18201,0.335693,
-2.09198,0.379944,
-1.9989,0.419617,
-1.91345,0.40741,
-1.83411,0.338745,
-1.75934,0.32959,
-1.68304,0.384521,
-1.61896,0.418091,
-1.55029,0.408936,
-1.49384,0.341797,
-1.43738,0.326538,
-1.39313,0.382996,
-1.3504,0.413513,
-1.31531,0.408936,
-1.28174,0.343323,
-1.25275,0.350952,
-1.23444,0.384521,
-1.21765,0.415039,
-1.20544,0.40741,
-1.20239,0.341797,
-1.20087,0.337219,
-1.20544,0.389099,
-1.2085,0.4776,
-1.21613,0.386047,
-1.22986,0.350952,
-1.24512,0.332642,
-1.25885,0.382996,
-1.27411,0.424194,
-1.29089,0.402832,
-1.31226,0.346375,
-1.33514,0.292969,
-1.35956,0.386047,
-1.38397,0.411987,
-1.41296,0.405884,
-1.4389,0.346375,
-1.47095,0.340271,
-1.49841,0.384521,
-1.5274,0.413513,
-1.55487,0.40741,
-1.58691,0.3479,
-1.62048,0.332642,
-1.64948,0.387573,
-1.67999,0.413513,
-1.71661,0.404358,
-1.74713,0.349426,
-1.77917,0.32959,
-1.80817,0.384521,
-1.83258,0.413513,
-1.86005,0.404358,
-1.87531,0.346375,
-1.89667,0.323486,
-1.91345,0.382996,
-1.92413,0.411987,
-1.93481,0.402832,
-1.94244,0.343323,
-1.94244,0.323486,
-1.9455,0.382996,
-1.94244,0.410461,
-1.93939,0.384521,
-1.93481,0.312805,
-1.92871,0.328064,
-1.91956,0.38147,
-1.90582,0.404358,
-1.89362,0.401306,
-1.88599,0.3479,
-1.87683,0.325012,
-1.86768,0.382996,
-1.85547,0.408936,
-1.84937,0.396729,
-1.84479,0.35553,
-1.83716,0.32196,
-1.83258,0.38147,
-1.82648,0.405884,
-1.8158,0.393677,
-1.81274,0.349426,
-1.80817,0.325012,
-1.80969,0.379944,
-1.80511,0.408936,
-1.80054,0.395203,
-1.79443,0.352478,
-1.78986,0.325012,
-1.78986,0.384521,
-1.78223,0.405884,
-1.77917,0.392151,
-1.78223,0.350952,
-1.78375,0.326538,
-1.79138,0.387573,
-1.80054,0.404358,
-1.80511,0.393677,
-1.81732,0.408936,
-1.82495,0.328064,
-1.83716,0.372314,
-1.85242,0.40741,
-1.86768,0.390625,
-1.88293,0.352478,
-1.90277,0.334167,
-1.9165,0.392151,
-1.93176,0.434875,
-1.94855,0.390625,
-1.96991,0.35553,
-1.98822,0.323486,
-2.01111,0.384521,
-2.03094,0.408936,
-2.0462,0.389099,
-2.06757,0.350952,
-2.09045,0.328064,
-2.11334,0.384521,
-2.13776,0.40741,
-2.15607,0.390625,
-2.17896,0.337219,
-2.2049,0.32959,
-2.23083,0.38147,
-2.25372,0.405884,
-2.27509,0.386047,
-2.2995,0.35553,
-2.32239,0.326538,
-2.3468,0.382996,
-2.36511,0.401306,
-2.388,0.387573,
-2.40631,0.366211,
-2.43225,0.338745,
-2.45514,0.382996,
-2.48108,0.411987,
-2.50244,0.390625,
-2.52991,0.35553,
-2.54822,0.332642,
-2.56958,0.382996,
-2.58942,0.395203,
-2.61078,0.357056,
-2.63214,0.346375,
-2.65198,0.334167,
-2.67334,0.379944,
-2.6947,0.401306,
-2.71759,0.382996,
-2.7359,0.360107,
-2.75726,0.326538,
-2.77863,0.375366,
-2.79388,0.396729,
-2.80914,0.395203,
-2.82593,0.361633,
-2.84119,0.32959,
-2.85034,0.378418,
-2.86255,0.402832,
-2.87018,0.386047,
-2.87781,0.358582,
-2.89154,0.332642,
-2.90527,0.387573,
-2.91595,0.404358,
-2.92816,0.382996,
-2.93427,0.357056,
-2.94952,0.32959,
-2.95563,0.378418,
-2.97089,0.395203,
-2.98004,0.382996,
-2.99683,0.3479,
-3.00598,0.334167,
-3.01819,0.376892,
-3.03497,0.395203,
-3.04565,0.38147,
-3.05786,0.358582,
-3.07007,0.32959,
-3.07922,0.387573,
-3.08685,0.393677,
-3.09906,0.384521,
-3.11127,0.357056,
-3.12653,0.332642,
-3.13873,0.378418,
-3.15247,0.395203,
-3.16772,0.382996,
-3.17993,0.358582,
-3.19061,0.332642,
-3.21045,0.376892,
-3.22571,0.389099,
-3.24097,0.379944,
-3.25775,0.352478,
-3.28064,0.328064,
-3.29742,0.361633,
-3.32184,0.392151,
-3.34015,0.372314,
-3.36304,0.358582,
-3.38593,0.325012,
-3.41034,0.375366,
-3.42865,0.39978,
-3.45306,0.375366,
-3.46832,0.338745,
-3.48816,0.325012,
-3.50494,0.375366,
-3.52325,0.396729,
-3.54462,0.382996,
-3.55682,0.358582,
-3.56598,0.326538,
-3.57361,0.372314,
-3.57819,0.395203,
-3.5675,0.379944,
-3.54767,0.360107,
-3.51868,0.32959,
-3.47748,0.372314,
-3.41949,0.396729,
-3.3493,0.38147,
-3.28064,0.360107,
-3.20892,0.326538,
-3.125,0.366211,
-3.03802,0.395203,
-2.9541,0.384521,
-2.86407,0.360107,
-2.77863,0.32959,
-2.68402,0.367737,
-2.59552,0.396729,
-2.49634,0.382996,
-2.40326,0.352478,
-2.31781,0.326538,
-2.22321,0.369263,
-2.1347,0.401306,
-2.04315,0.363159,
-1.9577,0.35553,
-1.87225,0.328064,
-1.78528,0.361633,
-1.70746,0.39978,
-1.63116,0.382996,
-1.55945,0.366211,
-1.49231,0.334167,
-1.4267,0.358582,
-1.36414,0.396729,
-1.30615,0.384521,
-1.25885,0.361633,
-1.21155,0.332642,
-1.17188,0.360107,
-1.13678,0.396729,
-1.10931,0.384521,
-1.08337,0.361633,
-1.06354,0.328064,
-1.05133,0.358582,
-1.04065,0.401306,
-1.03607,0.387573,
-1.03912,0.358582,
-1.03912,0.32959,
-1.0437,0.358582,
-1.0498,0.401306,
-1.06506,0.387573,
-1.0788,0.354004,
-1.09711,0.334167,
-1.11389,0.357056,
-1.13831,0.396729,
-1.16425,0.390625,
-1.19019,0.349426,
-1.2207,0.334167,
-1.25427,0.35553,
-1.28632,0.393677,
-1.31836,0.392151,
-1.3504,0.358582,
-1.39008,0.32959,
-1.43127,0.341797,
-1.47095,0.396729,
-1.51215,0.395203,
-1.55487,0.369263,
-1.59607,0.334167,
-1.63269,0.32959,
-1.66779,0.395203,
-1.70135,0.382996,
-1.73187,0.354004,
-1.76086,0.312805,
-1.79291,0.350952,
-1.81427,0.401306,
-1.83716,0.408936,
-1.85089,0.358582,
-1.86157,0.318909,
-1.87378,0.354004,
-1.87683,0.390625,
-1.87988,0.395203,
-1.88446,0.358582,
-1.88293,0.340271,
-1.88446,0.350952,
-1.87531,0.401306,
-1.86615,0.390625,
-1.85547,0.35553,
-1.84784,0.328064,
-1.84174,0.338745,
-1.83105,0.396729,
-1.81732,0.390625,
-1.80817,0.357056,
-1.79901,0.334167,
-1.78375,0.354004,
-1.77155,0.395203,
-1.76239,0.393677,
-1.75018,0.358582,
-1.73798,0.332642,
-1.72882,0.349426,
-1.71814,0.393677,
-1.70898,0.396729,
-1.70135,0.357056,
-1.69373,0.32959,
-1.6922,0.350952,
-1.6861,0.393677,
-1.68304,0.395203,
-1.68152,0.358582,
-1.68152,0.326538,
-1.68304,0.346375,
-1.69067,0.404358,
-1.69678,0.396729,
-1.70288,0.352478,
-1.72119,0.325012,
-1.73492,0.349426,
-1.74561,0.395203,
-1.76239,0.393677,
-1.77765,0.35553,
-1.79749,0.318909,
-1.81427,0.338745,
-1.83411,0.395203,
-1.84937,0.395203,
-1.87225,0.354004,
-1.89362,0.328064,
-1.91498,0.346375,
-1.93176,0.401306,
-1.94855,0.402832,
-1.96991,0.363159,
-1.98669,0.334167,
-2.01569,0.343323,
-2.034,0.408936,
-2.05536,0.396729,
-2.07977,0.358582,
-2.10571,0.328064,
-2.12708,0.346375,
-2.15149,0.393677,
-2.18048,0.395203,
-2.211,0.357056,
-2.23694,0.332642,
-2.26288,0.349426,
-2.29492,0.401306,
-2.32239,0.405884,
-2.34833,0.358582,
-2.37427,0.32959,
-2.40021,0.360107,
-2.42615,0.39978,
-2.44904,0.401306,
-2.47498,0.358582,
-2.50244,0.335693,
-2.53143,0.346375,
-2.55737,0.404358,
-2.58636,0.386047,
-2.61078,0.357056,
-2.63824,0.332642,
-2.66571,0.3479,
-2.68707,0.401306,
-2.71149,0.39978,
-2.73438,0.358582,
-2.76184,0.332642,
-2.7832,0.340271,
-2.80762,0.379944,
-2.82898,0.401306,
-2.84729,0.360107,
-2.86713,0.332642,
-2.88696,0.343323,
-2.90375,0.405884,
-2.92053,0.40741,
-2.93884,0.360107,
-2.95868,0.292969,
-2.97546,0.343323,
-2.98767,0.405884,
-3.00446,0.401306,
-3.02124,0.357056,
-3.03497,0.334167,
-3.05328,0.341797,
-3.06854,0.415039,
-3.07922,0.401306,
-3.10059,0.35553,
-3.11584,0.337219,
-3.1311,0.341797,
-3.14484,0.404358,
-3.15552,0.387573,
-3.16772,0.357056,
-3.18298,0.337219,
-3.19214,0.346375,
-3.19977,0.402832,
-3.2074,0.402832,
-3.21655,0.366211,
-3.22723,0.337219,
-3.24097,0.343323,
-3.25165,0.402832,
-3.26385,0.405884,
-3.27606,0.35553,
-3.28827,0.338745,
-3.30353,0.346375,
-3.32031,0.402832,
-3.32947,0.413513,
-3.34625,0.357056,
-3.36304,0.343323,
-3.37982,0.3479,
-3.39813,0.402832,
-3.41797,0.393677,
-3.43475,0.338745,
-3.45154,0.3479,
-3.4668,0.343323,
-3.48206,0.401306,
-3.49884,0.404358,
-3.51257,0.358582,
-3.53088,0.340271,
-3.54919,0.340271,
-3.55988,0.401306,
-3.56598,0.402832,
-3.56293,0.360107,
-3.5553,0.337219,
-3.53394,0.341797,
-3.49731,0.39978,
-3.45764,0.384521,
-3.40271,0.361633,
-3.3432,0.335693,
-3.27606,0.340271,
-3.20587,0.404358,
-3.12805,0.404358,
-3.05176,0.360107,
-2.97394,0.332642,
-2.89154,0.341797,
-2.81067,0.387573,
-2.72675,0.40741,
-2.6413,0.361633,
-2.55737,0.340271,
-2.47345,0.341797,
-2.38647,0.395203,
-2.29797,0.421143,
-2.21405,0.343323,
-2.1286,0.395203,
-2.04315,0.32196,
-1.95465,0.404358,
-1.87988,0.410461,
-1.80054,0.369263,
-1.72119,0.332642,
-1.64948,0.358582,
-1.58386,0.390625,
-1.5152,0.372314,
-1.45569,0.354004,
-1.39771,0.337219,
-1.35345,0.344849,
-1.3031,0.39978,
-1.2619,0.410461,
-1.23138,0.357056,
-1.20544,0.338745,
-1.18408,0.315857,
-1.16577,0.404358,
-1.15967,0.410461,
-1.15662,0.363159,
-1.15814,0.334167,
-1.15967,0.343323,
-1.16577,0.40741,
-1.18103,0.410461,
-1.19171,0.363159,
-1.2085,0.343323,
-1.22528,0.3479,
-1.24664,0.396729,
-1.27411,0.410461,
-1.297,0.367737,
-1.32294,0.338745,
-1.34888,0.346375,
-1.37787,0.402832,
-1.40381,0.401306,
-1.43738,0.361633,
-1.4679,0.332642,
-1.49994,0.346375,
-1.53351,0.405884,
-1.55945,0.411987,
-1.59607,0.361633,
-1.62506,0.387573,
-1.65863,0.346375,
-1.68762,0.402832,
-1.71661,0.410461,
-1.74561,0.38147,
-1.77765,0.332642,
-1.80511,0.344849,
-1.828,0.402832,
-1.84937,0.416565,
-1.87073,0.361633,
-1.88751,0.335693,
-1.90277,0.357056,
-1.91498,0.402832,
-1.91803,0.413513,
-1.92719,0.363159,
-1.93024,0.335693,
-1.93024,0.346375,
-1.92871,0.408936,
-1.92413,0.379944,
-1.92261,0.366211,
-1.9165,0.328064,
-1.91498,0.349426,
-1.90735,0.402832,
-1.89972,0.405884,
-1.88599,0.366211,
-1.87531,0.326538,
-1.86462,0.3479,
-1.85089,0.404358,
-1.83716,0.413513,
-1.8219,0.367737,
-1.81274,0.32959,
-1.80359,0.344849,
-1.79443,0.402832,
-1.78223,0.410461,
-1.77765,0.361633,
-1.77002,0.332642,
-1.76849,0.350952,
-1.76392,0.401306,
-1.76239,0.411987,
-1.76239,0.366211,
-1.76392,0.332642,
-1.76239,0.349426,
-1.76544,0.401306,
-1.76697,0.411987,
-1.77307,0.366211,
-1.77612,0.332642,
-1.77765,0.349426,
-1.7807,0.405884,
-1.79291,0.421143,
-1.80206,0.367737,
-1.81122,0.335693,
-1.828,0.335693,
-1.84479,0.404358,
-1.85852,0.411987,
-1.87225,0.360107,
-1.88599,0.338745,
-1.90887,0.354004,
-1.93024,0.401306,
-1.94702,0.408936,
-1.97144,0.367737,
-1.99127,0.335693,
-2.02026,0.349426,
-2.04163,0.402832,
-2.05841,0.413513,
-2.08588,0.363159,
-2.11334,0.332642,
-2.13623,0.35553,
-2.15607,0.401306,
-2.1759,0.411987,
-2.19727,0.37384,
-2.22473,0.335693,
-2.24915,0.352478,
-2.27051,0.402832,
-2.29034,0.413513,
-2.31171,0.363159,
-2.33154,0.337219,
-2.35748,0.346375,
-2.37885,0.39978,
-2.40173,0.411987,
-2.42157,0.358582,
-2.43988,0.337219,
-2.46124,0.361633,
-2.4826,0.396729,
-2.49939,0.408936,
-2.52075,0.361633,
-2.53601,0.334167,
-2.55737,0.344849,
-2.57416,0.405884,
-2.6001,0.410461,
-2.62146,0.370789,
-2.63824,0.332642,
-2.66418,0.346375,
-2.67944,0.402832,
-2.69928,0.410461,
-2.72064,0.363159,
-2.74353,0.335693,
-2.76337,0.344849,
-2.78015,0.401306,
-2.80457,0.408936,
-2.82745,0.361633,
-2.84729,0.338745,
-2.86713,0.349426,
-2.89001,0.40741,
-2.90527,0.408936,
-2.92358,0.360107,
-2.94495,0.337219,
-2.96021,0.35553,
-2.97546,0.401306,
-2.98615,0.408936,
-3.00293,0.363159,
-3.01666,0.3479,
-3.03192,0.357056,
-3.04565,0.396729,
-3.05939,0.408936,
-3.07007,0.361633,
-3.0838,0.337219,
-3.09296,0.354004,
-3.10516,0.39978,
-3.11432,0.411987,
-3.125,0.361633,
-3.12805,0.335693,
-3.13873,0.358582,
-3.14789,0.395203,
-3.15094,0.416565,
-3.16467,0.361633,
-3.17688,0.332642,
-3.18756,0.35553,
-3.19519,0.387573,
-3.2135,0.372314,
-3.22876,0.358582,
-3.2486,0.334167,
-3.26843,0.343323,
-3.28827,0.396729,
-3.30811,0.411987,
-3.32947,0.361633,
-3.34778,0.334167,
-3.36609,0.361633,
-3.3844,0.39978,
-3.39813,0.40741,
-3.41949,0.360107,
-3.43933,0.332642,
-3.45612,0.361633,
-3.47443,0.39978,
-3.48663,0.410461,
-3.508,0.367737,
-3.51563,0.334167,
-3.51868,0.366211,
-3.51715,0.401306,
-3.50494,0.408936,
-3.48206,0.360107,
-3.45001,0.335693,
-3.41492,0.366211,
-3.36151,0.402832,
-3.30353,0.410461,
-3.23944,0.361633,
-3.16772,0.299072,
-3.09143,0.369263,
-3.01361,0.401306,
-2.92969,0.410461,
-2.84882,0.361633,
-2.76642,0.335693,
-2.67792,0.370789,
-2.59247,0.401306,
-2.50549,0.404358,
-2.42004,0.361633,
-2.32697,0.334167,
-2.23999,0.37384,
-2.15454,0.404358,
-2.06146,0.410461,
-1.97601,0.369263,
-1.89056,0.32959,
-1.81122,0.37384,
-1.72729,0.39978,
-1.64642,0.40741,
-1.56555,0.357056,
-1.50146,0.32959,
-1.43738,0.366211,
-1.38092,0.39978,
-1.33057,0.402832,
-1.28326,0.366211,
-1.24359,0.326538,
-1.21307,0.369263,
-1.18561,0.395203,
-1.16425,0.405884,
-1.14746,0.358582,
-1.13678,0.328064,
-1.1261,0.369263,
-1.1261,0.402832,
-1.12457,0.408936,
-1.12762,0.358582,
-1.13373,0.326538,
-1.13678,0.363159,
-1.14746,0.39978,
-1.16272,0.40741,
-1.17645,0.358582,
-1.19476,0.323486,
-1.21613,0.363159,
-1.23291,0.393677,
-1.25275,0.40741,
-1.27563,0.357056,
-1.30005,0.326538,
-1.32599,0.367737,
-1.35345,0.39978,
-1.37939,0.405884,
-1.41144,0.358582,
-1.4389,0.328064,
-1.47247,0.367737,
-1.50299,0.39978,
-1.53656,0.405884,
-1.57166,0.35553,
-1.59912,0.325012,
-1.63269,0.369263,
-1.66016,0.393677,
-1.68762,0.384521,
-1.71356,0.328064,
-1.7395,0.323486,
-1.76086,0.372314,
-1.77917,0.402832,
-1.79901,0.402832,
-1.81274,0.358582,
-1.82648,0.323486,
-1.83868,0.376892,
-1.84479,0.402832,
-1.84937,0.405884,
-1.84937,0.35553,
-1.85089,0.326538,
-1.85089,0.376892,
-1.85089,0.384521,
-1.84937,0.404358,
-1.84479,0.361633,
-1.84479,0.332642,
-1.84021,0.378418,
-1.83258,0.39978,
-1.82648,0.405884,
-1.81732,0.358582,
-1.80969,0.320435,
-1.80054,0.378418,
-1.78986,0.404358,
-1.77917,0.402832,
-1.76697,0.354004,
-1.75629,0.320435,
-1.74866,0.375366,
-1.73798,0.39978,
-1.72882,0.405884,
-1.72272,0.35553,
-1.71814,0.320435,
-1.71204,0.372314,
-1.70441,0.396729,
-1.70135,0.404358,
-1.69983,0.360107,
-1.70288,0.320435,
-1.70135,0.372314,
-1.69983,0.39978,
-1.70288,0.404358,
-1.70593,0.361633,
-1.71204,0.318909,
-1.71509,0.370789,
-1.72119,0.401306,
-1.72729,0.376892,
-1.73798,0.37384,
-1.74103,0.32196,
-1.75629,0.367737,
-1.76849,0.392151,
-1.7807,0.39978,
-1.79596,0.35553,
-1.81427,0.318909,
-1.82953,0.366211,
-1.84784,0.402832,
-1.86462,0.401306,
-1.88141,0.360107,
-1.89819,0.314331,
-1.91803,0.363159,
-1.93939,0.411987,
-1.95465,0.402832,
-1.97296,0.35553,
-1.98975,0.318909,
-2.00958,0.35553,
-2.02637,0.402832,
-2.04926,0.39978,
-2.07062,0.35553,
-2.09198,0.318909,
-2.10876,0.363159,
-2.13013,0.404358,
-2.14844,0.404358,
-2.1637,0.358582,
-2.18506,0.317383,
-2.2049,0.358582,
-2.22321,0.402832,
-2.23846,0.395203,
-2.25525,0.357056,
-2.27356,0.314331,
-2.29187,0.358582,
-2.31476,0.401306,
-2.33002,0.387573,
-2.34528,0.357056,
-2.36511,0.311279,
-2.38342,0.354004,
-2.40631,0.404358,
-2.4231,0.393677,
-2.44293,0.358582,
-2.45972,0.302124,
-2.47345,0.349426,
-2.49176,0.40741,
-2.51312,0.396729,
-2.52838,0.357056,
-2.54822,0.318909,
-2.56653,0.366211,
-2.58484,0.405884,
-2.60162,0.401306,
-2.61688,0.360107,
-2.63672,0.314331,
-2.6535,0.3479,
-2.66876,0.390625,
-2.68097,0.39978,
-2.69928,0.361633,
-2.71149,0.309753,
-2.72522,0.346375,
-2.742,0.401306,
-2.75879,0.396729,
-2.76489,0.35553,
-2.78168,0.309753,
-2.79388,0.341797,
-2.80151,0.39978,
-2.81067,0.395203,
-2.8183,0.361633,
-2.83356,0.317383,
-2.84576,0.354004,
-2.85492,0.415039,
-2.86865,0.395203,
-2.88391,0.358582,
-2.89612,0.309753,
-2.90985,0.343323,
-2.92358,0.402832,
-2.93884,0.392151,
-2.94952,0.35553,
-2.96478,0.312805,
-2.98157,0.343323,
-2.99683,0.402832,
-3.01361,0.390625,
-3.02734,0.357056,
-3.04108,0.311279,
-3.05634,0.337219,
-3.0777,0.402832,
-3.09296,0.393677,
-3.11279,0.358582,
-3.13263,0.315857,
-3.14484,0.338745,
-3.16162,0.386047,
-3.17993,0.392151,
-3.20282,0.357056,
-3.21808,0.309753,
-3.23944,0.334167,
-3.25928,0.401306,
-3.27454,0.393677,
-3.28979,0.370789,
-3.29742,0.306702,
-3.30963,0.340271,
-3.302,0.402832,
-3.28674,0.393677,
-3.2608,0.357056,
-3.23029,0.309753,
-3.18756,0.343323,
-3.13721,0.405884,
-3.07617,0.393677,
-3.01208,0.323486,
-2.94495,0.308228,
-2.8717,0.337219,
-2.79999,0.404358,
-2.72217,0.395203,
-2.64435,0.354004,
-2.565,0.311279,
-2.48108,0.337219,
-2.39868,0.408936,
-2.30865,0.393677,
-2.22321,0.354004,
-2.13623,0.309753,
-2.05231,0.337219,
-1.96533,0.404358,
-1.87988,0.395203,
-1.79749,0.352478,
-1.72119,0.309753,
-1.64032,0.341797,
-1.56555,0.404358,
-1.49231,0.393677,
-1.42212,0.357056,
-1.35956,0.309753,
-1.29395,0.318909,
-1.24359,0.405884,
-1.19019,0.396729,
-1.14288,0.35553,
-1.10626,0.306702,
-1.07574,0.334167,
-1.04828,0.405884,
-1.02844,0.376892,
-1.01013,0.363159,
-1.00098,0.306702,
-0.990295,0.335693,
-0.98877,0.402832,
-0.984192,0.393677,
-0.987244,0.35553,
-0.98877,0.311279,
-1.00098,0.334167,
-1.01013,0.39978,
-1.01776,0.396729,
-1.02692,0.360107,
-1.04523,0.309753,
-1.06049,0.340271,
-1.07727,0.401306,
-1.09558,0.39978,
-1.11542,0.360107,
-1.13678,0.326538,
-1.15814,0.334167,
-1.1795,0.468445,
-1.19934,0.402832,
-1.22375,0.357056,
-1.24817,0.312805,
-1.28174,0.340271,
-1.31073,0.392151,
-1.3382,0.404358,
-1.36414,0.35553,
-1.39465,0.311279,
-1.42059,0.309753,
-1.44653,0.402832,
-1.474,0.395203,
-1.50146,0.354004,
-1.5274,0.312805,
-1.55029,0.335693,
-1.5686,0.39978,
-1.58386,0.387573,
-1.59454,0.369263,
-1.60828,0.306702,
-1.61133,0.335693,
-1.61743,0.39978,
-1.61438,0.401306,
-1.61133,0.354004,
-1.6098,0.309753,
-1.60522,0.32959,
-1.59454,0.39978,
-1.58386,0.401306,
-1.57318,0.357056,
-1.5625,0.312805,
-1.55182,0.328064,
-1.53503,0.396729,
-1.52283,0.401306,
-1.50452,0.354004,
-1.49384,0.314331,
-1.48163,0.335693,
-1.47247,0.395203,
-1.45721,0.40741,
-1.44806,0.363159,
-1.43585,0.343323,
-1.4267,0.32959,
-1.41602,0.396729,
-1.40839,0.39978,
-1.40381,0.352478,
-1.39923,0.314331,
-1.39313,0.340271,
-1.38855,0.360107,
-1.38397,0.396729,
-1.38245,0.357056,
-1.37939,0.308228,
-1.37939,0.32959,
-1.38092,0.396729,
-1.38397,0.404358,
-1.38397,0.401306,
-1.39008,0.311279,
-1.39771,0.335693,
-1.40381,0.401306,
-1.41296,0.401306,
-1.42365,0.357056,
-1.43585,0.308228,
-1.45111,0.332642,
-1.4679,0.387573,
-1.48163,0.404358,
-1.49841,0.352478,
-1.51672,0.312805,
-1.53198,0.335693,
-1.55029,0.401306,
-1.56555,0.402832,
-1.58386,0.35553,
-1.60675,0.311279,
-1.62659,0.335693,
-1.64642,0.395203,
-1.66626,0.40741,
-1.68915,0.350952,
-1.70898,0.309753,
-1.7334,0.343323,
-1.75629,0.39978,
-1.77765,0.405884,
-1.80359,0.349426,
-1.82495,0.312805,
-1.84784,0.323486,
-1.86615,0.401306,
-1.88599,0.404358,
-1.90735,0.361633,
-1.93329,0.314331,
-1.9577,0.334167,
-1.97754,0.416565,
-2.00043,0.431824,
-2.02026,0.352478,
-2.04315,0.312805,
-2.0752,0.341797,
-2.09503,0.411987,
-2.11792,0.402832,
-2.13776,0.350952,
-2.16217,0.311279,
-2.18658,0.334167,
-2.20642,0.392151,
-2.22473,0.404358,
-2.24609,0.352478,
-2.2644,0.314331,
-2.28424,0.334167,
-2.30255,0.393677,
-2.32086,0.411987,
-2.33612,0.358582,
-2.35138,0.309753,
-2.36816,0.337219,
-2.38037,0.387573,
-2.39563,0.405884,
-2.41089,0.352478,
-2.42615,0.282288,
-2.44446,0.334167,
-2.45972,0.390625,
-2.4704,0.405884,
-2.48718,0.350952,
-2.49939,0.312805,
-2.5177,0.332642,
-2.53143,0.387573,
-2.54669,0.40741,
-2.5589,0.360107,
-2.57721,0.318909,
-2.59399,0.323486,
-2.60925,0.389099,
-2.62299,0.405884,
-2.63519,0.349426,
-2.64435,0.323486,
-2.65808,0.296021,
-2.67181,0.379944,
-2.68707,0.418091,
-2.69775,0.349426,
-2.70996,0.320435,
-2.72522,0.341797,
-2.73895,0.386047,
-2.75269,0.40741,
-2.76337,0.350952,
-2.78015,0.315857,
-2.79694,0.337219,
-2.81525,0.387573,
-2.83813,0.405884,
-2.85187,0.352478,
-2.87323,0.318909,
-2.89459,0.337219,
-2.91443,0.386047,
-2.93579,0.405884,
-2.95258,0.350952,
-2.97394,0.317383,
-2.99835,0.337219,
-3.01666,0.384521,
-3.03955,0.40741,
-3.05786,0.352478,
-3.0777,0.323486,
-3.09906,0.338745,
-3.11584,0.379944,
-3.125,0.404358,
-3.1311,0.352478,
-3.125,0.326538,
-3.11584,0.341797,
-3.09296,0.386047,
-3.05786,0.408936,
-3.02124,0.340271,
-2.98004,0.315857,
-2.92816,0.352478,
-2.87323,0.395203,
-2.80914,0.408936,
-2.74506,0.354004,
-2.67639,0.323486,
-2.60773,0.341797,
-2.53296,0.382996,
-2.45667,0.410461,
-2.37732,0.354004,
-2.29492,0.323486,
-2.21252,0.341797,
-2.12708,0.382996,
-2.04315,0.410461,
-1.9577,0.349426,
-1.87988,0.326538,
-1.79443,0.343323,
-1.70593,0.379944,
-1.62506,0.40741,
-1.54114,0.349426,
-1.46637,0.323486,
-1.39008,0.344849,
-1.32294,0.382996,
-1.25885,0.40741,
-1.19324,0.350952,
-1.14136,0.323486,
-1.09558,0.341797,
-1.05591,0.382996,
-1.01776,0.404358,
-0.993347,0.349426,
-0.971985,0.326538,
-0.9552,0.3479,
-0.942993,0.379944,
-0.932312,0.408936,
-0.924683,0.315857,
-0.93689,0.318909,
-0.938416,0.325012,
-0.947571,0.375366,
-0.958252,0.402832,
-0.971985,0.3479,
-0.991821,0.320435,
-1.01013,0.3479,
-1.02997,0.379944,
-1.04828,0.39978,
-1.07422,0.352478,
-1.09863,0.326538,
-1.12915,0.346375,
-1.15204,0.375366,
-1.18103,0.40741,
-1.21155,0.352478,
-1.24359,0.326538,
-1.27563,0.349426,
-1.30463,0.375366,
-1.33667,0.405884,
-1.37024,0.352478,
-1.40533,0.326538,
-1.43738,0.349426,
-1.474,0.372314,
-1.50452,0.410461,
-1.53351,0.354004,
-1.56097,0.326538,
-1.58539,0.343323,
-1.6037,0.386047,
-1.62811,0.39978,
-1.64185,0.354004,
-1.66016,0.332642,
-1.67542,0.350952,
-1.6861,0.37384,
-1.69525,0.40741,
-1.69678,0.354004,
-1.70288,0.334167,
-1.69983,0.350952,
-1.70288,0.376892,
-1.69983,0.40741,
-1.6983,0.35553,
-1.6922,0.332642,
-1.68304,0.35553,
-1.67999,0.37384,
-1.67236,0.405884,
-1.66168,0.354004,
-1.65558,0.334167,
-1.6449,0.349426,
-1.63574,0.375366,
-1.62964,0.405884,
-1.61896,0.349426,
-1.60675,0.334167,
-1.59607,0.361633,
-1.58691,0.376892,
-1.57623,0.405884,
-1.56555,0.35553,
-1.5625,0.305176,
-1.56097,0.350952,
-1.55334,0.37384,
-1.55487,0.402832,
-1.54877,0.358582,
-1.54266,0.334167,
-1.54114,0.352478,
-1.53961,0.372314,
-1.53961,0.402832,
-1.53656,0.35553,
-1.53809,0.335693,
-1.54877,0.35553,
-1.55182,0.37384,
-1.5564,0.40741,
-1.55945,0.352478,
-1.56708,0.335693,
-1.57471,0.318909,
-1.58691,0.37384,
-1.59912,0.40741,
-1.61285,0.357056,
-1.62659,0.334167,
-1.64337,0.350952,
-1.66473,0.375366,
-1.67847,0.402832,
-1.69983,0.357056,
-1.72119,0.337219,
-1.7395,0.352478,
-1.76086,0.370789,
-1.78375,0.402832,
-1.80664,0.361633,
-1.83105,0.337219,
-1.85242,0.349426,
-1.87225,0.370789,
-1.89819,0.402832,
-1.91803,0.363159,
-1.94702,0.334167,
-1.96838,0.350952,
-1.99127,0.37384,
-2.01721,0.402832,
-2.04468,0.367737,
-2.07214,0.337219,
-2.09961,0.350952,
-2.12097,0.372314,
-2.14539,0.401306,
-2.16522,0.366211,
-2.19269,0.334167,
-2.21558,0.357056,
-2.23846,0.376892,
-2.25677,0.405884,
-2.27814,0.363159,
-2.30255,0.332642,
-2.32544,0.3479,
-2.34833,0.372314,
-2.36816,0.404358,
-2.39563,0.372314,
-2.41852,0.334167,
-2.43683,0.352478,
-2.46124,0.37384,
-2.4826,0.408936,
-2.50244,0.352478,
-2.52228,0.332642,
-2.54059,0.349426,
-2.5589,0.375366,
-2.57568,0.402832,
-2.59399,0.367737,
-2.60925,0.328064,
-2.62451,0.35553,
-2.6413,0.37384,
-2.65961,0.401306,
-2.67639,0.369263,
-2.6947,0.332642,
-2.70844,0.3479,
-2.72064,0.369263,
-2.73285,0.402832,
-2.74811,0.372314,
-2.76337,0.32959,
-2.77863,0.349426,
-2.78778,0.37384,
-2.79846,0.404358,
-2.81067,0.372314,
-2.82593,0.341797,
-2.84119,0.346375,
-2.85797,0.37384,
-2.86255,0.401306,
-2.87323,0.37384,
-2.88696,0.334167,
-2.89612,0.3479,
-2.90833,0.372314,
-2.91901,0.405884,
-2.93274,0.370789,
-2.94647,0.337219,
-2.96326,0.349426,
-2.98004,0.37384,
-2.99377,0.39978,
-3.01208,0.379944,
-3.0304,0.332642,
-3.05023,0.349426,
-3.07007,0.366211,
-3.08533,0.363159,
-3.09753,0.376892,
-3.12042,0.32959,
-3.13568,0.346375,
-3.15247,0.370789,
-3.1662,0.402832,
-3.17993,0.378418,
-3.19061,0.32959,
-3.20587,0.337219,
-3.2196,0.372314,
-3.22876,0.401306,
-3.24097,0.375366,
-3.25012,0.32959,
-3.2608,0.341797,
-3.27148,0.378418,
-3.26996,0.39978,
-3.25928,0.376892,
-3.24554,0.332642,
-3.2135,0.343323,
-3.17993,0.372314,
-3.13568,0.39978,
-3.08075,0.379944,
-3.01971,0.326538,
-2.9541,0.344849,
-2.88544,0.372314,
-2.81067,0.402832,
-2.73132,0.382996,
-2.65198,0.337219,
-2.56805,0.343323,
-2.48108,0.367737,
-2.39258,0.402832,
-2.2995,0.352478,
-2.20642,0.332642,
-2.11182,0.343323,
-2.01263,0.37384,
-1.91345,0.401306,
-1.81122,0.382996,
-1.71661,0.328064,
-1.61896,0.341797,
-1.52283,0.37384,
-1.43127,0.401306,
-1.3382,0.382996,
-1.2558,0.32959,
-1.17188,0.343323,
-1.10168,0.37384,
-1.02997,0.401306,
-0.970459,0.382996,
-0.912476,0.335693,
-0.868225,0.341797,
-0.827026,0.378418,
-0.788879,0.39978,
-0.758362,0.38147,
-0.733948,0.326538,
-0.715637,0.340271,
-0.706482,0.3479,
-0.700378,0.402832,
-0.692749,0.387573,
-0.697327,0.334167,
-0.695801,0.332642,
-0.701904,0.390625,
-0.71106,0.402832,
-0.720215,0.437927,
-0.735474,0.320435,
-0.749207,0.337219,
-0.764465,0.375366,
-0.782776,0.396729,
-0.80719,0.384521,
-0.830078,0.341797,
-0.85144,0.341797,
-0.875854,0.375366,
-0.90332,0.39978,
-0.923157,0.384521,
-0.956726,0.326538,
-0.982666,0.340271,
-1.01166,0.376892,
-1.0437,0.39978,
-1.07574,0.384521,
-1.10626,0.326538,
-1.13983,0.344849,
-1.17188,0.378418,
-1.20087,0.39978,
-1.22833,0.384521,
-1.25732,0.325012,
-1.28632,0.334167,
-1.31226,0.363159,
-1.32751,0.395203,
-1.34583,0.384521,
-1.35803,0.323486,
-1.37177,0.332642,
-1.38702,0.372314,
-1.3916,0.395203,
-1.39618,0.387573,
-1.40228,0.326538,
-1.40076,0.334167,
-1.40228,0.375366,
-1.40381,0.413513,
-1.40381,0.384521,
-1.39618,0.323486,
-1.3916,0.334167,
-1.3855,0.372314,
-1.37939,0.396729,
-1.37177,0.376892,
-1.36414,0.325012,
-1.35803,0.338745,
-1.35345,0.370789,
-1.34277,0.392151,
-1.33209,0.386047,
-1.32294,0.32196,
-1.31073,0.332642,
-1.29852,0.37384,
-1.28784,0.404358,
-1.28326,0.389099,
-1.27563,0.318909,
-1.26495,0.341797,
-1.25885,0.376892,
-1.25885,0.393677,
-1.2558,0.386047,
-1.2558,0.311279,
-1.25885,0.335693,
-1.2619,0.375366,
-1.26801,0.396729,
-1.27106,0.387573,
-1.27563,0.320435,
-1.28479,0.314331,
-1.29395,0.372314,
-1.30005,0.392151,
-1.31226,0.387573,
-1.32141,0.32196,
-1.33362,0.32959,
-1.34583,0.375366,
-1.35498,0.389099,
-1.37024,0.387573,
-1.3855,0.326538,
-1.40228,0.328064,
-1.42059,0.370789,
-1.44043,0.404358,
-1.45721,0.386047,
-1.4801,0.320435,
-1.49994,0.332642,
-1.52588,0.337219,
-1.55182,0.393677,
-1.57623,0.386047,
-1.60065,0.32196,
-1.62506,0.32959,
-1.65253,0.370789,
-1.67542,0.392151,
-1.6983,0.389099,
-1.72424,0.323486,
-1.74866,0.328064,
-1.77612,0.37384,
-1.80359,0.384521,
-1.828,0.401306,
-1.85089,0.326538,
-1.87378,0.32959,
-1.89972,0.363159,
-1.92108,0.392151,
-1.94397,0.387573,
-1.97144,0.317383,
-1.9989,0.32959,
-2.02026,0.370789,
-2.0401,0.390625,
-2.05994,0.3479,
-2.08588,0.32196,
-2.10724,0.328064,
-2.13013,0.369263,
-2.15149,0.393677,
-2.17285,0.395203,
-2.18964,0.312805,
-2.20947,0.328064,
-2.22473,0.369263,
-2.24762,0.389099,
-2.25983,0.387573,
-2.27814,0.320435,
-2.29645,0.318909,
-2.31018,0.37384,
-2.32697,0.395203,
-2.33917,0.389099,
-2.35596,0.32196,
-2.37427,0.328064,
-2.39105,0.361633,
-2.40326,0.387573,
-2.41699,0.390625,
-2.43073,0.32196,
-2.44751,0.323486,
-2.46735,0.367737,
-2.47955,0.392151,
-2.49786,0.390625,
-2.51465,0.323486,
-2.53296,0.328064,
-2.54822,0.366211,
-2.56653,0.387573,
-2.58179,0.387573,
-2.60162,0.32196,
-2.61078,0.326538,
-2.62909,0.363159,
-2.63977,0.401306,
-2.65503,0.392151,
-2.67029,0.325012,
-2.68097,0.320435,
-2.68707,0.361633,
-2.69928,0.392151,
-2.70691,0.379944,
-2.72217,0.32959,
-2.73132,0.326538,
-2.74658,0.369263,
-2.76337,0.390625,
-2.7771,0.366211,
-2.79236,0.323486,
-2.80914,0.302124,
-2.82593,0.375366,
-2.84119,0.404358,
-2.8595,0.396729,
-2.8717,0.3479,
-2.89612,0.370789,
-2.91443,0.360107,
-2.93732,0.405884,
-2.96021,0.387573,
-2.98004,0.328064,
-3.00293,0.334167,
-3.02429,0.358582,
-3.04565,0.390625,
-3.06549,0.354004,
-3.0838,0.332642,
-3.10211,0.323486,
-3.11737,0.367737,
-3.13263,0.389099,
-3.14331,0.393677,
-3.14636,0.32196,
-3.14484,0.32196,
-3.14178,0.361633,
-3.12653,0.390625,
-3.10059,0.386047,
-3.06549,0.318909,
-3.01666,0.325012,
-2.96326,0.372314,
-2.9007,0.390625,
-2.83356,0.384521,
-2.76184,0.325012,
-2.6886,0.323486,
-2.61078,0.352478,
-2.52838,0.393677,
-2.43988,0.392151,
-2.35291,0.344849,
-2.26135,0.349426,
-2.16522,0.369263,
-2.07214,0.387573,
-1.98059,0.38147,
-1.87988,0.320435,
-1.78223,0.32196,
-1.68915,0.382996,
-1.59912,0.352478,
-1.50452,0.384521,
-1.41296,0.328064,
-1.32751,0.318909,
-1.24512,0.363159,
-1.1673,0.393677,
-1.09406,0.38147,
-1.02386,0.325012,
-0.964355,0.32196,
-0.907898,0.361633,
-0.856018,0.390625,
-0.810242,0.384521,
-0.776672,0.326538,
-0.743103,0.320435,
-0.720215,0.363159,
-0.697327,0.390625,
-0.679016,0.382996,
-0.668335,0.328064,
-0.663757,0.325012,
-0.656128,0.367737,
-0.653076,0.393677,
-0.65155,0.379944,
-0.653076,0.328064,
-0.653076,0.30365,
-0.665283,0.38147,
-0.672913,0.393677,
-0.68512,0.382996,
-0.701904,0.328064,
-0.718689,0.32196,
-0.740051,0.360107,
-0.762939,0.389099,
-0.782776,0.390625,
-0.80719,0.326538,
-0.834656,0.32196,
-0.856018,0.357056,
-0.88501,0.45166,
-0.91095,0.386047,
-0.941467,0.325012,
-0.970459,0.326538,
-1.00098,0.360107,
-1.02692,0.387573,
-1.05896,0.384521,
-1.091,0.325012,
-1.12152,0.286865,
-1.14899,0.357056,
-1.17798,0.384521,
-1.20239,0.379944,
-1.22375,0.325012,
-1.25122,0.318909,
-1.27563,0.363159,
-1.29242,0.389099,
-1.3092,0.38147,
-1.32446,0.325012,
-1.33514,0.320435,
-1.34735,0.366211,
-1.35803,0.392151,
-1.36108,0.392151,
-1.36566,0.323486,
-1.36719,0.317383,
-1.36414,0.366211,
-1.35956,0.392151,
-1.34888,0.38147,
-1.3382,0.325012,
-1.33057,0.32196,
-1.31989,0.366211,
-1.30157,0.396729,
-1.28784,0.37384,
-1.27716,0.325012,
-1.2619,0.314331,
-1.25275,0.363159,
-1.23444,0.390625,
-1.22223,0.38147,
-1.21307,0.326538,
-1.20239,0.318909,
-1.19019,0.361633,
-1.18256,0.390625,
-1.17645,0.387573,
-1.17493,0.328064,
-1.17188,0.32196,
-1.17035,0.367737,
-1.1673,0.392151,
-1.16272,0.379944,
-1.1673,0.323486,
-1.16577,0.320435,
-1.17035,0.363159,
-1.17493,0.387573,
-1.1795,0.379944,
-1.18713,0.328064,
-1.19476,0.320435,
-1.21002,0.366211,
-1.22375,0.390625,
-1.23291,0.38147,
-1.24817,0.328064,
-1.26495,0.320435,
-1.28326,0.369263,
-1.297,0.437927,
-1.31531,0.379944,
-1.33362,0.325012,
-1.35498,0.320435,
-1.37329,0.361633,
-1.39771,0.390625,
-1.41754,0.379944,
-1.4389,0.328064,
-1.46179,0.318909,
-1.48773,0.366211,
-1.51062,0.389099,
-1.53351,0.375366,
-1.5564,0.326538,
-1.57776,0.317383,
-1.60217,0.366211,
-1.62506,0.387573,
-1.64795,0.375366,
-1.66473,0.328064,
-1.68915,0.323486,
-1.70746,0.369263,
-1.72272,0.389099,
-1.74255,0.37384,
-1.76392,0.335693,
-1.79291,0.332642,
-1.82953,0.367737,
-1.86005,0.389099,
-1.88751,0.37384,
-1.91956,0.32959,
-1.94702,0.328064,
-1.97296,0.350952,
-1.99585,0.396729,
-2.01416,0.369263,
-2.0401,0.318909,
-2.06146,0.323486,
-2.08282,0.367737,
-2.10571,0.387573,
-2.12097,0.376892,
-2.14844,0.332642,
-2.17743,0.320435,
-2.19879,0.370789,
-2.22168,0.390625,
-2.24609,0.37384,
-2.27509,0.328064,
-2.29645,0.320435,
-2.31934,0.369263,
-2.33612,0.390625,
-2.35291,0.363159,
-2.37122,0.328064,
-2.39258,0.320435,
-2.40936,0.369263,
-2.42767,0.392151,
-2.44293,0.361633,
-2.45819,0.32959,
-2.47955,0.318909,
-2.49634,0.366211,
-2.5177,0.392151,
-2.53296,0.366211,
-2.54974,0.328064,
-2.565,0.325012,
-2.58331,0.367737,
-2.59857,0.387573,
-2.61078,0.3479,
-2.62756,0.332642,
-2.6413,0.325012,
-2.6535,0.367737,
-2.66266,0.390625,
-2.67487,0.360107,
-2.68555,0.326538,
-2.69928,0.317383,
-2.71301,0.367737,
-2.73132,0.392151,
-2.75421,0.357056,
-2.76947,0.32959,
-2.79083,0.32196,
-2.81677,0.360107,
-2.83508,0.390625,
-2.85034,0.357056,
-2.87476,0.323486,
-2.89001,0.325012,
-2.91443,0.37384,
-2.93274,0.396729,
-2.95258,0.357056,
-2.97241,0.335693,
-2.9953,0.325012,
-3.01666,0.366211,
-3.0304,0.389099,
-3.05328,0.354004,
-3.07312,0.325012,
-3.09601,0.323486,
-3.11432,0.367737,
-3.13721,0.390625,
-3.15552,0.357056,
-3.18146,0.326538,
-3.20587,0.323486,
-3.22571,0.367737,
-3.25165,0.393677,
-3.27606,0.357056,
-3.2959,0.325012,
-3.31421,0.320435,
-3.32489,0.366211,
-3.32794,0.393677,
-3.32642,0.358582,
-3.30963,0.326538,
-3.28064,0.32196,
-3.24097,0.367737,
-3.19061,0.39978,
-3.12653,0.360107,
-3.05786,0.325012,
-2.98309,0.320435,
-2.9068,0.369263,
-2.82898,0.395203,
-2.742,0.358582,
-2.65503,0.326538,
-2.56958,0.323486,
-2.48413,0.367737,
-2.40021,0.39978,
-2.31476,0.367737,
-2.22931,0.334167,
-2.14081,0.32196,
-2.05231,0.37384,
-1.95618,0.39978,
-1.86462,0.360107,
-1.77307,0.32959,
-1.68152,0.311279,
-1.59454,0.372314,
-1.51062,0.401306,
-1.42822,0.357056,
-1.34888,0.325012,
-1.26953,0.323486,
-1.20697,0.369263,
-1.14441,0.379944,
-1.08337,0.366211,
-1.02997,0.32196,
-0.98114,0.323486,
-0.935364,0.369263,
-0.897217,0.39978,
-0.868225,0.352478,
-0.842285,0.320435,
-0.822449,0.325012,
-0.808716,0.367737,
-0.796509,0.401306,
-0.785828,0.349426,
-0.785828,0.314331,
-0.787354,0.328064,
-0.790405,0.378418,
-0.796509,0.410461,
-0.814819,0.357056,
-0.831604,0.323486,
-0.85144,0.323486,
-0.868225,0.367737,
-0.891113,0.402832,
-0.914001,0.346375,
-0.935364,0.312805,
-0.964355,0.326538,
-0.991821,0.361633,
-1.02234,0.38147,
-1.05286,0.349426,
-1.08643,0.323486,
-1.12,0.326538,
-1.15509,0.378418,
-1.19781,0.40741,
-1.23291,0.393677,
-1.27411,0.338745,
-1.31378,0.326538,
-1.35345,0.363159,
-1.39313,0.405884,
-1.42822,0.349426,
-1.46027,0.32196,
-1.49536,0.328064,
-1.5213,0.361633,
-1.54572,0.405884,
-1.56555,0.354004,
-1.58844,0.323486,
-1.6037,0.328064,
-1.62048,0.363159,
-1.62811,0.404358,
-1.63422,0.357056,
-1.64032,0.320435,
-1.64185,0.326538,
-1.63727,0.369263,
-1.63574,0.408936,
-1.62506,0.343323,
-1.62048,0.32196,
-1.61896,0.318909,
-1.62201,0.366211,
-1.62659,0.402832,
-1.62354,0.350952,
-1.61896,0.325012,
-1.61743,0.32959,
-1.6098,0.367737,
-1.59912,0.405884,
-1.59149,0.35553,
-1.58539,0.323486,
-1.57471,0.332642,
-1.56403,0.366211,
-1.56097,0.40741,
-1.55029,0.361633,
-1.54572,0.318909,
-1.53961,0.332642,
-1.53809,0.370789,
-1.53656,0.408936,
-1.53046,0.357056,
-1.53351,0.325012,
-1.53198,0.332642,
-1.53503,0.367737,
-1.54114,0.40741,
-1.54877,0.361633,
-1.55334,0.317383,
-1.56403,0.32959,
-1.57471,0.32959,
-1.58386,0.40741,
-1.59607,0.372314,
-1.60828,0.323486,
-1.62811,0.328064,
-1.63879,0.37384,
-1.65405,0.405884,
-1.66931,0.422668,
-1.69067,0.314331,
-1.70746,0.334167,
-1.73035,0.360107,
-1.74866,0.40741,
-1.76849,0.363159,
-1.7868,0.318909,
-1.81122,0.32959,
-1.82953,0.361633,
-1.85089,0.405884,
-1.87225,0.378418,
-1.89972,0.317383,
-1.92719,0.328064,
-1.95007,0.366211,
-1.97601,0.40741,
-2.00195,0.37384,
-2.02484,0.317383,
-2.05383,0.328064,
-2.07977,0.361633,
-2.10876,0.411987,
-2.13776,0.376892,
-2.16522,0.318909,
-2.19421,0.32959,
-2.22168,0.367737,
-2.25372,0.410461,
-2.27966,0.378418,
-2.31171,0.317383,
-2.3407,0.334167,
-2.36969,0.361633,
-2.40173,0.408936,
-2.43378,0.379944,
-2.46277,0.318909,
-2.49634,0.335693,
-2.52228,0.367737,
-2.55127,0.40741,
-2.57568,0.378418,
-2.60162,0.317383,
-2.62299,0.332642,
-2.64587,0.366211,
-2.67181,0.410461,
-2.69318,0.38147,
-2.71759,0.317383,
-2.73895,0.335693,
-2.76184,0.367737,
-2.7832,0.411987,
-2.80762,0.379944,
-2.82745,0.320435,
-2.84576,0.337219,
-2.87018,0.367737,
-2.89459,0.410461,
-2.91595,0.382996,
-2.94037,0.314331,
-2.96021,0.334167,
-2.98157,0.366211,
-3.00293,0.410461,
-3.01971,0.379944,
-3.0365,0.317383,
-3.05481,0.332642,
-3.07465,0.361633,
-3.09143,0.413513,
-3.10822,0.396729,
-3.12195,0.318909,
-3.14026,0.334167,
-3.15704,0.369263,
-3.17383,0.413513,
-3.18909,0.386047,
-3.2074,0.318909,
-3.22571,0.318909,
-3.24097,0.37384,
-3.25623,0.413513,
-3.27759,0.387573,
-3.29895,0.328064,
-3.31726,0.332642,
-3.33405,0.326538,
-3.35846,0.40741,
-3.37372,0.395203,
-3.39203,0.314331,
-3.41339,0.328064,
-3.43628,0.366211,
-3.45306,0.413513,
-3.47137,0.390625,
-3.48816,0.318909,
-3.51105,0.32959,
-3.52783,0.370789,
-3.54462,0.410461,
-3.56293,0.386047,
-3.58582,0.315857,
-3.60413,0.328064,
-3.62549,0.369263,
-3.64685,0.40741,
-3.65753,0.389099,
-3.66516,0.315857,
-3.66211,0.326538,
-3.6499,0.366211,
-3.62396,0.415039,
-3.59039,0.389099,
-3.54767,0.317383,
-3.49884,0.325012,
-3.43933,0.369263,
-3.37372,0.413513,
-3.30505,0.389099,
-3.23029,0.315857,
-3.15247,0.328064,
-3.07465,0.352478,
-2.99835,0.410461,
-2.91138,0.389099,
-2.82745,0.318909,
-2.742,0.325012,
-2.65503,0.372314,
-2.56805,0.410461,
-2.47955,0.378418,
-2.388,0.318909,
-2.29645,0.323486,
-2.20795,0.372314,
-2.11639,0.408936,
-2.02637,0.395203,
-1.94092,0.312805,
-1.8631,0.32959,
-1.77917,0.369263,
-1.70441,0.408936,
-1.63574,0.392151,
-1.57166,0.314331,
-1.5152,0.318909,
-1.46179,0.369263,
-1.42059,0.408936,
-1.38245,0.387573,
-1.34583,0.317383,
-1.31836,0.320435,
-1.29089,0.367737,
-1.27411,0.405884,
-1.2558,0.393677,
-1.24664,0.312805,
-1.24054,0.332642,
-1.24054,0.369263,
-1.24207,0.375366,
-1.24664,0.38147,
-1.25732,0.311279,
-1.26953,0.318909,
-1.28784,0.366211,
-1.3092,0.405884,
-1.33209,0.393677,
-1.35651,0.306702,
-1.37939,0.334167,
-1.40533,0.370789,
-1.43585,0.408936,
-1.46637,0.387573,
-1.50146,0.315857,
-1.53503,0.317383,
-1.57166,0.370789,
-1.61133,0.468445,
-1.64795,0.384521,
-1.69373,0.317383,
-1.73035,0.320435,
-1.77307,0.370789,
-1.81122,0.411987,
-1.85547,0.378418,
-1.88751,0.315857,
-1.93024,0.318909,
-1.96228,0.369263,
-1.99738,0.40741,
-2.02484,0.396729,
-2.05231,0.320435,
-2.08282,0.320435,
-2.10876,0.366211,
-2.12555,0.408936,
-2.14081,0.393677,
-2.14996,0.32196,
-2.15759,0.320435,
-2.16522,0.367737,
-2.1637,0.40741,
-2.15759,0.392151,
-2.15302,0.315857,
-2.14996,0.323486,
-2.14539,0.370789,
-2.13928,0.408936,
-2.12402,0.392151,
-2.11182,0.317383,
-2.09656,0.328064,
-2.07977,0.372314,
-2.07062,0.408936,
-2.05994,0.392151,
-2.04773,0.318909,
-2.03857,0.325012,
-2.034,0.366211,
-2.02484,0.40741,
-2.01721,0.389099,
-2.01111,0.317383,
-2.005,0.32196,
-1.99738,0.366211,
-1.99127,0.408936,
-1.98669,0.395203,
-1.98517,0.314331,
-1.98669,0.318909,
-1.98975,0.369263,
-1.9928,0.408936,
-2.00043,0.393677,
-2.00195,0.318909,
-2.00806,0.317383,
-2.01416,0.370789,
-2.02332,0.404358,
-2.03094,0.392151,
-2.0462,0.32196,
-2.05688,0.317383,
-2.0752,0.361633,
-2.0874,0.404358,
-2.10571,0.393677,
-2.12555,0.326538,
-2.14844,0.318909,
-2.17133,0.369263,
-2.19269,0.40741,
-2.21405,0.392151,
-2.23694,0.325012,
-2.25983,0.299072,
-2.28577,0.370789,
-2.31171,0.405884,
-2.33154,0.395203,
-2.35748,0.325012,
-2.38342,0.325012,
-2.40631,0.428772,
-2.4292,0.395203,
-2.45667,0.393677,
-2.48413,0.317383,
-2.50854,0.325012,
-2.53601,0.344849,
-2.56195,0.402832,
-2.59094,0.444031,
-2.61993,0.326538,
-2.64282,0.314331,
-2.67181,0.372314,
-2.69928,0.404358,
-2.72369,0.390625,
-2.74658,0.320435,
-2.77557,0.305176,
-2.79846,0.375366,
-2.8183,0.402832,
-2.84271,0.390625,
-2.8656,0.326538,
-2.88544,0.314331,
-2.91138,0.372314,
-2.93427,0.402832,
-2.95258,0.392151,
-2.98004,0.328064,
-3.00598,0.312805,
-3.0304,0.370789,
-3.05176,0.402832,
-3.07312,0.393677,
-3.09296,0.32959,
-3.11127,0.320435,
-3.13416,0.375366,
-3.15094,0.386047,
-3.1662,0.390625,
-3.18756,0.32959,
-3.20282,0.314331,
-3.22113,0.372314,
-3.23029,0.401306,
-3.25165,0.393677,
-3.2608,0.317383,
-3.27759,0.306702,
-3.29437,0.372314,
-3.30811,0.396729,
-3.31421,0.395203,
-3.32947,0.332642,
-3.34625,0.314331,
-3.35846,0.358582,
-3.37372,0.40741,
-3.38287,0.389099,
-3.39966,0.32959,
-3.41187,0.315857,
-3.4256,0.375366,
-3.43475,0.395203,
-3.44543,0.389099,
-3.45917,0.328064,
-3.46832,0.315857,
-3.48358,0.372314,
-3.49274,0.395203,
-3.508,0.389099,
-3.51715,0.32959,
-3.53546,0.314331,
-3.54919,0.372314,
-3.56293,0.401306,
-3.57971,0.387573,
-3.5965,0.332642,
-3.61633,0.311279,
-3.62854,0.370789,
-3.6438,0.392151,
-3.65601,0.387573,
-3.67279,0.332642,
-3.68805,0.314331,
-3.70636,0.375366,
-3.72925,0.395203,
-3.75061,0.386047,
-3.7735,0.334167,
-3.79944,0.312805,
-3.8147,0.370789,
-3.83453,0.392151,
-3.85895,0.38147,
-3.87726,0.32959,
-3.89709,0.308228,
-3.91846,0.369263,
-3.93677,0.448608,
-3.95508,0.405884,
-3.96729,0.332642,
-3.97491,0.32196,
-3.97339,0.370789,
-3.97034,0.395203,
-3.94897,0.386047,
-3.91541,0.334167,
-3.86963,0.288391,
-3.80859,0.370789,
-3.73383,0.390625,
-3.65753,0.38147,
-3.57056,0.335693,
-3.48816,0.311279,
-3.39355,0.367737,
-3.302,0.390625,
-3.20435,0.38147,
-3.10364,0.337219,
-3.00293,0.315857,
-2.89917,0.37384,
-2.79388,0.390625,
-2.68707,0.38147,
-2.57568,0.332642,
-2.46887,0.312805,
-2.36206,0.375366,
-2.25372,0.393677,
-2.14996,0.384521,
-2.0401,0.340271,
-1.93634,0.311279,
-1.83868,0.372314,
-1.74103,0.387573,
-1.64948,0.38147,
-1.56403,0.341797,
-1.48468,0.309753,
-1.40686,0.372314,
-1.33667,0.390625,
-1.28021,0.376892,
-1.22681,0.332642,
-1.18561,0.299072,
-1.14899,0.354004,
-1.11389,0.352478,
-1.08643,0.379944,
-1.06964,0.341797,
-1.05286,0.312805,
-1.04523,0.378418,
-1.0437,0.387573,
-1.0437,0.378418,
-1.04828,0.341797,
-1.05743,0.358582,
-1.06964,0.372314,
-1.0849,0.389099,
-1.09711,0.37384,
-1.11389,0.344849,
-1.13373,0.306702,
-1.15356,0.375366,
-1.18103,0.389099,
-1.20239,0.42572,
-1.23138,0.344849,
-1.25732,0.308228,
-1.28326,0.37384,
-1.31226,0.396729,
-1.33972,0.378418,
-1.37024,0.344849,
-1.40686,0.315857,
-1.44348,0.366211,
-1.47552,0.386047,
-1.51215,0.375366,
-1.54877,0.344849,
-1.58844,0.311279,
-1.62048,0.370789,
-1.65405,0.384521,
-1.68762,0.37384,
-1.72272,0.349426,
-1.74561,0.314331,
-1.76849,0.369263,
-1.79291,0.38147,
-1.81122,0.369263,
-1.8219,0.344849,
-1.83716,0.314331,
-1.84631,0.366211,
-1.85547,0.384521,
-1.86005,0.37384,
-1.86157,0.344849,
-1.86462,0.315857,
-1.86462,0.361633,
-1.86157,0.386047,
-1.85547,0.372314,
-1.84784,0.344849,
-1.84479,0.309753,
-1.83563,0.37384,
-1.828,0.382996,
-1.8158,0.341797,
-1.80664,0.344849,
-1.79749,0.314331,
-1.79291,0.369263,
-1.78223,0.39978,
-1.7746,0.375366,
-1.76392,0.349426,
-1.75781,0.309753,
-1.75476,0.358582,
-1.74561,0.372314,
-1.7395,0.35553,
-1.73645,0.346375,
-1.7334,0.314331,
-1.73187,0.366211,
-1.73187,0.38147,
-1.72882,0.370789,
-1.73492,0.3479,
-1.73492,0.302124,
-1.73492,0.366211,
-1.74255,0.386047,
-1.74561,0.369263,
-1.75781,0.346375,
-1.76849,0.30365,
-1.7807,0.360107,
-1.78986,0.384521,
-1.80206,0.372314,
-1.81427,0.344849,
-1.83258,0.317383,
-1.84937,0.363159,
-1.86768,0.379944,
-1.88293,0.370789,
-1.90277,0.37384,
-1.92261,0.317383,
-1.9455,0.361633,
-1.96838,0.382996,
-1.9928,0.370789,
-2.01569,0.346375,
