-0.108337,0.592041,
-0.0991821,0.570679,
-0.0991821,0.575256,
-0.0991821,0.6073,
-0.109863,0.636292,
-0.123596,0.595093,
-0.135803,0.567627,
-0.15564,0.575256,
-0.178528,0.604248,
-0.198364,0.636292,
-0.221252,0.592041,
-0.247192,0.567627,
-0.274658,0.576782,
-0.306702,0.605774,
-0.340271,0.63324,
-0.370789,0.595093,
-0.405884,0.566101,
-0.437927,0.576782,
-0.476074,0.604248,
-0.514221,0.639343,
-0.547791,0.593567,
-0.588989,0.567627,
-0.630188,0.578308,
-0.668335,0.608826,
-0.708008,0.634766,
-0.738525,0.593567,
-0.776672,0.569153,
-0.816345,0.576782,
-0.849915,0.605774,
-0.880432,0.634766,
-0.912476,0.59967,
-0.941467,0.567627,
-0.959778,0.576782,
-0.979614,0.605774,
-0.991821,0.645447,
-1.01013,0.595093,
-1.02234,0.569153,
-1.03455,0.578308,
-1.04218,0.610352,
-1.05438,0.637817,
-1.05286,0.588989,
-1.05743,0.57373,
-1.05133,0.578308,
-1.0498,0.604248,
-1.04218,0.639343,
-1.03607,0.593567,
-1.02844,0.570679,
-1.02386,0.578308,
-1.01929,0.605774,
-1.01013,0.636292,
-0.996399,0.595093,
-0.990295,0.570679,
-0.985718,0.578308,
-0.975037,0.604248,
-0.968933,0.634766,
-0.964355,0.593567,
-0.959778,0.570679,
-0.964355,0.584412,
-0.971985,0.610352,
-0.975037,0.634766,
-0.984192,0.595093,
-0.994873,0.567627,
-1.01013,0.579834,
-1.02081,0.598145,
-1.04218,0.640869,
-1.06812,0.598145,
-1.09711,0.563049,
-1.13068,0.58136,
-1.16425,0.601196,
-1.20239,0.627136,
-1.24359,0.584412,
-1.29395,0.543213,
-1.3443,0.575256,
-1.39771,0.602722,
-1.44958,0.631714,
-1.49994,0.604248,
-1.5564,0.58136,
-1.61133,0.578308,
-1.66473,0.646973,
-1.71661,0.608826,
-1.76849,0.59967,
-1.82495,0.570679,
-1.87683,0.578308,
-1.93176,0.601196,
-1.98364,0.63324,
-2.03094,0.59967,
-2.08282,0.569153,
-2.1286,0.579834,
-2.17743,0.601196,
-2.22321,0.634766,
-2.26746,0.598145,
-2.31323,0.569153,
-2.35291,0.579834,
-2.3941,0.601196,
-2.4353,0.63324,
-2.47498,0.598145,
-2.51617,0.570679,
-2.5528,0.578308,
-2.58789,0.601196,
-2.61993,0.636292,
-2.65656,0.602722,
-2.68707,0.55542,
-2.71301,0.556946,
-2.74353,0.605774,
-2.76947,0.636292,
-2.79083,0.585938,
-2.81219,0.570679,
-2.83813,0.579834,
-2.85492,0.601196,
-2.8717,0.669861,
-2.89154,0.601196,
-2.90985,0.572205,
-2.92969,0.578308,
-2.95105,0.602722,
-2.97089,0.628662,
-2.99377,0.59967,
-3.01514,0.569153,
-3.03192,0.584412,
-3.0426,0.59967,
-3.05328,0.631714,
-3.07007,0.598145,
-3.07922,0.575256,
-3.08838,0.58136,
-3.09906,0.601196,
-3.11279,0.631714,
-3.12347,0.59967,
-3.13721,0.570679,
-3.14331,0.579834,
-3.15094,0.604248,
-3.15704,0.631714,
-3.16162,0.602722,
-3.17688,0.570679,
-3.17993,0.563049,
-3.18909,0.604248,
-3.19366,0.63324,
-3.20587,0.598145,
-3.21198,0.567627,
-3.21808,0.576782,
-3.23334,0.604248,
-3.24097,0.628662,
-3.25165,0.59967,
-3.26385,0.570679,
-3.27454,0.582886,
-3.28674,0.601196,
-3.30353,0.637817,
-3.31573,0.598145,
-3.3371,0.567627,
-3.35388,0.57373,
-3.37372,0.59967,
-3.39813,0.627136,
-3.42712,0.59967,
-3.45154,0.569153,
-3.479,0.579834,
-3.50189,0.613403,
-3.52783,0.634766,
-3.54767,0.63324,
-3.57361,0.578308,
-3.60107,0.579834,
-3.62549,0.595093,
-3.64838,0.627136,
-3.67584,0.595093,
-3.70483,0.569153,
-3.72925,0.579834,
-3.75824,0.602722,
-3.77655,0.631714,
-3.80249,0.602722,
-3.8269,0.567627,
-3.85284,0.578308,
-3.87268,0.602722,
-3.89099,0.631714,
-3.91235,0.601196,
-3.93372,0.569153,
-3.95508,0.576782,
-3.97491,0.605774,
-3.98712,0.63324,
-3.99475,0.601196,
-3.99628,0.569153,
-3.9856,0.578308,
-3.96423,0.601196,
-3.93372,0.622559,
-3.89252,0.595093,
-3.83606,0.569153,
-3.77045,0.578308,
-3.685,0.601196,
-3.58734,0.63324,
-3.48358,0.59967,
-3.36609,0.570679,
-3.23792,0.578308,
-3.10516,0.598145,
-2.95563,0.631714,
-2.80304,0.602722,
-2.65198,0.570679,
-2.50092,0.576782,
-2.34985,0.595093,
-2.19574,0.636292,
-2.0462,0.602722,
-1.90125,0.569153,
-1.75934,0.58136,
-1.62506,0.601196,
-1.49384,0.628662,
-1.37329,0.605774,
-1.25427,0.567627,
-1.14594,0.578308,
-1.04218,0.59967,
-0.941467,0.631714,
-0.854492,0.602722,
-0.772095,0.570679,
-0.700378,0.585938,
-0.634766,0.601196,
-0.57373,0.616455,
-0.526428,0.602722,
-0.4776,0.566101,
-0.444031,0.579834,
-0.418091,0.598145,
-0.398254,0.628662,
-0.379944,0.608826,
-0.369263,0.585938,
-0.366211,0.59967,
-0.370789,0.595093,
-0.384521,0.636292,
-0.393677,0.602722,
-0.410461,0.566101,
-0.43335,0.579834,
-0.454712,0.59967,
-0.485229,0.631714,
-0.511169,0.601196,
-0.55542,0.569153,
-0.593567,0.578308,
-0.628662,0.605774,
-0.674438,0.628662,
-0.717163,0.602722,
-0.764465,0.569153,
-0.808716,0.578308,
-0.849915,0.602722,
-0.898743,0.628662,
-0.947571,0.595093,
-0.999451,0.569153,
-1.0437,0.58136,
-1.08948,0.601196,
-1.13373,0.617981,
-1.18103,0.601196,
-1.2207,0.559998,
-1.26038,0.576782,
-1.29547,0.598145,
-1.32599,0.63324,
-1.35651,0.601196,
-1.39008,0.567627,
-1.41754,0.58136,
-1.4389,0.601196,
-1.46332,0.628662,
-1.48315,0.601196,
-1.49689,0.569153,
-1.5152,0.576782,
-1.52588,0.602722,
-1.53503,0.63324,
-1.54572,0.604248,
-1.55182,0.566101,
-1.55487,0.57373,
-1.55792,0.602722,
-1.55487,0.628662,
-1.55182,0.601196,
-1.55029,0.566101,
-1.54419,0.579834,
-1.53961,0.601196,
-1.53046,0.63324,
-1.52283,0.602722,
-1.51672,0.566101,
-1.50909,0.575256,
-1.50909,0.59967,
-1.50299,0.624084,
-1.49994,0.602722,
-1.49231,0.567627,
-1.49384,0.575256,
-1.49536,0.604248,
-1.49384,0.634766,
-1.49689,0.602722,
-1.49841,0.572205,
-1.50757,0.576782,
-1.51215,0.592041,
-1.51825,0.621033,
-1.5274,0.601196,
-1.53046,0.567627,
-1.53656,0.578308,
-1.54266,0.601196,
-1.54877,0.628662,
-1.55945,0.604248,
-1.5625,0.575256,
-1.57013,0.57373,
-1.58539,0.595093,
-1.59607,0.63324,
-1.61438,0.602722,
-1.63422,0.561523,
-1.6571,0.575256,
-1.67694,0.59967,
-1.70441,0.628662,
-1.7334,0.602722,
-1.76697,0.566101,
-1.79749,0.572205,
-1.82495,0.598145,
-1.85242,0.628662,
-1.88751,0.604248,
-1.91498,0.567627,
-1.95007,0.575256,
-1.98059,0.601196,
-2.01569,0.636292,
-2.04315,0.611877,
-2.07825,0.567627,
-2.11487,0.572205,
-2.14386,0.59967,
-2.17438,0.63324,
-2.20184,0.6073,
-2.22778,0.556946,
-2.26135,0.57373,
-2.29492,0.595093,
-2.32697,0.639343,
-2.35748,0.608826,
-2.38953,0.569153,
-2.41852,0.582886,
-2.44446,0.598145,
-2.46735,0.674438,
-2.49634,0.610352,
-2.52686,0.567627,
-2.5589,0.575256,
-2.58331,0.601196,
-2.6123,0.628662,
-2.64435,0.608826,
-2.67334,0.569153,
-2.70233,0.598145,
-2.73285,0.59967,
-2.75726,0.63324,
-2.79236,0.608826,
-2.82135,0.569153,
-2.85187,0.576782,
-2.87933,0.601196,
-2.9068,0.616455,
-2.93427,0.6073,
-2.96326,0.569153,
-2.9892,0.576782,
-3.01666,0.601196,
-3.04413,0.627136,
-3.06854,0.6073,
-3.08838,0.570679,
-3.11127,0.572205,
-3.13568,0.590515,
-3.15552,0.628662,
-3.17993,0.608826,
-3.20282,0.566101,
-3.22876,0.57373,
-3.25012,0.598145,
-3.27301,0.627136,
-3.29285,0.6073,
-3.32031,0.572205,
-3.34015,0.572205,
-3.36151,0.59967,
-3.38287,0.628662,
-3.40576,0.611877,
-3.42255,0.575256,
-3.44086,0.57373,
-3.46069,0.601196,
-3.479,0.631714,
-3.49731,0.610352,
-3.51105,0.569153,
-3.52478,0.57373,
-3.53851,0.601196,
-3.55225,0.627136,
-3.56903,0.6073,
-3.58887,0.57373,
-3.60565,0.570679,
-3.62854,0.59967,
-3.64685,0.621033,
-3.66821,0.587463,
-3.68958,0.559998,
-3.70789,0.572205,
-3.72772,0.601196,
-3.74146,0.627136,
-3.75977,0.611877,
-3.7735,0.566101,
-3.79333,0.55542,
-3.80096,0.601196,
-3.81012,0.63324,
-3.81165,0.611877,
-3.81317,0.567627,
-3.79944,0.570679,
-3.77808,0.601196,
-3.75214,0.628662,
-3.71552,0.614929,
-3.66516,0.566101,
-3.60413,0.570679,
-3.53241,0.601196,
-3.44391,0.628662,
-3.34625,0.611877,
-3.24554,0.570679,
-3.1311,0.572205,
-3.00903,0.59967,
-2.88239,0.631714,
-2.75726,0.614929,
-2.62451,0.569153,
-2.49634,0.572205,
-2.36511,0.59967,
-2.24304,0.62561,
-2.11487,0.611877,
-1.99738,0.569153,
-1.87836,0.569153,
-1.76544,0.598145,
-1.65558,0.628662,
-1.54877,0.616455,
-1.44653,0.566101,
-1.34888,0.569153,
-1.26038,0.601196,
-1.17798,0.631714,
-1.09711,0.614929,
-1.02997,0.563049,
-0.961304,0.569153,
-0.906372,0.598145,
-0.854492,0.634766,
-0.811768,0.611877,
-0.779724,0.570679,
-0.75531,0.572205,
-0.735474,0.601196,
-0.715637,0.628662,
-0.708008,0.619507,
-0.700378,0.563049,
-0.700378,0.604248,
-0.70343,0.604248,
-0.714111,0.628662,
-0.730896,0.614929,
-0.743103,0.567627,
-0.758362,0.569153,
-0.78125,0.59967,
-0.811768,0.627136,
-0.839233,0.611877,
-0.868225,0.567627,
-0.900269,0.572205,
-0.93689,0.602722,
-0.970459,0.627136,
-1.01318,0.616455,
-1.05591,0.563049,
-1.10168,0.572205,
-1.14441,0.601196,
-1.19629,0.63324,
-1.25275,0.613403,
-1.30157,0.567627,
-1.35498,0.572205,
-1.39923,0.602722,
-1.44958,0.628662,
-1.49384,0.613403,
-1.53961,0.561523,
-1.58539,0.572205,
-1.62506,0.601196,
-1.66168,0.631714,
-1.69373,0.617981,
-1.72729,0.563049,
-1.75781,0.572205,
-1.78528,0.585938,
-1.80817,0.631714,
-1.83105,0.616455,
-1.84784,0.569153,
-1.86615,0.572205,
-1.87683,0.608826,
-1.88751,0.631714,
-1.89667,0.617981,
-1.9043,0.567627,
-1.90887,0.570679,
-1.91498,0.602722,
-1.92413,0.631714,
-1.92413,0.619507,
-1.92871,0.563049,
-1.92719,0.570679,
-1.92261,0.6073,
-1.9104,0.631714,
-1.91193,0.621033,
-1.90582,0.567627,
-1.90125,0.572205,
-1.89362,0.604248,
-1.88904,0.63324,
-1.88599,0.621033,
-1.87988,0.569153,
-1.87988,0.575256,
-1.87378,0.604248,
-1.86768,0.631714,
-1.85852,0.617981,
-1.85547,0.569153,
-1.85242,0.572205,
-1.84784,0.604248,
-1.84784,0.628662,
-1.85089,0.622559,
-1.86005,0.584412,
-1.86462,0.57373,
-1.87225,0.653076,
-1.87683,0.62561,
-1.88599,0.619507,
-1.89514,0.569153,
-1.90277,0.566101,
-1.9043,0.608826,
-1.9165,0.642395,
-1.91956,0.605774,
-1.92871,0.570679,
-1.93939,0.556946,
-1.95465,0.611877,
-1.96686,0.628662,
-1.98059,0.619507,
-1.9928,0.569153,
-2.01721,0.549316,
-2.03705,0.613403,
-2.05841,0.636292,
-2.08282,0.624084,
-2.10571,0.570679,
-2.12402,0.575256,
-2.15149,0.605774,
-2.17133,0.634766,
-2.19727,0.62561,
-2.22626,0.572205,
-2.25525,0.575256,
-2.27966,0.610352,
-2.3056,0.639343,
-2.33154,0.62561,
-2.36053,0.57373,
-2.39105,0.576782,
-2.42615,0.610352,
-2.45667,0.637817,
-2.47955,0.628662,
-2.50702,0.572205,
-2.53448,0.576782,
-2.56042,0.608826,
-2.58942,0.636292,
-2.61841,0.627136,
-2.6535,0.570679,
-2.6886,0.576782,
-2.72064,0.611877,
-2.74963,0.640869,
-2.78168,0.617981,
-2.81525,0.57373,
-2.84576,0.582886,
-2.88239,0.6073,
-2.91595,0.636292,
-2.948,0.628662,
-2.98462,0.575256,
-3.01514,0.579834,
-3.04413,0.619507,
-3.07617,0.642395,
-3.10059,0.627136,
-3.12805,0.576782,
-3.15399,0.579834,
-3.18146,0.613403,
-3.20282,0.639343,
-3.22113,0.63324,
-3.24402,0.575256,
-3.26385,0.578308,
-3.28979,0.613403,
-3.31116,0.642395,
-3.33252,0.637817,
-3.35236,0.57373,
-3.37372,0.579834,
-3.39203,0.613403,
-3.41949,0.643921,
-3.43628,0.628662,
-3.46222,0.6073,
-3.48511,0.579834,
-3.508,0.614929,
-3.53241,0.640869,
-3.55835,0.636292,
-3.58124,0.578308,
-3.6026,0.578308,
-3.62549,0.617981,
-3.6499,0.643921,
-3.68042,0.634766,
-3.70331,0.575256,
-3.7262,0.58136,
-3.74603,0.617981,
-3.76282,0.643921,
-3.78418,0.636292,
-3.79791,0.578308,
-3.81012,0.587463,
-3.81927,0.617981,
-3.8269,0.645447,
-3.8208,0.636292,
-3.81165,0.576782,
-3.79791,0.584412,
-3.77655,0.619507,
-3.73993,0.634766,
-3.69568,0.613403,
-3.64227,0.575256,
-3.57971,0.582886,
-3.51105,0.619507,
-3.42712,0.645447,
-3.33252,0.63324,
-3.24402,0.579834,
-3.14178,0.590515,
-3.0365,0.656128,
-2.92053,0.645447,
-2.81067,0.640869,
-2.69165,0.579834,
-2.57263,0.58136,
-2.45514,0.622559,
-2.33459,0.654602,
-2.22168,0.631714,
-2.11487,0.579834,
-2.01111,0.587463,
-1.90735,0.619507,
-1.80359,0.645447,
-1.69983,0.642395,
-1.61133,0.579834,
-1.52435,0.585938,
-1.44043,0.622559,
-1.36261,0.65155,
-1.29242,0.640869,
-1.22375,0.582886,
-1.16577,0.582886,
-1.11389,0.62561,
-1.07117,0.648499,
-1.03302,0.642395,
-1.00555,0.582886,
-0.982666,0.587463,
-0.961304,0.624084,
-0.947571,0.650024,
-0.935364,0.646973,
-0.932312,0.587463,
-0.926208,0.587463,
-0.932312,0.624084,
-0.935364,0.657654,
-0.942993,0.642395,
-0.956726,0.622559,
-0.976563,0.585938,
-0.991821,0.631714,
-1.01624,0.650024,
-1.04523,0.645447,
-1.07269,0.587463,
-1.10931,0.587463,
-1.13983,0.624084,
-1.18103,0.65155,
-1.22681,0.627136,
-1.26953,0.592041,
-1.32294,0.585938,
-1.36871,0.631714,
-1.41296,0.653076,
-1.45874,0.65155,
-1.50757,0.585938,
-1.55334,0.592041,
-1.6037,0.636292,
-1.65253,0.656128,
-1.6983,0.65155,
-1.74255,0.592041,
-1.78375,0.588989,
-1.83105,0.627136,
-1.8692,0.656128,
-1.9104,0.650024,
-1.9455,0.592041,
-1.97906,0.590515,
-2.00958,0.627136,
-2.03857,0.654602,
-2.05536,0.650024,
-2.0752,0.592041,
-2.08588,0.587463,
-2.09351,0.62561,
-2.09656,0.657654,
-2.10419,0.646973,
-2.09961,0.592041,
-2.10266,0.588989,
-2.10419,0.627136,
-2.10114,0.656128,
-2.08893,0.65155,
-2.08893,0.595093,
-2.08282,0.587463,
-2.07367,0.628662,
-2.06909,0.662231,
-2.05688,0.650024,
-2.05536,0.593567,
-2.04926,0.588989,
-2.04163,0.631714,
-2.03094,0.65918,
-2.01874,0.637817,
-2.00958,0.593567,
-2.00348,0.590515,
-1.99738,0.628662,
-1.9928,0.657654,
-1.9928,0.648499,
-1.98822,0.592041,
-1.99127,0.63324,
-1.98669,0.628662,
-1.98364,0.660706,
-1.98364,0.653076,
-1.98669,0.593567,
-1.99585,0.590515,
-2.00043,0.631714,
-2.005,0.656128,
-2.01263,0.650024,
-2.02332,0.595093,
-2.03705,0.585938,
-2.04773,0.627136,
-2.06146,0.65918,
-2.07977,0.654602,
-2.09503,0.593567,
-2.11945,0.58136,
-2.14386,0.631714,
-2.1698,0.660706,
-2.19116,0.65155,
-2.2171,0.593567,
-2.24609,0.590515,
-2.2644,0.628662,
-2.29187,0.660706,
-2.31476,0.653076,
-2.34375,0.598145,
-2.37427,0.593567,
-2.39716,0.63324,
-2.42615,0.666809,
-2.45667,0.654602,
-2.48108,0.595093,
-2.50854,0.598145,
-2.53448,0.634766,
-2.56348,0.660706,
-2.59094,0.656128,
-2.61536,0.601196,
-2.63977,0.590515,
-2.66724,0.622559,
-2.69775,0.65918,
-2.72522,0.656128,
-2.75421,0.598145,
-2.78015,0.593567,
-2.80914,0.634766,
-2.83813,0.662231,
-2.86865,0.65918,
-2.89307,0.59967,
-2.92053,0.593567,
-2.94952,0.634766,
-2.98462,0.660706,
-3.01514,0.657654,
-3.04413,0.595093,
-3.07312,0.593567,
-3.09906,0.634766,
-3.12805,0.668335,
-3.15094,0.656128,
-3.17993,0.598145,
-3.20892,0.598145,
-3.23944,0.634766,
-3.2608,0.665283,
-3.28979,0.660706,
-3.31879,0.593567,
-3.34778,0.595093,
-3.37372,0.63324,
-3.39661,0.65918,
-3.41644,0.654602,
-3.44391,0.598145,
-3.47443,0.595093,
-3.49731,0.636292,
-3.5202,0.668335,
-3.54462,0.662231,
-3.5675,0.601196,
-3.58887,0.598145,
-3.60413,0.63324,
-3.62244,0.662231,
-3.63922,0.657654,
-3.66211,0.59967,
-3.68652,0.604248,
-3.70789,0.637817,
-3.73077,0.665283,
-3.75061,0.657654,
-3.77197,0.601196,
-3.79333,0.593567,
-3.81165,0.637817,
-3.83148,0.67749,
-3.84674,0.660706,
-3.86353,0.59967,
-3.87115,0.593567,
-3.87878,0.640869,
-3.87878,0.666809,
-3.87421,0.660706,
-3.862,0.602722,
-3.83911,0.595093,
-3.80707,0.636292,
-3.76434,0.666809,
-3.71552,0.657654,
-3.65601,0.604248,
-3.58734,0.601196,
-3.5141,0.628662,
-3.42712,0.668335,
-3.34015,0.657654,
-3.23639,0.604248,
-3.12805,0.595093,
-3.01514,0.63324,
-2.9007,0.665283,
-2.78015,0.656128,
-2.66571,0.602722,
-2.54822,0.595093,
-2.43073,0.63324,
-2.31628,0.666809,
-2.20642,0.660706,
-2.09045,0.605774,
-1.98364,0.598145,
-1.88141,0.634766,
-1.78528,0.662231,
-1.69525,0.657654,
-1.60675,0.604248,
-1.52588,0.58136,
-1.44958,0.614929,
-1.37787,0.666809,
-1.31378,0.662231,
-1.2558,0.598145,
-1.2085,0.593567,
-1.15509,0.643921,
-1.11542,0.665283,
-1.0788,0.700378,
-1.04828,0.592041,
-1.02692,0.59967,
-1.01318,0.631714,
-0.996399,0.669861,
-0.985718,0.653076,
-0.976563,0.59967,
-0.973511,0.592041,
-0.971985,0.634766,
-0.975037,0.665283,
-0.978088,0.654602,
-0.984192,0.602722,
-0.993347,0.595093,
-1.01013,0.63324,
-1.01929,0.666809,
-1.04065,0.654602,
-1.06201,0.601196,
-1.08643,0.592041,
-1.11389,0.634766,
-1.14136,0.666809,
-1.17035,0.65918,
-1.20544,0.601196,
-1.24054,0.590515,
-1.28021,0.63324,
-1.31531,0.668335,
-1.35193,0.657654,
-1.39008,0.59967,
-1.42822,0.592041,
-1.46942,0.634766,
-1.50757,0.668335,
-1.54419,0.654602,
-1.58081,0.59967,
-1.61896,0.595093,
-1.64795,0.627136,
-1.67999,0.668335,
-1.70746,0.65918,
-1.73798,0.604248,
-1.76086,0.593567,
-1.78375,0.63324,
-1.80206,0.672913,
-1.8219,0.642395,
-1.84174,0.602722,
-1.85547,0.592041,
-1.8692,0.63324,
-1.88141,0.665283,
-1.89362,0.65918,
-1.89972,0.601196,
-1.9043,0.593567,
-1.90887,0.637817,
-1.9104,0.666809,
-1.90887,0.656128,
-1.9104,0.601196,
-1.90735,0.569153,
-1.90735,0.63324,
-1.9043,0.662231,
-1.89056,0.656128,
-1.88293,0.59967,
-1.87683,0.592041,
-1.87378,0.631714,
-1.87073,0.662231,
-1.86615,0.654602,
-1.86615,0.601196,
-1.8631,0.592041,
-1.8631,0.63324,
-1.86005,0.662231,
-1.86005,0.666809,
-1.86462,0.601196,
-1.86615,0.592041,
-1.87225,0.642395,
-1.87531,0.662231,
-1.88141,0.654602,
-1.88446,0.602722,
-1.89514,0.588989,
-1.9043,0.631714,
-1.9165,0.666809,
-1.92108,0.627136,
-1.93634,0.605774,
-1.9455,0.593567,
-1.96838,0.634766,
-1.98822,0.672913,
-2.00806,0.665283,
-2.03094,0.595093,
-2.05231,0.595093,
-2.07367,0.622559,
-2.09045,0.671387,
-2.11182,0.654602,
-2.13776,0.602722,
-2.16217,0.595093,
-2.18353,0.628662,
-2.211,0.662231,
-2.22931,0.656128,
-2.25525,0.602722,
-2.27966,0.595093,
-2.3056,0.63324,
-2.32849,0.65918,
-2.35443,0.654602,
-2.38037,0.608826,
-2.40936,0.592041,
-2.43683,0.634766,
-2.46124,0.668335,
-2.48413,0.653076,
-2.51312,0.601196,
-2.53448,0.590515,
-2.565,0.622559,
-2.59399,0.662231,
-2.62146,0.656128,
-2.65503,0.602722,
-2.67944,0.590515,
-2.70691,0.628662,
-2.73438,0.665283,
-2.76031,0.653076,
-2.7832,0.59967,
-2.81219,0.593567,
-2.83661,0.627136,
-2.86255,0.666809,
-2.88239,0.656128,
-2.90985,0.602722,
-2.93427,0.592041,
-2.96326,0.631714,
-2.98615,0.665283,
-3.00751,0.653076,
-3.03345,0.601196,
-3.05023,0.587463,
-3.07617,0.628662,
-3.09906,0.666809,
-3.11737,0.656128,
-3.14636,0.601196,
-3.17078,0.592041,
-3.19977,0.631714,
-3.22113,0.666809,
-3.23792,0.65155,
-3.2608,0.601196,
-3.28064,0.590515,
-3.2959,0.627136,
-3.31421,0.657654,
-3.33252,0.654602,
-3.35388,0.602722,
-3.3783,0.592041,
-3.39966,0.63324,
-3.41797,0.65155,
-3.43628,0.634766,
-3.45612,0.598145,
-3.47748,0.587463,
-3.49884,0.627136,
-3.52173,0.666809,
-3.53851,0.660706,
-3.5614,0.59967,
-3.58582,0.627136,
-3.60565,0.624084,
-3.62549,0.665283,
-3.63922,0.65155,
-3.65448,0.605774,
-3.67432,0.593567,
-3.69415,0.642395,
-3.71246,0.645447,
-3.73077,0.65155,
-3.74908,0.598145,
-3.75977,0.588989,
-3.76587,0.634766,
-3.76587,0.657654,
-3.76587,0.65155,
-3.75671,0.604248,
-3.7384,0.587463,
-3.71552,0.634766,
-3.68042,0.662231,
-3.6377,0.650024,
-3.58124,0.601196,
-3.52936,0.585938,
-3.47137,0.627136,
-3.39661,0.660706,
-3.32184,0.648499,
-3.23486,0.6073,
-3.14331,0.585938,
-3.04871,0.628662,
-2.9541,0.662231,
-2.85797,0.650024,
-2.76031,0.598145,
-2.65808,0.590515,
-2.56042,0.628662,
-2.46582,0.660706,
-2.37427,0.642395,
-2.27661,0.590515,
-2.18506,0.585938,
-2.09961,0.627136,
-2.01569,0.653076,
-1.94092,0.645447,
-1.86768,0.602722,
-1.80359,0.590515,
-1.73798,0.624084,
-1.67542,0.645447,
-1.62201,0.646973,
-1.57318,0.598145,
-1.5274,0.590515,
-1.48773,0.627136,
-1.46027,0.657654,
-1.43127,0.640869,
-1.40228,0.592041,
-1.38855,0.593567,
-1.37482,0.610352,
-1.36566,0.65918,
-1.35345,0.643921,
-1.3443,0.598145,
-1.33667,0.595093,
-1.33209,0.640869,
-1.32751,0.662231,
-1.33057,0.643921,
-1.33209,0.614929,
-1.3443,0.590515,
-1.35498,0.631714,
-1.37024,0.660706,
-1.38245,0.645447,
-1.40228,0.604248,
-1.42059,0.588989,
-1.44348,0.631714,
-1.46637,0.657654,
-1.49231,0.645447,
-1.51672,0.59967,
-1.54419,0.588989,
-1.57623,0.631714,
-1.60522,0.660706,
-1.63269,0.645447,
-1.66779,0.601196,
-1.6983,0.588989,
-1.73187,0.628662,
-1.76697,0.660706,
-1.79749,0.643921,
-1.828,0.593567,
-1.86005,0.588989,
-1.88293,0.628662,
-1.90887,0.657654,
-1.93329,0.643921,
-1.95923,0.59967,
-1.98364,0.588989,
-2.00195,0.627136,
-2.01721,0.65918,
-2.02789,0.640869,
-2.04315,0.59967,
-2.05078,0.588989,
-2.06146,0.627136,
-2.06604,0.65918,
-2.07062,0.642395,
-2.07062,0.593567,
-2.07672,0.587463,
-2.07825,0.631714,
-2.08282,0.668335,
-2.08435,0.650024,
-2.08435,0.595093,
-2.07977,0.584412,
-2.07825,0.616455,
-2.07672,0.640869,
-2.07825,0.642395,
-2.07367,0.59967,
-2.06757,0.587463,
-2.06757,0.62561,
-2.07062,0.674438,
-2.06604,0.639343,
-2.06451,0.637817,
-2.06604,0.584412,
-2.07062,0.63324,
-2.07367,0.65918,
-2.0752,0.646973,
-2.07672,0.592041,
-2.07977,0.587463,
-2.08282,0.631714,
-2.08282,0.660706,
-2.08435,0.636292,
-2.0874,0.593567,
-2.09503,0.588989,
-2.10419,0.628662,
-2.10876,0.657654,
-2.11029,0.636292,
-2.12402,0.595093,
-2.13776,0.590515,
-2.14844,0.62561,
-2.16064,0.65918,
-2.1759,0.636292,
-2.18811,0.598145,
-2.2049,0.584412,
-2.22015,0.628662,
-2.23846,0.656128,
-2.25372,0.637817,
-2.27356,0.598145,
-2.29645,0.584412,
-2.31781,0.631714,
-2.33917,0.660706,
-2.35596,0.637817,
-2.37732,0.59967,
-2.39563,0.585938,
-2.42157,0.62561,
-2.43988,0.660706,
-2.46735,0.637817,
-2.49176,0.598145,
-2.5177,0.587463,
-2.54211,0.628662,
-2.56805,0.657654,
-2.59247,0.637817,
-2.62146,0.595093,
-2.64893,0.584412,
-2.67487,0.628662,
-2.70538,0.660706,
-2.73743,0.63324,
-2.76489,0.593567,
-2.79083,0.587463,
-2.8244,0.627136,
-2.85187,0.65918,
-2.87781,0.637817,
-2.90375,0.598145,
-2.93427,0.584412,
-2.96021,0.628662,
-2.99072,0.657654,
-3.01971,0.637817,
-3.04413,0.595093,
-3.06854,0.590515,
-3.09296,0.628662,
-3.1189,0.65918,
-3.14484,0.637817,
-3.16925,0.595093,
-3.19366,0.587463,
-3.2196,0.627136,
-3.24554,0.657654,
-3.26843,0.634766,
-3.28369,0.59967,
-3.31116,0.631714,
-3.32947,0.627136,
-3.35236,0.660706,
-3.37677,0.63324,
-3.3905,0.593567,
-3.40881,0.587463,
-3.42865,0.628662,
-3.45001,0.654602,
-3.4668,0.637817,
-3.48816,0.595093,
-3.50342,0.588989,
-3.52325,0.628662,
-3.53546,0.65918,
-3.55225,0.640869,
-3.56445,0.604248,
-3.57971,0.588989,
-3.59802,0.627136,
-3.61481,0.669861,
-3.63312,0.636292,
-3.65295,0.595093,
-3.66821,0.584412,
-3.69263,0.62561,
-3.71552,0.665283,
-3.7323,0.634766,
-3.75824,0.590515,
-3.77502,0.588989,
-3.80249,0.624084,
-3.82385,0.657654,
-3.84216,0.639343,
-3.86353,0.595093,
-3.88184,0.588989,
-3.89709,0.619507,
-3.91541,0.657654,
-3.93066,0.634766,
-3.94745,0.595093,
-3.96271,0.588989,
-3.98254,0.624084,
-3.99933,0.657654,
-4.01764,0.634766,
-4.0329,0.595093,
-4.05273,0.592041,
-4.06952,0.622559,
-4.0802,0.654602,
-4.0863,0.639343,
-4.09393,0.592041,
-4.09241,0.588989,
-4.0863,0.622559,
-4.07867,0.65918,
-4.05884,0.634766,
-4.03442,0.593567,
-4.00391,0.592041,
-3.96729,0.619507,
-3.92609,0.639343,
-3.86658,0.631714,
-3.80402,0.598145,
-3.7384,0.59967,
-3.66516,0.63324,
-3.58276,0.653076,
-3.50189,0.627136,
-3.40881,0.592041,
-3.32184,0.588989,
-3.23334,0.613403,
-3.14178,0.660706,
-3.04413,0.631714,
-2.94647,0.592041,
-2.86102,0.588989,
-2.76794,0.624084,
-2.67944,0.656128,
-2.59399,0.631714,
-2.5116,0.593567,
-2.4353,0.590515,
-2.35901,0.62561,
-2.28271,0.656128,
-2.21405,0.628662,
-2.14386,0.590515,
-2.08435,0.587463,
-2.02484,0.622559,
-1.97449,0.654602,
-1.92108,0.63324,
-1.88446,0.590515,
-1.84174,0.587463,
-1.81122,0.621033,
-1.77765,0.65918,
-1.74866,0.631714,
-1.72729,0.587463,
-1.71204,0.587463,
-1.6983,0.619507,
-1.6861,0.654602,
-1.67999,0.628662,
-1.67847,0.590515,
-1.67694,0.590515,
-1.68152,0.62561,
-1.68762,0.660706,
-1.69525,0.628662,
-1.70441,0.588989,
-1.71509,0.590515,
-1.72424,0.622559,
-1.73492,0.660706,
-1.75018,0.634766,
-1.76392,0.588989,
-1.7807,0.584412,
-1.79901,0.624084,
-1.82037,0.660706,
-1.84479,0.631714,
-1.8692,0.592041,
-1.89362,0.579834,
-1.9165,0.624084,
-1.93939,0.631714,
-1.95923,0.634766,
-1.98517,0.601196,
-2.01111,0.587463,
-2.03552,0.622559,
-2.05994,0.668335,
-2.08282,0.631714,
-2.09961,0.636292,
-2.11487,0.566101,
-2.13013,0.622559,
-2.14691,0.653076,
-2.16522,0.639343,
-2.18353,0.592041,
-2.20184,0.584412,
-2.20947,0.624084,
-2.21863,0.654602,
-2.22778,0.631714,
-2.23846,0.598145,
-2.24457,0.590515,
-2.2522,0.628662,
-2.2522,0.65918,
-2.25067,0.631714,
-2.24762,0.601196,
-2.24762,0.585938,
-2.24457,0.62561,
-2.23999,0.654602,
-2.24304,0.63324,
-2.24152,0.588989,
-2.23694,0.579834,
-2.22778,0.621033,
-2.22473,0.654602,
-2.22626,0.636292,
-2.22015,0.578308,
-2.22015,0.590515,
-2.22015,0.622559,
-2.22015,0.65918,
-2.21863,0.636292,
-2.2171,0.590515,
-2.22168,0.587463,
-2.22473,0.624084,
-2.22778,0.631714,
-2.22626,0.634766,
-2.23389,0.588989,
-2.24304,0.587463,
-2.24609,0.621033,
-2.2522,0.656128,
-2.26135,0.634766,
-2.26593,0.588989,
-2.27661,0.587463,
-2.28577,0.622559,
-2.29645,0.657654,
-2.31323,0.634766,
-2.32544,0.588989,
-2.33917,0.592041,
-2.35443,0.624084,
-2.36969,0.643921,
-2.38495,0.634766,
-2.40173,0.588989,
-2.41699,0.590515,
-2.43378,0.624084,
-2.45361,0.657654,
-2.46887,0.637817,
-2.49023,0.576782,
-2.50549,0.582886,
-2.53296,0.624084,
-2.55432,0.654602,
-2.57721,0.639343,
-2.60162,0.593567,
-2.62909,0.587463,
-2.65045,0.624084,
-2.67029,0.657654,
-2.69623,0.634766,
-2.72522,0.588989,
-2.75574,0.588989,
-2.77863,0.624084,
-2.80304,0.657654,
-2.8244,0.637817,
-2.85034,0.584412,
-2.87628,0.570679,
-2.90222,0.59967,
-2.92816,0.657654,
-2.94952,0.640869,
-2.97546,0.587463,
-2.99683,0.582886,
-3.02124,0.634766,
-3.05328,0.65155,
-3.07922,0.672913,
-3.10516,0.582886,
-3.13416,0.587463,
-3.15704,0.631714,
-3.18146,0.662231,
-3.20435,0.622559,
-3.22723,0.585938,
-3.25623,0.584412,
-3.28064,0.621033,
-3.30505,0.654602,
-3.32947,0.639343,
-3.35541,0.587463,
-3.37982,0.588989,
-3.40271,0.624084,
-3.41949,0.656128,
-3.43628,0.636292,
-3.45764,0.587463,
-3.48358,0.585938,
-3.50494,0.627136,
-3.52783,0.640869,
-3.54767,0.637817,
-3.56903,0.582886,
-3.58734,0.584412,
-3.60413,0.622559,
-3.62091,0.657654,
-3.6438,0.639343,
-3.66364,0.582886,
-3.685,0.587463,
-3.70483,0.621033,
-3.72009,0.657654,
-3.7323,0.636292,
-3.74603,0.587463,
-3.76434,0.587463,
-3.77808,0.621033,
-3.79181,0.660706,
-3.80249,0.636292,
-3.81775,0.582886,
-3.82385,0.593567,
-3.83911,0.622559,
-3.84979,0.65918,
-3.86353,0.637817,
-3.87421,0.584412,
-3.89099,0.585938,
-3.9032,0.624084,
-3.91083,0.657654,
-3.92151,0.634766,
-3.93372,0.587463,
-3.94897,0.585938,
-3.96271,0.621033,
-3.98254,0.65918,
-3.99933,0.637817,
-4.01611,0.585938,
-4.03442,0.590515,
-4.04816,0.619507,
-4.06342,0.657654,
-4.08478,0.637817,
-4.10461,0.587463,
-4.1214,0.587463,
-4.14124,0.617981,
-4.16565,0.656128,
-4.18243,0.637817,
-4.20532,0.584412,
-4.22516,0.588989,
-4.24194,0.62561,
-4.26483,0.65918,
-4.27856,0.639343,
-4.30145,0.587463,
-4.31671,0.590515,
-4.3335,0.621033,
-4.34875,0.657654,
-4.36249,0.642395,
-4.37775,0.588989,
-4.38995,0.588989,
-4.39758,0.62561,
-4.40216,0.65918,
-4.39606,0.640869,
-4.3869,0.585938,
-4.36249,0.590515,
-4.33655,0.619507,
-4.29688,0.660706,
-4.2511,0.639343,
-4.2038,0.585938,
-4.14429,0.588989,
-4.08325,0.617981,
-4.01306,0.65918,
-3.93982,0.637817,
-3.86353,0.584412,
-3.78723,0.590515,
-3.70941,0.619507,
-3.62701,0.666809,
-3.54614,0.642395,
-3.46222,0.585938,
-3.3783,0.588989,
-3.29895,0.621033,
-3.2135,0.65918,
-3.13416,0.639343,
-3.05634,0.585938,
-2.97546,0.587463,
-2.9068,0.621033,
-2.83508,0.65918,
-2.76642,0.640869,
-2.69928,0.584412,
-2.63824,0.588989,
-2.58026,0.622559,
-2.52686,0.65918,
-2.48413,0.639343,
-2.43835,0.579834,
-2.39868,0.587463,
-2.36206,0.616455,
-2.33002,0.657654,
-2.30255,0.634766,
-2.27661,0.566101,
-2.2583,0.575256,
-2.23999,0.624084,
-2.22778,0.65918,
-2.22015,0.639343,
-2.211,0.584412,
-2.19879,0.587463,
-2.19727,0.617981,
-2.19727,0.660706,
-2.20642,0.637817,
-2.20642,0.585938,
-2.2171,0.588989,
-2.22778,0.627136,
-2.24152,0.657654,
-2.25677,0.642395,
-2.27051,0.58136,
-2.28424,0.584412,
-2.30255,0.621033,
-2.31628,0.660706,
-2.33917,0.634766,
-2.36206,0.584412,
-2.38647,0.598145,
-2.41394,0.621033,
-2.43835,0.657654,
-2.46124,0.640869,
-2.48566,0.584412,
-2.50702,0.588989,
-2.52686,0.619507,
-2.54211,0.650024,
-2.56348,0.640869,
-2.58026,0.582886,
-2.59399,0.585938,
-2.60162,0.621033,
-2.6123,0.660706,
-2.62299,0.639343,
-2.63214,0.584412,
-2.63977,0.587463,
-2.64282,0.624084,
-2.64893,0.65918,
-2.65045,0.643921,
-2.6535,0.585938,
-2.65198,0.58136,
-2.65503,0.619507,
-2.6535,0.662231,
-2.65045,0.642395,
-2.65045,0.585938,
-2.64893,0.585938,
-2.64587,0.621033,
-2.64587,0.662231,
-2.64435,0.643921,
-2.64893,0.58136,
-2.64893,0.582886,
-2.64587,0.617981,
-2.64282,0.660706,
-2.63977,0.643921,
-2.64282,0.584412,
-2.63672,0.585938,
-2.63824,0.621033,
-2.63672,0.657654,
-2.64282,0.642395,
-2.64587,0.58136,
-2.65503,0.582886,
-2.65656,0.616455,
-2.66571,0.656128,
-2.66724,0.642395,
-2.66724,0.58136,
-2.67334,0.582886,
-2.68097,0.611877,
-2.68707,0.634766,
-2.69318,0.648499,
-2.70081,0.587463,
-2.70691,0.58136,
-2.71912,0.619507,
-2.72827,0.657654,
-2.73743,0.645447,
-2.74658,0.579834,
-2.76031,0.58136,
-2.771,0.619507,
-2.78015,0.657654,
-2.78778,0.642395,
-2.80151,0.584412,
-2.82288,0.579834,
-2.83813,0.616455,
-2.85034,0.657654,
-2.86865,0.646973,
-2.89154,0.585938,
-2.91138,0.576782,
-2.93427,0.621033,
-2.9541,0.654602,
-2.97546,0.646973,
-2.99072,0.584412,
-3.01208,0.58136,
-3.03192,0.619507,
-3.04871,0.660706,
-3.07007,0.643921,
-3.09296,0.584412,
-3.11584,0.578308,
-3.14026,0.621033,
-3.1662,0.65918,
-3.19214,0.645447,
-3.21655,0.582886,
-3.24097,0.579834,
-3.26843,0.604248,
-3.28674,0.660706,
-3.31268,0.650024,
-3.33252,0.587463,
-3.35999,0.576782,
-3.38135,0.621033,
-3.40118,0.657654,
-3.42255,0.643921,
-3.44086,0.587463,
-3.45917,0.579834,
-3.48206,0.624084,
-3.49884,0.660706,
-3.51715,0.642395,
-3.53088,0.584412,
-3.54767,0.57373,
-3.56293,0.619507,
-3.57819,0.660706,
-3.5965,0.648499,
-3.61633,0.595093,
-3.6377,0.579834,
-3.65753,0.621033,
-3.68195,0.646973,
-3.6972,0.648499,
-3.72162,0.585938,
-3.7384,0.576782,
-3.76282,0.621033,
-3.78571,0.65918,
-3.80249,0.650024,
-3.81775,0.588989,
-3.83911,0.58136,
-3.85437,0.619507,
-3.86963,0.656128,
-3.88031,0.65155,
-3.89709,0.584412,
-3.91083,0.576782,
-3.92303,0.616455,
-3.93677,0.650024,
-3.94592,0.650024,
-3.96118,0.584412,
-3.96729,0.579834,
-3.97644,0.617981,
-3.98712,0.653076,
-3.9978,0.650024,
-4.01001,0.567627,
-4.02069,0.579834,
-4.03595,0.617981,
-4.04205,0.654602,
-4.05884,0.65155,
-4.07104,0.585938,
-4.08325,0.579834,
-4.09851,0.595093,
-4.11682,0.679016,
-4.12903,0.645447,
-4.14581,0.584412,
-4.1626,0.578308,
-4.17633,0.617981,
-4.18701,0.657654,
-4.19769,0.653076,
-4.216,0.587463,
-4.23126,0.576782,
-4.24194,0.616455,
-4.25873,0.654602,
-4.27551,0.648499,
-4.29077,0.585938,
-4.30756,0.578308,
-4.32892,0.616455,
-4.3457,0.657654,
-4.36249,0.646973,
-4.37622,0.584412,
-4.39301,0.58136,
-4.40826,0.614929,
-4.42505,0.654602,
-4.44641,0.648499,
-4.4632,0.585938,
-4.47845,0.579834,
-4.48456,0.614929,
-4.48608,0.656128,
-4.47998,0.645447,
-4.46777,0.588989,
-4.45251,0.578308,
-4.422,0.613403,
-4.38385,0.665283,
-4.3457,0.645447,
-4.29382,0.558472,
-4.245,0.570679,
-4.18701,0.617981,
-4.12903,0.65155,
-4.06342,0.65155,
-3.99017,0.575256,
-3.91235,0.578308,
-3.83301,0.657654,
-3.75519,0.628662,
-3.67432,0.65155,
-3.59344,0.584412,
-3.51868,0.578308,
-3.44391,0.617981,
-3.36151,0.650024,
-3.28369,0.648499,
-3.20129,0.585938,
-3.12347,0.58136,
-3.04718,0.617981,
-2.97089,0.65155,
-2.90222,0.642395,
-2.83813,0.587463,
-2.77252,0.578308,
-2.72217,0.619507,
-2.66876,0.653076,
-2.6123,0.645447,
-2.565,0.592041,
-2.51617,0.576782,
-2.46887,0.616455,
-2.43073,0.650024,
-2.39105,0.646973,
-2.36206,0.587463,
-2.33917,0.576782,
-2.32239,0.617981,
-2.30713,0.650024,
-2.29645,0.646973,
-2.28424,0.590515,
-2.28119,0.575256,
-2.27356,0.616455,
-2.2644,0.648499,
-2.27051,0.650024,
-2.27356,0.592041,
-2.27814,0.575256,
-2.28424,0.617981,
-2.28882,0.650024,
-2.29645,0.645447,
-2.31323,0.590515,
-2.32849,0.575256,
-2.34375,0.617981,
-2.36053,0.648499,
-2.38037,0.639343,
-2.39716,0.590515,
-2.41852,0.576782,
-2.43988,0.616455,
-2.46124,0.645447,
-2.48413,0.643921,
-2.49939,0.595093,
-2.5238,0.575256,
-2.54211,0.622559,
-2.56348,0.65155,
-2.58331,0.646973,
-2.59857,0.593567,
-2.61841,0.57373,
-2.63672,0.619507,
-2.6535,0.646973,
-2.66418,0.646973,
-2.67639,0.592041,
-2.69012,0.57373,
-2.69775,0.613403,
-2.70386,0.645447,
-2.70844,0.646973,
-2.71912,0.590515,
-2.72369,0.570679,
-2.72675,0.617981,
-2.72675,0.648499,
-2.72827,0.645447,
-2.73132,0.593567,
-2.72827,0.569153,
-2.72522,0.619507,
-2.72217,0.645447,
-2.71912,0.643921,
-2.71301,0.58136,
-2.71454,0.575256,
-2.71149,0.616455,
-2.70691,0.640869,
-2.69623,0.646973,
-2.69623,0.598145,
-2.69318,0.576782,
-2.69012,0.614929,
-2.68402,0.65155,
-2.67487,0.646973,
-2.67029,0.593567,
-2.66571,0.576782,
-2.66418,0.616455,
-2.65961,0.643921,
-2.65656,0.650024,
-2.6535,0.598145,
-2.6535,0.572205,
-2.65503,0.613403,
-2.64893,0.645447,
-2.65198,0.639343,
-2.65503,0.595093,
-2.6535,0.570679,
-2.66113,0.614929,
-2.66876,0.646973,
-2.67029,0.642395,
-2.67487,0.598145,
-2.67792,0.570679,
-2.68097,0.614929,
-2.68707,0.643921,
-2.69165,0.642395,
-2.70233,0.598145,
-2.70386,0.569153,
-2.71759,0.616455,
-2.72217,0.643921,
-2.73438,0.642395,
-2.74506,0.592041,
-2.76184,0.58136,
-2.771,0.611877,
-2.7832,0.68512,
-2.80457,0.640869,
-2.82135,0.59967,
-2.83508,0.566101,
-2.85034,0.614929,
-2.86865,0.639343,
-2.88544,0.640869,
-2.90375,0.588989,
-2.92358,0.569153,
-2.94189,0.614929,
-2.96326,0.646973,
-2.97852,0.640869,
-2.99988,0.595093,
-3.01361,0.570679,
-3.03192,0.616455,
-3.04871,0.642395,
-3.07312,0.637817,
-3.0899,0.598145,
-3.10974,0.567627,
-3.13263,0.614929,
-3.14789,0.639343,
-3.1662,0.642395,
-3.18909,0.588989,
-3.2135,0.570679,
-3.23486,0.613403,
-3.2547,0.643921,
-3.27148,0.637817,
-3.29285,0.602722,
-3.31268,0.569153,
-3.33252,0.611877,
-3.35083,0.642395,
-3.36151,0.637817,
-3.37067,0.593567,
-3.38745,0.566101,
-3.40271,0.614929,
-3.41797,0.639343,
-3.42712,0.636292,
-3.44238,0.601196,
-3.45459,0.567627,
-3.46375,0.608826,
-3.479,0.639343,
-3.48969,0.619507,
-3.50189,0.601196,
-3.51715,0.566101,
-3.52478,0.613403,
-3.54309,0.637817,
-3.55682,0.63324,
-3.57056,0.602722,
-3.58734,0.569153,
-3.59802,0.611877,
-3.61633,0.639343,
-3.63007,0.637817,
-3.64838,0.598145,
-3.66364,0.563049,
-3.68195,0.611877,
-3.6972,0.634766,
-3.71094,0.634766,
-3.7262,0.598145,
-3.73688,0.567627,
-3.75671,0.611877,
-3.76892,0.637817,
-3.78571,0.62561,
-3.79944,0.602722,
-3.81165,0.556946,
-3.82385,0.611877,
-3.83453,0.639343,
-3.85284,0.637817,
-3.86353,0.601196,
-3.88641,0.570679,
-3.90015,0.610352,
-3.91693,0.639343,
-3.93066,0.634766,
-3.9444,0.592041,
-3.96271,0.566101,
-3.97797,0.610352,
-3.9917,0.634766,
-4.00238,0.63324,
-4.01001,0.59967,
-4.01611,0.570679,
-4.01764,0.602722,
-4.01459,0.636292,
-3.9978,0.634766,
-3.97797,0.59967,
-3.94897,0.569153,
-3.91846,0.610352,
-3.87726,0.636292,
-3.82996,0.63324,
-3.77655,0.601196,
-3.72009,0.563049,
-3.65601,0.610352,
-3.58429,0.636292,
-3.508,0.631714,
-3.42712,0.598145,
-3.34778,0.572205,
-3.26385,0.614929,
-3.17688,0.637817,
-3.08838,0.628662,
-3.00293,0.59967,
-2.9129,0.567627,
-2.82745,0.613403,
-2.73743,0.634766,
-2.65045,0.628662,
-2.565,0.601196,
-2.48413,0.567627,
-2.40936,0.610352,
-2.32849,0.636292,
-2.25677,0.628662,
-2.18353,0.595093,
-2.12097,0.569153,
-2.05994,0.608826,
-2.00195,0.634766,
-1.95007,0.628662,
-1.90277,0.59967,
-1.8631,0.572205,
-1.828,0.608826,
-1.78375,0.63324,
-1.75018,0.631714,
-1.72577,0.598145,
-1.70135,0.569153,
-1.68304,0.613403,
-1.66931,0.63324,
-1.6571,0.636292,
-1.6449,0.602722,
-1.64185,0.567627,
-1.64032,0.6073,
-1.64337,0.637817,
-1.64337,0.627136,
-1.65253,0.602722,
-1.66473,0.569153,
-1.67542,0.605774,
-1.69067,0.617981,
-1.70746,0.628662,
-1.72424,0.598145,
-1.74561,0.570679,
-1.77307,0.6073,
-1.79291,0.634766,
-1.82037,0.624084,
-1.84631,0.592041,
-1.8692,0.578308,
-1.89819,0.608826,
-1.92719,0.628662,
-1.95007,0.627136,
-1.97906,0.601196,
-2.00653,0.569153,
-2.02789,0.6073,
-2.05078,0.631714,
-2.0752,0.62561,
-2.09198,0.601196,
-2.10724,0.561523,
-2.12555,0.6073,
-2.14539,0.628662,
-2.1637,0.62561,
-2.17743,0.59967,
-2.19116,0.572205,
-2.20642,0.605774,
-2.21863,0.628662,
-2.22626,0.627136,
-2.23236,0.595093,
-2.23846,0.572205,
-2.24304,0.605774,
-2.24304,0.631714,
-2.23999,0.624084,
-2.23846,0.59967,
-2.23389,0.569153,
-2.22321,0.6073,
-2.21863,0.628662,
-2.21405,0.624084,
-2.20642,0.59967,
-2.2049,0.570679,
-2.19574,0.610352,
-2.18964,0.616455,
-2.18506,0.627136,
-2.17743,0.604248,
-2.17743,0.57373,
-2.17133,0.605774,
-2.1637,0.628662,
-2.15607,0.622559,
-2.15302,0.593567,
-2.14996,0.579834,
-2.14844,0.604248,
-2.15149,0.628662,
-2.14844,0.627136,
-2.14844,0.59967,
-2.14691,0.572205,
-2.14691,0.605774,
-2.14844,0.628662,
-2.14691,0.624084,
-2.15149,0.598145,
-2.15759,0.567627,
-2.16217,0.604248,
-2.1637,0.627136,
-2.16827,0.62561,
-2.1759,0.602722,
-2.18353,0.576782,
-2.19574,0.601196,
-2.20337,0.628662,
-2.22015,0.624084,
-2.23083,0.601196,
-2.24457,0.566101,
-2.2522,0.601196,
-2.25983,0.622559,
-2.27509,0.619507,
-2.28729,0.604248,
-2.2995,0.566101,
-2.31476,0.601196,
-2.33307,0.62561,
-2.35138,0.657654,
-2.36359,0.593567,
-2.38495,0.567627,
-2.40173,0.602722,
-2.42157,0.628662,
-2.44293,0.624084,
-2.45667,0.588989,
-2.47803,0.602722,
-2.49939,0.602722,
-2.52228,0.628662,
-2.54364,0.624084,
-2.57111,0.604248,
-2.59857,0.570679,
-2.62146,0.601196,
-2.64587,0.627136,
-2.67181,0.624084,
-2.69623,0.59967,
-2.71912,0.567627,
-2.74353,0.59967,
-2.771,0.640869,
-2.79541,0.62561,
-2.82288,0.595093,
-2.84729,0.570679,
-2.8717,0.59967,
-2.89764,0.62561,
-2.91748,0.622559,
-2.93884,0.593567,
-2.95868,0.567627,
-2.97394,0.598145,
-2.9953,0.627136,
-3.01361,0.62561,
-3.03192,0.59967,
-3.05176,0.567627,
-3.07465,0.590515,
-3.0899,0.62561,
-3.10364,0.631714,
-3.12195,0.601196,
-3.13873,0.567627,
-3.15704,0.598145,
-3.17688,0.62561,
-3.19672,0.624084,
-3.21503,0.59967,
-3.23792,0.566101,
-3.25317,0.59967,
-3.27454,0.63324,
-3.28979,0.622559,
-3.31268,0.595093,
-3.33252,0.566101,
-3.35083,0.595093,
-3.37219,0.627136,
-3.38898,0.631714,
-3.41187,0.595093,
-3.43018,0.563049,
-3.44696,0.593567,
-3.46069,0.627136,
-3.48358,0.622559,
-3.50189,0.598145,
-3.52783,0.567627,
-3.54462,0.592041,
-3.56445,0.617981,
-3.57971,0.627136,
-3.59802,0.602722,
-3.6087,0.566101,
-3.63312,0.628662,
-3.64838,0.624084,
-3.66516,0.624084,
-3.685,0.59967,
-3.6972,0.572205,
-3.70636,0.587463,
-3.7262,0.621033,
-3.73993,0.624084,
-3.75366,0.598145,
-3.76892,0.569153,
-3.78113,0.587463,
-3.79028,0.624084,
-3.79181,0.624084,
-3.79181,0.602722,
-3.78571,0.543213,
-3.77197,0.587463,
-3.74603,0.622559,
-3.72162,0.624084,
-3.68347,0.59967,
-3.64227,0.567627,
-3.59497,0.584412,
-3.53699,0.622559,
-3.47443,0.62561,
-3.40729,0.59967,
-3.33099,0.567627,
-3.25165,0.585938,
-3.16467,0.624084,
-3.07617,0.62561,
-2.98462,0.59967,
-2.89459,0.567627,
-2.79236,0.587463,
-2.69623,0.624084,
-2.6001,0.62561,
-2.50244,0.59967,
-2.40936,0.567627,
-2.31628,0.584412,
-2.22473,0.627136,
-2.13776,0.627136,
-2.0462,0.595093,
-1.96533,0.566101,
-1.88446,0.587463,
-1.80969,0.62561,
-1.73645,0.627136,
-1.66626,0.598145,
-1.6037,0.567627,
-1.54419,0.585938,
-1.48926,0.627136,
-1.44043,0.62561,
-1.40228,0.57373,
-1.36871,0.559998,
-1.33972,0.582886,
-1.3092,0.622559,
-1.28632,0.62561,
-1.26495,0.598145,
-1.24817,0.567627,
-1.23749,0.58136,
-1.22681,0.622559,
-1.21918,0.627136,
-1.2146,0.598145,
-1.21307,0.569153,
-1.21307,0.584412,
-1.21155,0.628662,
-1.21613,0.627136,
-1.22223,0.601196,
-1.22528,0.569153,
-1.23138,0.585938,
-1.24359,0.628662,
-1.26038,0.627136,
-1.27411,0.595093,
-1.29242,0.569153,
-1.31683,0.582886,
-1.33209,0.62561,
-1.35345,0.628662,
-1.37787,0.598145,
-1.40228,0.567627,
-1.42822,0.58136,
-1.45721,0.631714,
-1.48926,0.631714,
-1.5213,0.59967,
-1.55487,0.569153,
-1.58081,0.58136,
-1.61133,0.627136,
-1.63727,0.634766,
-1.66779,0.598145,
-1.68762,0.566101,
-1.70746,0.58136,
-1.72729,0.627136,
-1.74103,0.631714,
-1.75781,0.59967,
-1.77002,0.566101,
-1.7807,0.582886,
-1.78528,0.628662,
-1.79138,0.627136,
-1.79291,0.598145,
-1.79749,0.569153,
-1.79749,0.579834,
-1.80206,0.628662,
-1.79443,0.628662,
-1.79596,0.595093,
-1.79138,0.567627,
-1.78986,0.579834,
-1.77917,0.637817,
-1.77002,0.62561,
-1.75629,0.639343,
-1.74561,0.561523,
-1.74103,0.582886,
-1.73645,0.62561,
-1.72729,0.628662,
-1.72119,0.592041,
-1.71814,0.567627,
-1.71356,0.579834,
-1.71356,0.627136,
-1.70746,0.614929,
-1.70593,0.593567,
-1.70746,0.570679,
-1.70593,0.575256,
-1.70288,0.619507,
-1.70746,0.62561,
-1.71356,0.59967,
-1.71204,0.566101,
-1.72119,0.579834,
-1.72577,0.628662,
-1.73492,0.63324,
-1.74561,0.593567,
-1.76086,0.567627,
-1.76849,0.570679,
-1.77765,0.628662,
-1.78528,0.63324,
-1.79749,0.595093,
-1.81427,0.570679,
-1.82648,0.578308,
-1.83868,0.627136,
-1.85089,0.624084,
-1.87073,0.595093,
-1.88446,0.567627,
-1.89972,0.576782,
-1.9165,0.63324,
-1.93787,0.631714,
-1.9577,0.598145,
-1.97449,0.572205,
-1.9989,0.578308,
-2.02179,0.627136,
-2.04315,0.628662,
-2.06909,0.595093,
-2.08893,0.563049,
-2.10876,0.578308,
-2.12708,0.634766,
-2.14996,0.628662,
-2.1637,0.59967,
-2.18506,0.572205,
-2.20337,0.578308,
-2.22015,0.631714,
-2.23999,0.628662,
-2.25677,0.593567,
-2.27814,0.567627,
-2.29797,0.576782,
-2.31934,0.63324,
-2.3407,0.628662,
-2.36206,0.595093,
-2.38647,0.567627,
-2.41089,0.576782,
-2.43378,0.63324,
-2.45667,0.628662,
-2.48413,0.595093,
-2.50549,0.569153,
-2.52838,0.576782,
-2.55127,0.639343,
-2.57263,0.63324,
-2.6001,0.595093,
-2.62604,0.569153,
-2.64435,0.578308,
-2.67181,0.63324,
-2.69165,0.631714,
-2.71454,0.598145,
-2.73895,0.567627,
-2.76031,0.572205,
-2.78015,0.631714,
-2.80304,0.63324,
-2.82135,0.595093,
-2.83661,0.569153,
-2.85034,0.572205,
-2.86865,0.631714,
-2.88696,0.631714,
-2.90527,0.601196,
-2.92053,0.567627,
-2.93732,0.576782,
-2.94952,0.628662,
-2.96173,0.62561,
-2.97546,0.593567,
-2.99072,0.566101,
-3.00751,0.576782,
-3.02429,0.628662,
-3.03802,0.634766,
-3.05786,0.595093,
-3.0777,0.566101,
-3.09906,0.579834,
-3.11432,0.631714,
-3.13416,0.63324,
-3.14636,0.593567,
-3.16162,0.567627,
-3.18298,0.57373,
-3.20435,0.628662,
-3.22266,0.634766,
-3.24402,0.598145,
-3.2608,0.570679,
-3.28064,0.576782,
-3.29742,0.631714,
-3.31421,0.634766,
-3.33099,0.595093,
-3.3493,0.569153,
-3.36456,0.575256,
-3.37982,0.631714,
-3.39355,0.634766,
-3.40881,0.598145,
-3.4256,0.569153,
-3.44086,0.578308,
-3.45612,0.631714,
-3.46832,0.624084,
-3.47595,0.601196,
-3.48206,0.569153,
-3.48053,0.575256,
-3.47748,0.63324,
-3.4668,0.63324,
-3.45154,0.642395,
-3.4256,0.552368,
-3.3905,0.587463,
-3.34778,0.627136,
-3.29742,0.634766,
-3.23639,0.593567,
-3.16925,0.567627,
-3.09601,0.578308,
-3.00903,0.608826,
-2.91748,0.636292,
-2.82593,0.595093,
-2.72675,0.570679,
-2.62299,0.576782,
-2.5177,0.627136,
-2.41547,0.624084,
-2.30713,0.595093,
-2.20184,0.569153,
-2.10266,0.575256,
-1.9989,0.628662,
-1.89972,0.637817,
-1.80206,0.598145,
-1.70441,0.550842,
-1.61743,0.58136,
-1.52893,0.628662,
-1.44196,0.637817,
-1.35956,0.598145,
-1.28784,0.567627,
-1.21765,0.575256,
-1.15662,0.628662,
-1.09406,0.637817,
-1.04675,0.59967,
-1.00098,0.569153,
-0.967407,0.578308,
-0.930786,0.63324,
-0.904846,0.636292,
-0.881958,0.602722,
-0.868225,0.570679,
-0.857544,0.576782,
-0.848389,0.628662,
-0.842285,0.636292,
-0.842285,0.59967,
-0.842285,0.569153,
-0.848389,0.578308,
-0.857544,0.634766,
-0.868225,0.634766,
-0.87738,0.59967,
-0.892639,0.569153,
-0.907898,0.57373,
-0.920105,0.631714,
-0.938416,0.624084,
-0.953674,0.59967,
-0.973511,0.569153,
-0.993347,0.576782,
-1.02081,0.631714,
-1.04828,0.637817,
-1.0788,0.59967,
-1.11237,0.569153,
-1.14136,0.576782,
-1.17798,0.628662,
-1.21155,0.63324,
-1.25122,0.617981,
-1.29395,0.563049,
-1.33209,0.576782,
-1.36414,0.63324,
-1.40228,0.636292,
-1.43738,0.598145,
-1.4679,0.563049,
-1.49994,0.575256,
-1.52588,0.628662,
-1.55182,0.636292,
-1.57776,0.595093,
-1.5976,0.570679,
-1.61743,0.582886,
-1.63269,0.639343,
-1.6449,0.639343,
-1.65405,0.601196,
-1.66473,0.566101,
-1.67236,0.572205,
-1.67847,0.619507,
-1.69067,0.639343,
-1.6983,0.601196,
-1.70135,0.566101,
-1.70288,0.576782,
-1.69983,0.628662,
-1.6983,0.639343,
-1.69525,0.601196,
-1.69525,0.559998,
-1.68915,0.57373,
-1.68915,0.631714,
-1.6861,0.639343,
-1.68304,0.59967,
-1.67847,0.55542,
-1.67542,0.578308,
-1.67084,0.614929,
-1.66321,0.646973,
-1.65558,0.602722,
-1.64795,0.567627,
-1.64185,0.602722,
-1.63574,0.610352,
-1.62811,0.640869,
-1.62354,0.59967,
-1.62048,0.567627,
-1.61285,0.576782,
-1.6098,0.627136,
-1.60675,0.639343,
-1.60675,0.59967,
-1.6098,0.561523,
-1.6098,0.578308,
-1.61896,0.628662,
-1.62659,0.639343,
-1.63574,0.604248,
-1.6449,0.563049,
-1.65558,0.576782,
-1.66779,0.636292,
-1.68304,0.645447,
-1.6983,0.601196,
-1.71204,0.563049,
-1.73035,0.578308,
-1.74866,0.628662,
-1.76697,0.642395,
-1.7868,0.59967,
-1.80969,0.561523,
-1.83411,0.576782,
-1.85852,0.634766,
-1.87988,0.640869,
-1.90125,0.602722,
-1.92871,0.561523,
-1.95313,0.575256,
-1.98059,0.628662,
-2.005,0.621033,
-2.034,0.602722,
-2.05841,0.567627,
-2.08893,0.58136,
-2.11334,0.627136,
-2.14081,0.656128,
-2.16827,0.59967,
-2.19421,0.55542,
-2.22321,0.578308,
-2.2522,0.628662,
-2.27966,0.642395,
-2.31476,0.601196,
-2.3468,0.561523,
-2.37732,0.572205,
-2.40326,0.628662,
-2.43073,0.665283,
-2.46124,0.592041,
-2.49634,0.561523,
-2.52686,0.576782,
-2.55432,0.631714,
-2.58636,0.640869,
-2.6123,0.601196,
-2.64435,0.566101,
-2.67334,0.576782,
-2.69623,0.631714,
-2.72064,0.648499,
-2.73895,0.605774,
-2.76642,0.563049,
-2.79388,0.576782,
-2.81219,0.631714,
-2.83661,0.643921,
-2.86255,0.59967,
-2.89001,0.566101,
-2.91595,0.569153,
-2.94342,0.62561,
-2.96631,0.643921,
-2.99377,0.595093,
-3.01514,0.559998,
-3.04565,0.576782,
-3.07007,0.631714,
-3.09143,0.640869,
-3.11432,0.608826,
-3.14178,0.563049,
-3.1662,0.578308,
-3.18756,0.628662,
-3.20587,0.639343,
-3.22571,0.59967,
-3.2486,0.561523,
-3.26233,0.561523,
-3.27911,0.631714,
-3.29437,0.639343,
-3.31573,0.595093,
-3.33252,0.566101,
-3.35083,0.576782,
-3.36609,0.631714,
-3.38593,0.627136,
-3.39966,0.602722,
-3.41949,0.561523,
-3.43475,0.576782,
-3.44543,0.627136,
-3.46069,0.642395,
-3.47443,0.59967,
-3.48816,0.567627,
-3.50494,0.587463,
-3.52478,0.619507,
-3.53851,0.642395,
-3.55835,0.601196,
-3.57361,0.563049,
-3.59497,0.579834,
-3.61786,0.62561,
-3.63464,0.643921,
-3.65295,0.59967,
-3.66669,0.561523,
-3.66669,0.578308,
-3.66821,0.627136,
-3.66058,0.642395,
-3.64685,0.601196,
-3.62396,0.563049,
-3.59192,0.578308,
-3.55225,0.628662,
-3.50342,0.662231,
-3.45001,0.59967,
-3.3844,0.563049,
-3.31573,0.578308,
-3.23029,0.627136,
-3.14331,0.640869,
-3.05023,0.59967,
-2.94952,0.563049,
-2.85187,0.576782,
-2.74658,0.62561,
-2.63672,0.642395,
-2.5238,0.595093,
-2.41394,0.563049,
-2.30865,0.57373,
-2.20642,0.627136,
-2.09503,0.646973,
-1.99127,0.598145,
-1.89362,0.569153,
-1.79901,0.578308,
-1.70746,0.627136,
-1.61896,0.639343,
-1.53503,0.590515,
-1.45874,0.559998,
-1.39008,0.576782,
-1.32599,0.62561,
-1.26648,0.640869,
-1.21307,0.598145,
-1.16272,0.559998,
-1.12305,0.579834,
-1.091,0.628662,
-1.05286,0.640869,
-1.02386,0.598145,
-0.999451,0.563049,
-0.976563,0.579834,
-0.9552,0.62561,
-0.941467,0.639343,
-0.935364,0.598145,
-0.933838,0.561523,
-0.933838,0.576782,
-0.933838,0.62561,
-0.939941,0.639343,
-0.947571,0.59967,
-0.961304,0.561523,
-0.98114,0.578308,
-0.996399,0.627136,
-1.01929,0.640869,
-1.04218,0.598145,
-1.06354,0.561523,
-1.091,0.579834,
-1.12305,0.628662,
-1.15356,0.642395,
-1.18561,0.593567,
-1.22223,0.561523,
-1.25732,0.582886,
-1.29395,0.639343,
-1.32599,0.643921,
-1.37024,0.592041,
-1.40533,0.566101,
-1.44348,0.582886,
-1.4801,0.627136,
-1.5152,0.63324,
-1.55182,0.604248,
-1.58386,0.566101,
-1.61133,0.585938,
-1.64032,0.62561,
-1.66473,0.640869,
-1.68762,0.598145,
-1.70898,0.561523,
-1.7334,0.595093,
-1.75476,0.62561,
-1.77307,0.645447,
-1.79443,0.595093,
-1.80511,0.561523,
-1.81732,0.582886,
-1.8219,0.657654,
-1.83411,0.639343,
-1.83868,0.598145,
-1.84326,0.569153,
-1.84326,0.58136,
-1.84326,0.62561,
-1.84174,0.642395,
-1.83563,0.595093,
-1.83716,0.566101,
-1.83563,0.585938,
-1.83716,0.62561,
-1.83868,0.640869,
-1.83411,0.593567,
-1.83258,0.563049,
-1.828,0.585938,
-1.82495,0.62561,
-1.8158,0.639343,
-1.80969,0.592041,
-1.80511,0.566101,
-1.79901,0.585938,
-1.78986,0.624084,
-1.77765,0.642395,
-1.76849,0.59967,
-1.76697,0.559998,
-1.76392,0.57373,
-1.76086,0.63324,
-1.76239,0.642395,
-1.76392,0.598145,
-1.77307,0.570679,
-1.77612,0.588989,
-1.78223,0.631714,
-1.79138,0.637817,
-1.79749,0.593567,
-1.80511,0.566101,
-1.81732,0.588989,
-1.828,0.622559,
-1.83563,0.643921,
-1.84631,0.595093,
-1.85547,0.559998,
-1.86768,0.590515,
-1.87988,0.617981,
-1.89514,0.640869,
-1.90582,0.587463,
-1.92261,0.566101,
-1.93939,0.587463,
-1.95618,0.622559,
-1.97296,0.639343,
-1.99127,0.592041,
-2.01416,0.559998,
-2.03552,0.584412,
-2.05536,0.624084,
-2.07825,0.642395,
-2.10571,0.598145,
-2.13013,0.561523,
-2.15759,0.590515,
-2.18506,0.624084,
-2.21252,0.643921,
-2.23999,0.588989,
-2.26746,0.559998,
-2.2995,0.585938,
-2.33002,0.62561,
-2.35901,0.639343,
-2.388,0.590515,
-2.41394,0.559998,
-2.43378,0.582886,
-2.45361,0.631714,
-2.47803,0.637817,
-2.49939,0.592041,
-2.52991,0.558472,
-2.55737,0.587463,
-2.58942,0.622559,
-2.61688,0.639343,
-2.64587,0.595093,
-2.67334,0.559998,
-2.70233,0.587463,
-2.72827,0.622559,
-2.75574,0.636292,
-2.78015,0.593567,
-2.80762,0.563049,
-2.84271,0.58136,
-2.87323,0.621033,
-2.89612,0.642395,
-2.91595,0.590515,
-2.93732,0.559998,
-2.96478,0.585938,
-2.98157,0.622559,
-2.99988,0.636292,
-3.01971,0.592041,
-3.03802,0.559998,
-3.05939,0.588989,
-3.08075,0.62561,
-3.09906,0.639343,
-3.12195,0.590515,
-3.14026,0.55542,
-3.16467,0.584412,
-3.18298,0.622559,
-3.20129,0.636292,
-3.2196,0.593567,
-3.24249,0.558472,
-3.26385,0.584412,
-3.28369,0.624084,
-3.30353,0.636292,
-3.31879,0.590515,
-3.34473,0.558472,
-3.36456,0.585938,
-3.38593,0.619507,
-3.40271,0.637817,
-3.42407,0.602722,
-3.44543,0.567627,
-3.46375,0.585938,
-3.48358,0.622559,
-3.49731,0.634766,
-3.51715,0.587463,
-3.53699,0.556946,
-3.55682,0.584412,
-3.57513,0.624084,
-3.59039,0.636292,
-3.6026,0.598145,
-3.61786,0.55542,
-3.62701,0.584412,
-3.63007,0.624084,
-3.63312,0.634766,
-3.62854,0.593567,
-3.61786,0.570679,
-3.59497,0.58136,
-3.56598,0.622559,
-3.52173,0.637817,
-3.47443,0.588989,
-3.42102,0.553894,
-3.35236,0.585938,
-3.27301,0.621033,
-3.18604,0.634766,
-3.0899,0.593567,
-2.99377,0.55542,
-2.89154,0.582886,
-2.78015,0.62561,
-2.67334,0.634766,
-2.5589,0.590515,
-2.44446,0.556946,
-2.32697,0.584412,
-2.20947,0.621033,
-2.09503,0.63324,
-1.98059,0.593567,
-1.87836,0.556946,
-1.76849,0.588989,
-1.66473,0.621033,
-1.56708,0.631714,
-1.46942,0.590515,
-1.3855,0.55542,
-1.30615,0.588989,
-1.23291,0.628662,
-1.16272,0.628662,
-1.10321,0.590515,
-1.04218,0.55542,
-0.991821,0.590515,
-0.949097,0.662231,
-0.907898,0.62561,
-0.871277,0.588989,
-0.840759,0.561523,
-0.813293,0.590515,
-0.788879,0.621033,
-0.775146,0.636292,
-0.759888,0.593567,
-0.752258,0.552368,
-0.740051,0.590515,
-0.737,0.621033,
-0.735474,0.636292,
-0.737,0.593567,
-0.741577,0.552368,
-0.753784,0.590515,
-0.767517,0.614929,
-0.782776,0.608826,
-0.801086,0.576782,
-0.827026,0.552368,
-0.849915,0.588989,
-0.87738,0.622559,
-0.909424,0.627136,
-0.944519,0.59967,
-0.982666,0.552368,
-1.02386,0.621033,
-1.06201,0.619507,
-1.09863,0.636292,
-1.14594,0.587463,
-1.18866,0.556946,
-1.23596,0.588989,
-1.27563,0.622559,
-1.31226,0.614929,
-1.35345,0.595093,
-1.39008,0.552368,
-1.42822,0.585938,
-1.46179,0.619507,
-1.49384,0.63324,
-1.52588,0.588989,
-1.5564,0.553894,
-1.57776,0.587463,
-1.5976,0.624084,
-1.61743,0.63324,
-1.63116,0.590515,
-1.64948,0.549316,
-1.66473,0.587463,
-1.67236,0.624084,
-1.67542,0.631714,
-1.67542,0.592041,
-1.67694,0.552368,
-1.67236,0.582886,
-1.67236,0.621033,
-1.66779,0.63324,
-1.66016,0.592041,
-1.6571,0.549316,
-1.64795,0.58136,
-1.64337,0.624084,
-1.63269,0.631714,
-1.62506,0.587463,
-1.61285,0.549316,
-1.6037,0.584412,
-1.59454,0.619507,
-1.58081,0.631714,
-1.57013,0.588989,
-1.5625,0.550842,
-1.5564,0.582886,
-1.55029,0.627136,
-1.54572,0.628662,
-1.54266,0.590515,
-1.53961,0.553894,
-1.53809,0.582886,
-1.54419,0.621033,
-1.54572,0.627136,
-1.55029,0.585938,
-1.55334,0.549316,
-1.56097,0.588989,
-1.56708,0.62561,
-1.57318,0.627136,
-1.57928,0.587463,
-1.58844,0.553894,
-1.60217,0.584412,
-1.61133,0.613403,
-1.62964,0.627136,
-1.64337,0.588989,
-1.66321,0.552368,
-1.67847,0.58136,
-1.69678,0.619507,
-1.71204,0.627136,
-1.73187,0.590515,
-1.75171,0.547791,
-1.77002,0.584412,
-1.78986,0.622559,
-1.80664,0.624084,
-1.82953,0.585938,
-1.84784,0.549316,
-1.87073,0.582886,
-1.89362,0.621033,
-1.91193,0.62561,
-1.93481,0.588989,
-1.95313,0.549316,
-1.97906,0.576782,
-2.00195,0.624084,
-2.02789,0.627136,
-2.05994,0.590515,
-2.08893,0.550842,
-2.11639,0.579834,
-2.14386,0.622559,
-2.17133,0.628662,
-2.19421,0.588989,
-2.22321,0.546265,
-2.25067,0.578308,
-2.27509,0.619507,
-2.30103,0.628662,
-2.33154,0.587463,
-2.35596,0.549316,
-2.388,0.576782,
-2.41241,0.624084,
-2.43835,0.622559,
-2.46429,0.587463,
-2.49481,0.547791,
-2.52228,0.578308,
-2.54822,0.619507,
-2.57568,0.627136,
-2.6001,0.587463,
-2.62604,0.550842,
-2.64893,0.578308,
-2.67487,0.622559,
-2.69318,0.622559,
-2.71759,0.58136,
-2.74048,0.537109,
-2.76642,0.58136,
-2.78778,0.624084,
-2.80914,0.634766,
-2.82898,0.587463,
-2.85797,0.547791,
-2.88086,0.579834,
-2.90222,0.619507,
-2.92511,0.62561,
-2.94495,0.588989,
-2.96478,0.540161,
-2.98462,0.575256,
-3.00751,0.608826,
-3.02734,0.622559,
-3.0426,0.587463,
-3.05939,0.549316,
-3.08075,0.575256,
-3.10211,0.622559,
-3.11737,0.65918,
-3.14026,0.587463,
-3.15399,0.544739,
-3.17383,0.576782,
-3.19061,0.622559,
-3.20892,0.624084,
-3.22418,0.587463,
-3.24554,0.544739,
-3.25775,0.578308,
-3.26996,0.621033,
-3.27454,0.627136,
-3.27454,0.592041,
-3.26233,0.547791,
-3.24249,0.57373,
-3.2135,0.619507,
-3.17993,0.622559,
-3.13263,0.585938,
-3.07617,0.547791,
-3.00751,0.572205,
-2.92358,0.617981,
-2.83661,0.622559,
-2.73743,0.592041,
-2.63062,0.546265,
-2.52228,0.576782,
-2.41089,0.62561,
-2.29187,0.619507,
-2.17438,0.584412,
-2.05536,0.546265,
-1.93329,0.575256,
-1.81274,0.621033,
-1.6983,0.622559,
-1.57928,0.588989,
-1.474,0.544739,
-1.37024,0.579834,
-1.26495,0.617981,
-1.1673,0.624084,
-1.07574,0.598145,
-0.990295,0.540161,
-0.904846,0.614929,
-0.828552,0.619507,
-0.759888,0.624084,
-0.698853,0.585938,
-0.640869,0.544739,
-0.590515,0.57373,
-0.543213,0.619507,
-0.50354,0.621033,
-0.466919,0.567627,
-0.439453,0.543213,
-0.416565,0.567627,
-0.396729,0.621033,
-0.382996,0.624084,
-0.375366,0.588989,
-0.375366,0.546265,
-0.372314,0.572205,
-0.382996,0.617981,
-0.387573,0.619507,
-0.39978,0.588989,
-0.405884,0.547791,
-0.422668,0.569153,
-0.440979,0.621033,
-0.463867,0.621033,
-0.486755,0.585938,
-0.512695,0.544739,
-0.541687,0.570679,
-0.570679,0.614929,
-0.602722,0.624084,
-0.637817,0.595093,
-0.674438,0.544739,
-0.714111,0.566101,
-0.753784,0.608826,
-0.801086,0.592041,
-0.843811,0.584412,
-0.886536,0.543213,
-0.932312,0.567627,
-0.975037,0.617981,
-1.01624,0.614929,
-1.05133,0.587463,
-1.091,0.549316,
-1.13068,0.572205,
-1.16425,0.619507,
-1.19781,0.622559,
-1.22681,0.582886,
-1.26038,0.543213,
-1.28479,0.567627,
-1.30615,0.617981,
-1.32141,0.627136,
-1.3443,0.587463,
-1.35803,0.547791,
-1.37177,0.569153,
-1.38397,0.621033,
-1.38855,0.621033,
-1.39008,0.585938,
-1.39465,0.543213,
-1.39771,0.563049,
-1.40228,0.619507,
-1.39771,0.614929,
-1.3916,0.584412,
-1.38245,0.541687,
-1.37482,0.550842,
-1.36871,0.616455,
-1.36719,0.621033,
-1.36566,0.584412,
-1.36414,0.546265,
-1.35956,0.569153,
-1.35345,0.619507,
-1.34888,0.621033,
-1.3443,0.584412,
-1.33972,0.543213,
-1.33667,0.566101,
-1.33209,0.619507,
-1.32599,0.610352,
-1.31989,0.585938,
-1.32599,0.544739,
-1.32751,0.563049,
-1.32751,0.617981,
-1.32599,0.619507,
-1.33057,0.585938,
-1.33972,0.541687,
-1.34277,0.563049,
-1.35193,0.613403,
-1.36261,0.595093,
-1.37177,0.578308,
-1.38245,0.543213,
-1.39313,0.566101,
-1.40076,0.619507,
-1.41296,0.628662,
-1.42822,0.582886,
-1.43738,0.579834,
-1.46179,0.553894,
-1.474,0.616455,
-1.49689,0.619507,
-1.51672,0.582886,
-1.54266,0.543213,
-1.56708,0.561523,
-1.58997,0.617981,
-1.61133,0.621033,
-1.63116,0.584412,
-1.64795,0.540161,
-1.66626,0.558472,
-1.68915,0.611877,
-1.70441,0.631714,
-1.72882,0.587463,
-1.75171,0.540161,
-1.77765,0.559998,
-1.80969,0.617981,
-1.83868,0.619507,
-1.8692,0.582886,
-1.90125,0.534058,
-1.93176,0.561523,
-1.96228,0.614929,
-1.98822,0.624084,
-2.02026,0.584412,
-2.05078,0.541687,
-2.0813,0.549316,
-2.10876,0.613403,
-2.1347,0.622559,
-2.16217,0.585938,
-2.18811,0.541687,
-2.21863,0.558472,
-2.25372,0.614929,
-2.29034,0.608826,
-2.31781,0.588989,
-2.34375,0.538635,
-2.37579,0.556946,
-2.40021,0.616455,
-2.42462,0.619507,
-2.45056,0.588989,
-2.47955,0.538635,
-2.50549,0.563049,
-2.53296,0.613403,
-2.56042,0.627136,
-2.58026,0.584412,
-2.60162,0.541687,
-2.62756,0.556946,
-2.64587,0.616455,
-2.67181,0.627136,
-2.69165,0.572205,
-2.71301,0.540161,
-2.73132,0.556946,
-2.74963,0.616455,
-2.77252,0.619507,
-2.79236,0.579834,
-2.81372,0.547791,
-2.83661,0.553894,
-2.8595,0.616455,
-2.87933,0.621033,
-2.90375,0.585938,
-2.92664,0.541687,
-2.94952,0.55542,
-2.96936,0.614929,
-2.98767,0.617981,
-3.00903,0.582886,
-3.03497,0.543213,
-3.05023,0.55542,
-3.07159,0.614929,
-3.08533,0.619507,
-3.09906,0.585938,
-3.11432,0.541687,
-3.12347,0.55542,
-3.13263,0.610352,
-3.13721,0.622559,
-3.13416,0.587463,
-3.12805,0.540161,
-3.10822,0.55542,
-3.07159,0.608826,
-3.03345,0.621033,
-2.98157,0.582886,
-2.92511,0.540161,
-2.85034,0.553894,
-2.76794,0.611877,
-2.67792,0.621033,
-2.58179,0.587463,
-2.47498,0.540161,
-2.36206,0.550842,
-2.24609,0.611877,
-2.11945,0.622559,
-1.99585,0.585938,
-1.87073,0.538635,
-1.73645,0.550842,
-1.6037,0.610352,
-1.46942,0.619507,
-1.34277,0.584412,
-1.22223,0.538635,
-1.10168,0.552368,
-0.98114,0.610352,
-0.869751,0.619507,
-0.761414,0.584412,
-0.663757,0.540161,
-0.57373,0.556946,
-0.489807,0.610352,
-0.402832,0.619507,
-0.326538,0.587463,
-0.254822,0.532532,
-0.19989,0.553894,
-0.146484,0.610352,
-0.105286,0.621033,
-0.0671387,0.579834,
-0.0411987,0.541687,
-0.0213623,0.55542,
-0.00610352,0.614929,
0.00152588,0.622559,
0.00610352,0.58136,
0.00762939,0.543213,
0.00457764,0.553894,
-0.00610352,0.605774,
-0.0152588,0.624084,
-0.0228882,0.582886,
-0.038147,0.546265,
-0.0534058,0.540161,
-0.0778198,0.6073,
-0.105286,0.622559,
-0.137329,0.584412,
-0.167847,0.543213,
-0.19989,0.55542,
-0.238037,0.605774,
-0.268555,0.621033,
-0.305176,0.582886,
-0.349426,0.544739,
-0.392151,0.550842,
-0.430298,0.605774,
-0.473022,0.622559,
-0.517273,0.584412,
-0.559998,0.543213,
-0.604248,0.550842,
-0.646973,0.592041,
-0.686646,0.621033,
-0.726318,0.579834,
-0.762939,0.544739,
-0.802612,0.553894,
-0.839233,0.604248,
-0.880432,0.622559,
-0.918579,0.578308,
-0.949097,0.543213,
-0.982666,0.553894,
-1.01166,0.602722,
-1.03912,0.619507,
-1.06049,0.590515,
-1.0788,0.544739,
-1.09558,0.553894,
-1.10931,0.604248,
-1.11694,0.619507,
-1.12457,0.582886,
-1.13068,0.543213,
-1.13831,0.553894,
-1.14288,0.602722,
-1.14441,0.613403,
-1.15051,0.584412,
-1.14746,0.544739,
-1.14594,0.543213,
-1.14288,0.613403,
-1.13831,0.622559,
-1.1322,0.582886,
-1.13373,0.544739,
-1.12305,0.579834,
-1.11694,0.604248,
-1.11389,0.624084,
-1.10321,0.582886,
-1.09711,0.547791,
-1.09406,0.553894,
-1.08948,0.604248,
-1.08948,0.650024,
-1.0849,0.582886,
-1.0849,0.552368,
-1.08185,0.55542,
-1.0849,0.601196,
-1.08337,0.622559,
-1.0849,0.58136,
-1.08948,0.550842,
-1.08948,0.547791,
-1.09253,0.59967,
-1.09711,0.62561,
-1.10626,0.578308,
-1.11389,0.549316,
-1.12762,0.556946,
-1.13983,0.601196,
-1.15814,0.62561,
-1.1795,0.579834,
-1.19019,0.547791,
-1.2085,0.552368,
-1.22528,0.604248,
-1.24359,0.62561,
-1.2619,0.58136,
-1.28326,0.549316,
-1.30615,0.550842,
-1.33362,0.604248,
-1.36261,0.608826,
-1.3916,0.576782,
-1.42059,0.52948,
-1.44653,0.55542,
-1.47705,0.593567,
-1.50146,0.627136,
-1.52893,0.582886,
-1.55487,0.546265,
-1.57776,0.556946,
-1.60675,0.610352,
-1.63422,0.604248,
-1.66016,0.584412,
-1.69067,0.547791,
-1.71814,0.558472,
-1.74255,0.59967,
-1.77612,0.62561,
-1.80206,0.584412,
-1.83258,0.549316,
-1.85852,0.55542,
-1.88446,0.598145,
-1.90887,0.622559,
-1.93787,0.582886,
-1.96228,0.546265,
-1.9928,0.558472,
-2.02637,0.602722,
-2.05536,0.628662,
-2.08588,0.58136,
-2.11182,0.552368,
-2.13776,0.553894,
-2.16217,0.610352,
-2.18811,0.631714,
-2.2171,0.58136,
-2.24152,0.549316,
-2.26593,0.558472,
-2.28882,0.602722,
-2.31171,0.627136,
-2.33459,0.592041,
-2.35901,0.552368,
-2.38495,0.556946,
-2.41241,0.598145,
-2.43683,0.624084,
-2.46735,0.584412,
-2.49939,0.55542,
-2.52533,0.556946,
-2.5528,0.598145,
-2.58179,0.62561,
-2.6062,0.582886,
-2.62909,0.55542,
-2.64893,0.559998,
-2.67639,0.595093,
-2.69775,0.627136,
-2.72522,0.584412,
-2.75269,0.546265,
-2.77557,0.556946,
-2.79846,0.598145,
-2.8244,0.624084,
-2.84576,0.579834,
-2.86407,0.552368,
-2.88086,0.559998,
-2.9007,0.593567,
-2.91901,0.62561,
-2.93884,0.587463,
-2.95563,0.552368,
-2.97699,0.558472,
-2.9953,0.598145,
-3.00903,0.624084,
-3.02124,0.584412,
-3.03192,0.552368,
-3.03345,0.558472,
-3.03192,0.593567,
-3.01819,0.627136,
-2.99835,0.584412,
-2.96478,0.552368,
-2.92053,0.556946,
-2.86713,0.595093,
-2.80762,0.628662,
-2.7359,0.585938,
-2.6535,0.550842,
-2.56348,0.559998,
-2.46887,0.590515,
-2.35901,0.627136,
-2.24915,0.582886,
-2.13318,0.552368,
-2.01263,0.558472,
-1.88904,0.587463,
-1.76697,0.63324,
-1.64185,0.585938,
-1.51672,0.552368,
-1.39008,0.55542,
-1.26953,0.567627,
-1.15204,0.624084,
-1.04065,0.585938,
-0.930786,0.553894,
-0.836182,0.559998,
-0.740051,0.593567,
-0.656128,0.621033,
-0.57373,0.584412,
-0.505066,0.552368,
-0.439453,0.55542,
-0.382996,0.624084,
-0.334167,0.621033,
-0.289917,0.58136,
-0.254822,0.558472,
-0.222778,0.566101,
-0.196838,0.593567,
-0.178528,0.62561,
-0.161743,0.584412,
-0.15564,0.553894,
-0.14801,0.569153,
-0.152588,0.592041,
-0.15564,0.619507,
-0.169373,0.587463,
-0.180054,0.556946,
-0.198364,0.556946,
-0.216675,0.587463,
-0.238037,0.619507,
-0.262451,0.585938,
-0.289917,0.559998,
-0.320435,0.567627,
-0.350952,0.593567,
-0.384521,0.619507,
-0.418091,0.584412,
-0.453186,0.559998,
-0.492859,0.561523,
-0.534058,0.590515,
-0.578308,0.621033,
-0.630188,0.584412,
-0.67749,0.556946,
-0.718689,0.566101,
-0.767517,0.643921,
-0.816345,0.621033,
-0.862122,0.584412,
-0.91095,0.556946,
-0.952148,0.567627,
-0.996399,0.593567,
-1.03912,0.622559,
-1.0788,0.584412,
-1.11389,0.558472,
-1.14899,0.566101,
-1.17493,0.595093,
-1.19781,0.624084,
-1.22681,0.582886,
-1.24817,0.559998,
-1.26953,0.563049,
-1.28937,0.587463,
-1.30005,0.624084,
-1.31989,0.587463,
-1.33209,0.556946,
-1.3443,0.567627,
-1.35193,0.587463,
-1.36108,0.621033,
-1.36414,0.578308,
-1.36414,0.558472,
-1.36566,0.569153,
-1.36719,0.593567,
-1.36261,0.621033,
-1.35803,0.587463,
-1.35651,0.559998,
-1.35345,0.567627,
-1.3504,0.62561,
-1.34583,0.610352,
-1.33667,0.590515,
-1.33514,0.55542,
-1.33209,0.575256,
-1.32904,0.590515,
-1.33057,0.619507,
-1.32751,0.602722,
-1.33057,0.550842,
-1.33362,0.570679,
-1.33514,0.590515,
-1.33972,0.617981,
-1.34277,0.587463,
-1.34583,0.563049,
-1.35498,0.567627,
-1.35803,0.598145,
-1.36414,0.619507,
-1.36871,0.585938,
-1.37939,0.559998,
-1.39008,0.569153,
-1.39771,0.590515,
-1.40686,0.621033,
-1.41907,0.588989,
-1.4267,0.559998,
-1.43738,0.569153,
-1.44348,0.590515,
-1.46484,0.619507,
-1.48163,0.584412,
-1.50146,0.55542,
-1.52283,0.567627,
-1.55029,0.590515,
-1.57623,0.622559,
-1.60065,0.588989,
-1.63269,0.558472,
-1.65863,0.570679,
-1.68915,0.588989,
-1.71509,0.621033,
-1.74561,0.590515,
-1.7746,0.558472,
-1.80054,0.567627,
-1.83105,0.587463,
-1.85547,0.62561,
-1.88599,0.592041,
-1.91803,0.569153,
-1.94855,0.570679,
-1.98212,0.593567,
-2.01416,0.621033,
-2.04468,0.588989,
-2.07977,0.561523,
-2.11487,0.566101,
-2.14691,0.590515,
-2.17896,0.621033,
-2.211,0.593567,
-2.24762,0.559998,
-2.27966,0.569153,
-2.31323,0.590515,
-2.34528,0.622559,
-2.36969,0.590515,
-2.3941,0.561523,
-2.42157,0.570679,
-2.44446,0.590515,
-2.46735,0.624084,
-2.49786,0.592041,
-2.52686,0.559998,
-2.55127,0.570679,
-2.58331,0.592041,
-2.60925,0.621033,
-2.63367,0.590515,
-2.66113,0.558472,
-2.68402,0.567627,
-2.70691,0.598145,
-2.72522,0.619507,
-2.74963,0.590515,
-2.771,0.559998,
-2.7832,0.567627,
-2.80609,0.588989,
-2.82593,0.619507,
-2.84882,0.590515,
-2.8717,0.563049,
-2.90375,0.569153,
-2.92969,0.590515,
-2.95868,0.622559,
-2.98004,0.593567,
-3.0014,0.558472,
-3.02734,0.569153,
-3.05328,0.592041,
-3.07312,0.621033,
-3.09753,0.595093,
-3.1189,0.570679,
-3.14331,0.572205,
-3.16925,0.588989,
-3.18451,0.619507,
-3.20435,0.595093,
-3.22571,0.563049,
-3.24249,0.55542,
-3.25775,0.604248,
-3.27454,0.619507,
-3.28674,0.598145,
-3.30658,0.558472,
-3.31573,0.569153,
-3.32031,0.587463,
-3.31879,0.621033,
-3.31116,0.592041,
-3.28827,0.556946,
-3.26233,0.569153,
-3.22266,0.590515,
-3.18451,0.621033,
-3.1311,0.595093,
-3.06702,0.558472,
-2.9953,0.569153,
-2.9129,0.588989,
-2.82135,0.624084,
-2.72369,0.595093,
-2.62146,0.559998,
-2.50397,0.570679,
-2.388,0.590515,
-2.26593,0.622559,
-2.14081,0.592041,
-2.02026,0.556946,
-1.90277,0.569153,
-1.78223,0.590515,
-1.66321,0.622559,
-1.55334,0.598145,
-1.43738,0.561523,
-1.33209,0.569153,
-1.22833,0.590515,
-1.12457,0.617981,
-1.03607,0.59967,
-0.949097,0.559998,
-0.869751,0.563049,
-0.793457,0.585938,
-0.726318,0.621033,
-0.666809,0.598145,
-0.610352,0.559998,
-0.563049,0.566101,
-0.523376,0.588989,
-0.491333,0.621033,
-0.465393,0.59967,
-0.442505,0.558472,
-0.428772,0.567627,
-0.418091,0.590515,
-0.404358,0.617981,
-0.39978,0.601196,
-0.398254,0.561523,
-0.393677,0.559998,
-0.404358,0.587463,
-0.416565,0.619507,
-0.430298,0.598145,
-0.456238,0.55542,
-0.473022,0.561523,
-0.498962,0.587463,
-0.524902,0.622559,
-0.561523,0.601196,
-0.592041,0.558472,
-0.622559,0.563049,
-0.662231,0.588989,
-0.704956,0.621033,
-0.747681,0.602722,
-0.793457,0.55542,
-0.837708,0.566101,
-0.891113,0.590515,
-0.935364,0.619507,
-0.982666,0.602722,
-1.03302,0.556946,
-1.07727,0.563049,
-1.11847,0.587463,
-1.16119,0.619507,
-1.19934,0.602722,
-1.23291,0.558472,
-1.26801,0.563049,
-1.30615,0.588989,
-1.33972,0.619507,
-1.36871,0.602722,
-1.39923,0.556946,
-1.42365,0.566101,
-1.44806,0.590515,
-1.46942,0.617981,
-1.48926,0.604248,
-1.50757,0.558472,
-1.52588,0.561523,
-1.53656,0.587463,
-1.54877,0.621033,
-1.55334,0.605774,
-1.55945,0.556946,
-1.56403,0.563049,
-1.56555,0.588989,
-1.5625,0.619507,
-1.55945,0.6073,
-1.55182,0.556946,
-1.54419,0.563049,
-1.53198,0.585938,
-1.52588,0.619507,
-1.5152,0.604248,
-1.50146,0.55542,
-1.49384,0.563049,
-1.48621,0.588989,
-1.4801,0.619507,
-1.46637,0.602722,
-1.45569,0.552368,
-1.45569,0.559998,
-1.45416,0.587463,
-1.44806,0.622559,
-1.44958,0.6073,
-1.44806,0.556946,
-1.44043,0.559998,
-1.44196,0.590515,
-1.44348,0.621033,
-1.44806,0.602722,
-1.45721,0.553894,
-1.45721,0.559998,
-1.4679,0.588989,
-1.48315,0.611877,
-1.49078,0.6073,
-1.50299,0.556946,
-1.51215,0.561523,
-1.5274,0.590515,
-1.54114,0.621033,
-1.55792,0.604248,
-1.57623,0.576782,
-1.59454,0.55542,
-1.61743,0.592041,
-1.64032,0.614929,
-1.65863,0.59967,
-1.67847,0.552368,
-1.70441,0.558472,
-1.72882,0.58136,
-1.75629,0.588989,
-1.77917,0.605774,
-1.80511,0.550842,
-1.82953,0.561523,
-1.85547,0.590515,
-1.87683,0.622559,
-1.89819,0.602722,
-1.92261,0.552368,
-1.9455,0.572205,
-1.96991,0.588989,
-1.98975,0.614929,
-2.01569,0.6073,
-2.04163,0.552368,
-2.06909,0.556946,
-2.09351,0.598145,
-2.11792,0.611877,
-2.14386,0.608826,
-2.17133,0.552368,
-2.19421,0.553894,
-2.22168,0.588989,
-2.24762,0.608826,
-2.27509,0.604248,
-2.30255,0.558472,
-2.32849,0.556946,
-2.35748,0.588989,
-2.38495,0.611877,
-2.41699,0.604248,
-2.43988,0.558472,
-2.46429,0.538635,
-2.49176,0.590515,
-2.5116,0.610352,
-2.53296,0.605774,
-2.55585,0.549316,
-2.58179,0.553894,
-2.60315,0.587463,
-2.63214,0.613403,
-2.6535,0.605774,
-2.67792,0.552368,
-2.69928,0.558472,
-2.72522,0.588989,
-2.74658,0.613403,
-2.76947,0.605774,
-2.79694,0.552368,
-2.82135,0.543213,
-2.84119,0.590515,
-2.86865,0.616455,
-2.89307,0.605774,
-2.91748,0.550842,
-2.93579,0.556946,
-2.95868,0.590515,
-2.97394,0.601196,
-2.99377,0.613403,
-3.01514,0.563049,
-3.0365,0.553894,
-3.05328,0.58136,
-3.07617,0.616455,
-3.09753,0.610352,
-3.11432,0.549316,
-3.1311,0.559998,
-3.14484,0.588989,
-3.15704,0.608826,
-3.15857,0.628662,
-3.1601,0.546265,
-3.15552,0.553894,
-3.14636,0.585938,
-3.12653,0.613403,
-3.09906,0.6073,
-3.06396,0.544739,
-3.01361,0.556946,
-2.9541,0.585938,
-2.88696,0.614929,
-2.80914,0.605774,
-2.72522,0.549316,
-2.63214,0.55542,
-2.53296,0.59967,
-2.42767,0.616455,
-2.31628,0.608826,
-2.20184,0.549316,
-2.08282,0.558472,
-1.9577,0.587463,
-1.83563,0.614929,
-1.70898,0.605774,
-1.58691,0.550842,
-1.4679,0.553894,
-1.35193,0.587463,
-1.23749,0.616455,
-1.12762,0.608826,
-1.02234,0.552368,
-0.924683,0.55542,
-0.831604,0.590515,
-0.744629,0.6073,
-0.665283,0.605774,
-0.595093,0.553894,
-0.531006,0.553894,
-0.483704,0.585938,
-0.434875,0.610352,
-0.392151,0.605774,
-0.360107,0.550842,
-0.334167,0.537109,
-0.314331,0.570679,
-0.300598,0.616455,
-0.292969,0.6073,
-0.286865,0.549316,
-0.283813,0.550842,
-0.288391,0.592041,
-0.299072,0.619507,
-0.312805,0.585938,
-0.325012,0.549316,
-0.337219,0.553894,
-0.361633,0.587463,
-0.384521,0.608826,
-0.405884,0.601196,
-0.436401,0.549316,
-0.468445,0.550842,
-0.502014,0.584412,
-0.540161,0.613403,
-0.575256,0.610352,
-0.617981,0.547791,
-0.665283,0.541687,
-0.709534,0.590515,
-0.758362,0.616455,
-0.80719,0.613403,
-0.863647,0.547791,
-0.907898,0.553894,
-0.953674,0.584412,
-1.00098,0.611877,
-1.04523,0.604248,
-1.08795,0.550842,
-1.12915,0.549316,
-1.17188,0.585938,
-1.2085,0.614929,
-1.24054,0.610352,
-1.26495,0.546265,
-1.28784,0.553894,
-1.3092,0.584412,
-1.32599,0.621033,
-1.3504,0.605774,
-1.36414,0.549316,
-1.37482,0.550842,
-1.38702,0.587463,
-1.39313,0.608826,
-1.40076,0.6073,
-1.40076,0.547791,
-1.40228,0.550842,
-1.40533,0.584412,
-1.40839,0.610352,
-1.40533,0.605774,
-1.40381,0.547791,
-1.40533,0.549316,
-1.39465,0.584412,
-1.3916,0.613403,
-1.38092,0.6073,
-1.37482,0.541687,
-1.37024,0.55542,
-1.35956,0.579834,
-1.35498,0.614929,
-1.34888,0.605774,
-1.3382,0.543213,
-1.33057,0.552368,
-1.32294,0.566101,
-1.31989,0.608826,
-1.31683,0.610352,
-1.31683,0.544739,
-1.31836,0.549316,
-1.31836,0.58136,
-1.31836,0.610352,
-1.31989,0.605774,
-1.32294,0.546265,
-1.33514,0.546265,
-1.34277,0.578308,
-1.34888,0.610352,
-1.35651,0.604248,
-1.36566,0.541687,
-1.37787,0.550842,
-1.39008,0.584412,
-1.40381,0.6073,
-1.41602,0.604248,
-1.43127,0.544739,
-1.45416,0.549316,
-1.47247,0.58136,
-1.49384,0.610352,
-1.51215,0.604248,
-1.53809,0.549316,
-1.5625,0.550842,
-1.58691,0.584412,
-1.60675,0.610352,
-1.62964,0.605774,
-1.66016,0.546265,
-1.67999,0.547791,
-1.70593,0.58136,
-1.72577,0.6073,
-1.75018,0.6073,
-1.77155,0.544739,
-1.79749,0.549316,
-1.82495,0.578308,
-1.85394,0.602722,
-1.87836,0.610352,
-1.89819,0.527954,
-1.92108,0.546265,
-1.94244,0.579834,
-1.96838,0.6073,
-1.99738,0.605774,
-2.02026,0.546265,
-2.04468,0.549316,
-2.06909,0.58136,
-2.09351,0.610352,
-2.11792,0.614929,
-2.14233,0.547791,
-2.1759,0.546265,
-2.19421,0.579834,
-2.22321,0.605774,
-2.24609,0.608826,
-2.26746,0.546265,
-2.29034,0.547791,
-2.31781,0.579834,
-2.3407,0.611877,
-2.36359,0.608826,
-2.38342,0.550842,
-2.40326,0.544739,
-2.42767,0.585938,
-2.44904,0.608826,
-2.46277,0.605774,
-2.48413,0.546265,
-2.50549,0.541687,
-2.52686,0.579834,
-2.54364,0.6073,
-2.56195,0.6073,
-2.58179,0.549316,
-2.6001,0.546265,
-2.61841,0.58136,
-2.63519,0.608826,
-2.65656,0.602722,
-2.67792,0.546265,
-2.69623,0.541687,
-2.71149,0.572205,
-2.73132,0.611877,
-2.74658,0.6073,
-2.76489,0.546265,
-2.78015,0.541687,
-2.79846,0.578308,
-2.8183,0.613403,
-2.84271,0.578308,
-2.85645,0.544739,
-2.86407,0.540161,
-2.87476,0.579834,
-2.88391,0.610352,
-2.89917,0.605774,
-2.90833,0.547791,
-2.91901,0.549316,
-2.92358,0.58136,
-2.92358,0.613403,
-2.90985,0.604248,
-2.89459,0.543213,
-2.8717,0.543213,
-2.83508,0.576782,
-2.79388,0.610352,
-2.73743,0.604248,
-2.67334,0.549316,
-2.59552,0.540161,
-2.5116,0.576782,
-2.41547,0.608826,
-2.31323,0.604248,
-2.20184,0.547791,
-2.0874,0.543213,
-1.96838,0.576782,
-1.84174,0.6073,
-1.71509,0.601196,
-1.58691,0.541687,
-1.46027,0.540161,
-1.33514,0.575256,
-1.21155,0.608826,
-1.08948,0.604248,
-0.976563,0.541687,
-0.863647,0.538635,
-0.765991,0.575256,
-0.669861,0.605774,
-0.575256,0.601196,
-0.489807,0.543213,
-0.411987,0.543213,
-0.338745,0.578308,
-0.280762,0.6073,
-0.221252,0.605774,
-0.169373,0.535583,
-0.132751,0.543213,
-0.0991821,0.576782,
-0.0762939,0.610352,
-0.0518799,0.59967,
-0.0366211,0.543213,
-0.0244141,0.543213,
-0.0183105,0.57373,
-0.0137329,0.646973,
-0.0213623,0.611877,
-0.0289917,0.544739,
-0.0442505,0.544739,
-0.0564575,0.572205,
-0.0778198,0.610352,
-0.0961304,0.602722,
-0.119019,0.546265,
-0.141907,0.520325,
-0.163269,0.572205,
-0.186157,0.610352,
-0.213623,0.601196,
-0.239563,0.546265,
-0.280762,0.538635,
-0.318909,0.578308,
-0.358582,0.613403,
-0.404358,0.602722,
-0.450134,0.544739,
-0.492859,0.541687,
-0.538635,0.578308,
-0.579834,0.6073,
-0.62561,0.601196,
-0.668335,0.544739,
-0.712585,0.537109,
-0.753784,0.57373,
-0.788879,0.610352,
-0.827026,0.598145,
-0.863647,0.549316,
-0.897217,0.537109,
-0.924683,0.576782,
-0.950623,0.610352,
-0.976563,0.602722,
-0.996399,0.544739,
-1.01929,0.538635,
-1.03455,0.576782,
-1.04523,0.610352,
-1.06049,0.601196,
-1.07117,0.546265,
-1.08185,0.537109,
-1.08948,0.550842,
-1.09406,0.610352,
-1.09558,0.602722,
-1.10474,0.549316,
-1.10626,0.537109,
-1.10168,0.578308,
-1.09558,0.634766,
-1.09253,0.578308,
-1.08948,0.547791,
-1.08643,0.535583,
-1.08337,0.572205,
-1.07574,0.610352,
-1.07269,0.601196,
-1.06964,0.544739,
-1.06812,0.540161,
-1.06049,0.585938,
-1.05743,0.613403,
-1.0498,0.605774,
-1.04523,0.546265,
-1.04675,0.538635,
-1.04065,0.578308,
-1.04065,0.6073,
-1.03607,0.598145,
-1.04065,0.543213,
-1.04675,0.534058,
-1.04523,0.576782,
-1.04828,0.611877,
-1.05133,0.598145,
-1.05896,0.547791,
-1.06506,0.535583,
-1.07269,0.578308,
-1.08032,0.6073,
-1.091,0.595093,
-1.10474,0.543213,
-1.11694,0.535583,
-1.13831,0.576782,
-1.16272,0.605774,
-1.18103,0.59967,
-1.20544,0.546265,
-1.22528,0.538635,
-1.25275,0.576782,
-1.27411,0.608826,
-1.30463,0.601196,
-1.33362,0.543213,
-1.36719,0.537109,
-1.39618,0.576782,
-1.42517,0.608826,
-1.45416,0.593567,
-1.48315,0.547791,
-1.51215,0.535583,
-1.54266,0.578308,
-1.57166,0.608826,
-1.59912,0.601196,
-1.62659,0.544739,
-1.65405,0.543213,
-1.67999,0.576782,
-1.70746,0.613403,
-1.73187,0.6073,
-1.75629,0.538635,
-1.78986,0.578308,
-1.8158,0.578308,
-1.84631,0.610352,
-1.8692,0.598145,
-1.89972,0.552368,
-1.91956,0.52948,
-1.9455,0.576782,
-1.97144,0.608826,
-1.9928,0.59967,
-2.01416,0.546265,
-2.0401,0.537109,
-2.06604,0.578308,
-2.08893,0.6073,
-2.11639,0.598145,
-2.14539,0.543213,
-2.1698,0.575256,
-2.19574,0.575256,
-2.22168,0.605774,
-2.24915,0.598145,
-2.27509,0.544739,
-2.30255,0.532532,
-2.33459,0.579834,
-2.36359,0.6073,
-2.388,0.593567,
-2.42004,0.547791,
-2.44904,0.532532,
-2.47345,0.579834,
-2.50244,0.605774,
-2.52838,0.593567,
-2.55737,0.546265,
-2.58179,0.534058,
-2.60468,0.576782,
-2.62756,0.6073,
-2.6535,0.595093,
-2.68097,0.544739,
-2.70844,0.532532,
-2.73438,0.556946,
-2.76031,0.6073,
-2.77863,0.595093,
-2.80457,0.549316,
-2.8244,0.537109,
-2.84729,0.575256,
-2.86407,0.608826,
-2.87933,0.592041,
-2.89764,0.543213,
-2.91595,0.537109,
-2.93121,0.579834,
-2.95105,0.6073,
-2.96783,0.592041,
-2.98462,0.543213,
-3.00293,0.538635,
-3.01971,0.575256,
-3.03345,0.610352,
-3.0365,0.590515,
-3.03955,0.544739,
-3.0365,0.538635,
-3.01819,0.57373,
-2.99683,0.610352,
-2.95868,0.588989,
-2.92053,0.546265,
-2.87628,0.535583,
-2.82288,0.578308,
-2.75421,0.605774,
-2.67944,0.590515,
-2.60468,0.544739,
-2.52686,0.537109,
-2.44293,0.576782,
-2.35138,0.6073,
-2.2583,0.59967,
-2.16827,0.546265,
-2.07977,0.526428,
-1.97601,0.578308,
-1.88141,0.608826,
-1.7868,0.593567,
-1.69678,0.543213,
-1.60828,0.538635,
-1.52435,0.569153,
-1.44348,0.627136,
-1.36414,0.575256,
-1.29395,0.538635,
-1.22528,0.535583,
-1.15967,0.576782,
-1.11389,0.6073,
-1.06812,0.584412,
-1.02539,0.546265,
-0.987244,0.537109,
-0.9552,0.576782,
-0.926208,0.604248,
-0.90332,0.588989,
-0.880432,0.546265,
-0.865173,0.547791,
-0.852966,0.576782,
-0.842285,0.605774,
-0.836182,0.587463,
-0.834656,0.547791,
-0.83313,0.537109,
-0.831604,0.578308,
-0.840759,0.6073,
-0.843811,0.588989,
-0.854492,0.546265,
-0.863647,0.537109,
-0.881958,0.58136,
-0.898743,0.610352,
-0.915527,0.587463,
-0.927734,0.546265,
-0.953674,0.538635,
-0.982666,0.578308,
-1.01318,0.6073,
-1.04675,0.584412,
-1.08185,0.543213,
-1.11542,0.535583,
-1.15509,0.576782,
-1.18866,0.608826,
-1.22528,0.584412,
-1.26495,0.538635,
-1.30615,0.538635,
-1.34735,0.579834,
-1.38397,0.6073,
-1.42365,0.585938,
-1.45874,0.544739,
-1.49536,0.534058,
-1.52893,0.58136,
-1.5625,0.605774,
-1.59454,0.585938,
-1.62964,0.547791,
-1.65405,0.535583,
-1.68915,0.575256,
-1.71356,0.6073,
-1.74103,0.584412,
-1.76086,0.543213,
-1.77917,0.535583,
-1.79291,0.610352,
-1.80664,0.6073,
-1.81427,0.582886,
-1.82648,0.544739,
-1.83258,0.535583,
-1.83411,0.575256,
-1.83868,0.605774,
-1.83716,0.582886,
-1.84326,0.549316,
-1.84937,0.534058,
-1.85089,0.576782,
-1.84784,0.6073,
-1.84784,0.582886,
-1.84479,0.546265,
-1.84174,0.535583,
-1.83716,0.58136,
-1.83563,0.6073,
-1.82648,0.585938,
-1.8219,0.546265,
-1.81885,0.52948,
-1.81427,0.567627,
-1.81122,0.614929,
-1.81732,0.585938,
-1.81732,0.544739,
-1.8219,0.535583,
-1.82953,0.58136,
-1.84326,0.608826,
-1.85547,0.575256,
-1.8692,0.543213,
-1.88446,0.534058,
-1.89972,0.578308,
-1.91193,0.605774,
-1.92871,0.584412,
-1.94244,0.544739,
-1.9577,0.534058,
-1.97754,0.576782,
-1.99585,0.6073,
-2.01263,0.585938,
-2.02789,0.544739,
-2.05536,0.537109,
-2.07825,0.575256,
-2.10266,0.6073,
-2.12555,0.582886,
-2.15149,0.549316,
-2.17896,0.532532,
-2.20184,0.576782,
-2.22931,0.608826,
-2.25372,0.582886,
-2.28119,0.546265,
-2.3056,0.538635,
-2.33612,0.578308,
-2.36664,0.608826,
-2.39716,0.58136,
-2.42615,0.549316,
-2.45819,0.535583,
-2.48718,0.576782,
-2.5177,0.608826,
-2.54822,0.58136,
-2.57568,0.543213,
-2.60468,0.541687,
-2.62909,0.576782,
-2.65808,0.602722,
-2.6886,0.579834,
-2.71454,0.546265,
-2.73438,0.538635,
-2.76031,0.576782,
-2.78778,0.6073,
-2.80762,0.58136,
-2.82898,0.553894,
-2.85492,0.534058,
-2.87781,0.575256,
-2.89917,0.610352,
-2.92358,0.58136,
-2.94647,0.543213,
-2.97394,0.537109,
-2.99683,0.575256,
-3.02277,0.614929,
-3.04718,0.582886,
-3.07007,0.544739,
-3.09296,0.535583,
-3.11584,0.576782,
-3.14026,0.608826,
-3.16467,0.584412,
-3.18909,0.546265,
-3.21198,0.534058,
-3.22876,0.575256,
-3.25623,0.608826,
-3.27759,0.582886,
-3.30505,0.540161,
-3.32642,0.534058,
-3.35083,0.585938,
-3.3783,0.6073,
-3.40576,0.579834,
-3.42712,0.553894,
-3.45306,0.535583,
-3.47443,0.572205,
-3.49579,0.608826,
-3.51257,0.582886,
-3.53241,0.543213,
-3.5553,0.537109,
-3.57513,0.58136,
-3.59955,0.6073,
-3.62244,0.584412,
-3.64075,0.544739,
-3.66669,0.535583,
-3.6911,0.58136,
-3.71094,0.6073,
-3.74146,0.588989,
-3.7674,0.546265,
-3.79181,0.537109,
-3.81165,0.579834,
-3.83453,0.611877,
-3.8559,0.58136,
-3.87573,0.546265,
-3.89862,0.537109,
-3.91541,0.578308,
-3.93524,0.6073,
-3.95203,0.585938,
-3.97797,0.541687,
-3.99475,0.538635,
-4.01306,0.575256,
-4.02527,0.610352,
-4.0329,0.587463,
-4.04205,0.544739,
-4.04358,0.537109,
-4.04205,0.576782,
-4.03137,0.611877,
-4.01154,0.584412,
-3.9856,0.544739,
-3.95508,0.538635,
-3.91541,0.608826,
-3.87268,0.611877,
-3.8208,0.585938,
-3.76587,0.544739,
-3.70026,0.535583,
-3.63464,0.578308,
-3.56445,0.613403,
-3.48816,0.582886,
-3.40729,0.543213,
-3.33252,0.537109,
-3.25165,0.576782,
-3.16925,0.608826,
-3.09296,0.584412,
-3.01361,0.546265,
-2.93884,0.526428,
-2.86407,0.570679,
-2.79083,0.6073,
-2.71454,0.58136,
-2.6535,0.543213,
-2.58484,0.538635,
-2.5238,0.575256,
-2.4704,0.6073,
-2.41852,0.58136,
-2.37427,0.546265,
-2.33002,0.537109,
-2.29187,0.576782,
-2.2583,0.608826,
-2.22321,0.585938,
-2.19574,0.541687,
-2.16064,0.540161,
-2.13776,0.576782,
-2.11639,0.593567,
-2.10419,0.584412,
-2.09045,0.543213,
-2.07672,0.537109,
-2.07062,0.57373,
-2.05688,0.610352,
-2.05688,0.57373,
-2.05841,0.541687,
-2.06451,0.534058,
-2.06757,0.575256,
-2.07367,0.608826,
-2.08435,0.579834,
-2.09351,0.541687,
-2.11334,0.52948,
-2.13013,0.576782,
-2.15149,0.610352,
-2.17285,0.578308,
-2.19727,0.541687,
-2.22321,0.538635,
-2.25372,0.576782,
-2.27661,0.602722,
-2.30865,0.579834,
-2.33307,0.544739,
-2.36359,0.540161,
-2.39105,0.576782,
-2.41852,0.611877,
-2.44751,0.576782,
-2.47345,0.538635,
-2.50092,0.537109,
-2.52686,0.563049,
-2.54669,0.614929,
-2.56805,0.575256,
-2.58789,0.52948,
-2.61078,0.540161,
-2.63214,0.566101,
-2.65198,0.611877,
-2.65961,0.561523,
-2.67181,0.546265,
-2.67639,0.543213,
-2.69165,0.578308,
-2.69775,0.590515,
-2.70233,0.575256,
-2.70233,0.547791,
-2.70538,0.538635,
-2.70844,0.57373,
-2.71454,0.605774,
-2.71759,0.570679,
-2.71454,0.544739,
-2.71454,0.538635,
-2.71759,0.57373,
-2.71759,0.611877,
-2.71301,0.578308,
-2.72064,0.537109,
-2.72827,0.538635,
-2.7298,0.575256,
-2.73285,0.610352,
-2.73438,0.576782,
-2.73743,0.52948,
-2.73438,0.540161,
-2.73285,0.576782,
-2.73132,0.602722,
-2.7359,0.57373,
-2.73438,0.543213,
-2.742,0.535583,
-2.74963,0.576782,
-2.75879,0.608826,
-2.76489,0.576782,
-2.77405,0.540161,
-2.78168,0.538635,
-2.79541,0.572205,
-2.80151,0.613403,
-2.80914,0.579834,
-2.8244,0.543213,
-2.84119,0.540161,
-2.85645,0.572205,
-2.8717,0.610352,
-2.89154,0.575256,
-2.90222,0.543213,
-2.91443,0.537109,
-2.93274,0.572205,
-2.94495,0.611877,
-2.96936,0.575256,
-2.9892,0.538635,
-3.01056,0.537109,
-3.03345,0.57373,
-3.05176,0.610352,
-3.07312,0.578308,
-3.09601,0.541687,
-3.1189,0.538635,
-3.14026,0.575256,
-3.1601,0.611877,
-3.18451,0.578308,
-3.20587,0.540161,
-3.22876,0.550842,
-3.24707,0.57373,
-3.27148,0.611877,
-3.29132,0.579834,
-3.31421,0.541687,
-3.33862,0.538635,
-3.35999,0.57373,
-3.38745,0.613403,
-3.41797,0.576782,
-3.44391,0.540161,
-3.47137,0.540161,
-3.50037,0.57373,
-3.52478,0.613403,
-3.54767,0.576782,
-3.5675,0.540161,
-3.58887,0.537109,
-3.60565,0.575256,
-3.62396,0.610352,
-3.63922,0.578308,
-3.66364,0.543213,
-3.685,0.537109,
-3.70331,0.572205,
-3.72162,0.611877,
-3.7384,0.579834,
-3.75977,0.540161,
-3.7796,0.535583,
-3.79639,0.575256,
-3.8147,0.611877,
-3.82996,0.579834,
-3.84979,0.543213,
-3.86658,0.540161,
-3.88336,0.57373,
-3.90015,0.610352,
-3.91693,0.579834,
-3.93219,0.541687,
-3.9444,0.538635,
-3.96271,0.57373,
-3.97797,0.613403,
-3.99017,0.576782,
-4.00848,0.535583,
-4.02679,0.537109,
-4.04205,0.57373,
-4.06342,0.614929,
-4.08173,0.58136,
-4.10156,0.543213,
-4.11224,0.544739,
-4.13055,0.570679,
-4.14429,0.611877,
-4.15649,0.579834,
-4.1687,0.543213,
-4.18243,0.540161,
-4.19312,0.575256,
-4.20532,0.611877,
-4.216,0.579834,
-4.23279,0.535583,
-4.24805,0.540161,
-4.26636,0.576782,
-4.28009,0.610352,
-4.29993,0.579834,
-4.31976,0.537109,
-4.3396,0.540161,
-4.36096,0.57373,
-4.37622,0.610352,
-4.39453,0.58136,
-4.40826,0.540161,
-4.41284,0.535583,
-4.41895,0.57373,
-4.41589,0.616455,
-4.41132,0.582886,
-4.39301,0.572205,
-4.37622,0.537109,
-4.35028,0.576782,
-4.31366,0.608826,
-4.27399,0.578308,
-4.23126,0.540161,
-4.18243,0.538635,
-4.1275,0.57373,
-4.06952,0.610352,
-4.00391,0.58136,
-3.93982,0.538635,
-3.87115,0.538635,
-3.79944,0.575256,
-3.72772,0.608826,
-3.65143,0.58136,
-3.57819,0.538635,
-3.50189,0.546265,
-3.42865,0.570679,
-3.35236,0.610352,
-3.28064,0.58136,
-3.2074,0.541687,
-3.14026,0.534058,
-3.08075,0.569153,
-3.02124,0.611877,
-2.96936,0.58136,
-2.92053,0.535583,
-2.87781,0.538635,
-2.83203,0.575256,
-2.79541,0.610352,
-2.75574,0.58136,
-2.72675,0.540161,
-2.69318,0.538635,
-2.66418,0.576782,
-2.63977,0.610352,
-2.61993,0.58136,
-2.60315,0.537109,
-2.59552,0.540161,
-2.59094,0.575256,
-2.58789,0.610352,
-2.58484,0.58136,
-2.58484,0.541687,
-2.58484,0.543213,
-2.59247,0.57373,
-2.59552,0.613403,
-2.59857,0.588989,
-2.60925,0.547791,
-2.62299,0.540161,
-2.63977,0.572205,
-2.65198,0.610352,
-2.66724,0.585938,
-2.68555,0.540161,
-2.70386,0.543213,
-2.72369,0.570679,
-2.742,0.648499,
-2.76794,0.582886,
-2.79236,0.537109,
-2.81219,0.538635,
-2.83813,0.570679,
-2.85797,0.613403,
-2.87933,0.584412,
-2.90375,0.538635,
-2.92816,0.535583,
-2.94952,0.57373,
-2.96631,0.611877,
-2.98309,0.582886,
-2.99988,0.535583,
-3.02124,0.535583,
-3.03497,0.569153,
-3.04718,0.613403,
-3.05634,0.588989,
-3.06244,0.527954,
-3.06549,0.537109,
-3.06854,0.569153,
-3.06854,0.613403,
-3.07312,0.582886,
-3.07465,0.538635,
-3.07312,0.543213,
-3.07159,0.584412,
-3.07159,0.614929,
-3.07007,0.582886,
-3.06854,0.541687,
-3.06854,0.543213,
-3.06549,0.570679,
-3.05939,0.6073,
-3.05481,0.585938,
-3.05023,0.521851,
-3.05023,0.537109,
-3.05176,0.57373,
-3.05176,0.619507,
-3.04871,0.582886,
-3.05176,0.546265,
-3.04871,0.538635,
-3.04413,0.547791,
-3.04565,0.610352,
-3.05023,0.585938,
-3.05328,0.535583,
-3.05786,0.534058,
-3.06702,0.567627,
-3.07312,0.608826,
-3.0838,0.585938,
-3.10211,0.534058,
-3.11279,0.538635,
-3.12805,0.572205,
-3.14331,0.610352,
-3.15399,0.582886,
-3.1662,0.521851,
-3.17841,0.540161,
-3.19214,0.559998,
-3.20282,0.608826,
-3.2135,0.584412,
-3.22266,0.538635,
-3.23639,0.540161,
-3.2547,0.572205,
-3.27301,0.610352,
-3.29437,0.587463,
-3.31573,0.540161,
-3.33252,0.534058,
-3.35541,0.570679,
-3.37524,0.611877,
-3.39355,0.584412,
-3.41797,0.538635,
-3.44543,0.540161,
-3.46375,0.569153,
-3.48206,0.610352,
-3.49731,0.585938,
-3.51715,0.538635,
-3.53241,0.541687,
-3.55225,0.570679,
-3.5675,0.613403,
-3.58734,0.584412,
-3.60565,0.538635,
-3.62549,0.541687,
-3.64227,0.569153,
-3.66364,0.610352,
-3.67432,0.585938,
-3.69415,0.537109,
-3.70941,0.540161,
-3.7262,0.544739,
-3.73993,0.610352,
-3.75671,0.587463,
-3.7674,0.538635,
-3.79028,0.544739,
-3.80554,0.58136,
-3.82538,0.611877,
-3.83759,0.619507,
-3.8559,0.534058,
-3.87115,0.544739,
-3.88947,0.569153,
-3.9093,0.608826,
-3.92456,0.587463,
-3.94287,0.535583,
-3.95813,0.538635,
-3.97797,0.576782,
-3.99323,0.616455,
-4.00543,0.592041,
-4.01459,0.538635,
-4.02985,0.543213,
-4.04205,0.572205,
-4.04968,0.610352,
-4.06189,0.587463,
-4.07562,0.527954,
-4.09241,0.538635,
-4.10004,0.569153,
-4.11377,0.610352,
-4.12445,0.593567,
-4.14124,0.535583,
-4.14886,0.543213,
-4.16412,0.563049,
-4.17633,0.611877,
-4.18701,0.587463,
-4.2038,0.540161,
-4.216,0.537109,
-4.22821,0.572205,
-4.24194,0.610352,
-4.24957,0.584412,
-4.2572,0.540161,
-4.27094,0.537109,
-4.28162,0.567627,
-4.28772,0.610352,
-4.30145,0.590515,
-4.31366,0.538635,
-4.32434,0.538635,
-4.33655,0.569153,
-4.35028,0.611877,
-4.35791,0.592041,
-4.37164,0.535583,
-4.38232,0.538635,
-4.38995,0.553894,
-4.40521,0.610352,
-4.42047,0.593567,
-4.44031,0.544739,
-4.45251,0.535583,
-4.47235,0.570679,
-4.48608,0.611877,
-4.50745,0.566101,
-4.52271,0.526428,
-4.54407,0.541687,
-4.56238,0.569153,
-4.58069,0.608826,
-4.59137,0.592041,
-4.60358,0.540161,
-4.62036,0.537109,
-4.63562,0.576782,
-4.6463,0.611877,
-4.64935,0.590515,
-4.6524,0.540161,
-4.64478,0.538635,
-4.63257,0.567627,
-4.61731,0.613403,
-4.58832,0.592041,
-4.56085,0.540161,
-4.52423,0.537109,
-4.48151,0.569153,
-4.43115,0.613403,
-4.37164,0.593567,
-4.31671,0.543213,
-4.25262,0.543213,
-4.18549,0.572205,
-4.11987,0.613403,
-4.04968,0.595093,
-3.97186,0.537109,
-3.89709,0.537109,
-3.82233,0.57373,
-3.74298,0.614929,
-3.66364,0.593567,
-3.59039,0.538635,
-3.51715,0.538635,
-3.44849,0.57373,
-3.3783,0.613403,
-3.31421,0.592041,
-3.2547,0.537109,
-3.20129,0.537109,
-3.14636,0.575256,
-3.09906,0.6073,
-3.05481,0.590515,
-3.01514,0.540161,
-2.97852,0.538635,
-2.94495,0.570679,
-2.9068,0.608826,
-2.87628,0.595093,
-2.84576,0.534058,
-2.8244,0.537109,
-2.80609,0.572205,
-2.78778,0.613403,
-2.76794,0.593567,
-2.75421,0.534058,
-2.73895,0.535583,
-2.72675,0.572205,
-2.72217,0.613403,
-2.71912,0.592041,
-2.72064,0.534058,
-2.72064,0.532532,
-2.71912,0.572205,
-2.71912,0.614929,
-2.72522,0.595093,
-2.72827,0.534058,
-2.73285,0.534058,
-2.73743,0.569153,
-2.74506,0.605774,
-2.75421,0.639343,
-2.76337,0.523376,
-2.77252,0.524902,
-2.78168,0.578308,
-2.79541,0.610352,
-2.81677,0.595093,
-2.83661,0.538635,
-2.85797,0.526428,
-2.88239,0.543213,
-2.90222,0.611877,
-2.91595,0.595093,
-2.93884,0.535583,
-2.96021,0.534058,
-2.97852,0.569153,
-2.99377,0.610352,
-3.00293,0.63324,
-3.01208,0.537109,
-3.01819,0.534058,
-3.02429,0.570679,
-3.03192,0.608826,
-3.03345,0.598145,
-3.03802,0.538635,
-3.03955,0.537109,
-3.0365,0.570679,
-3.03345,0.610352,
-3.0304,0.595093,
-3.02734,0.534058,
-3.01819,0.534058,
-3.01514,0.572205,
-3.00751,0.610352,
-2.99988,0.628662,
-2.99683,0.532532,
-2.98767,0.534058,
-2.97852,0.576782,
-2.97394,0.6073,
-2.96631,0.595093,
-2.96173,0.534058,
-2.9541,0.535583,
-2.94647,0.566101,
-2.94037,0.610352,
-2.93732,0.608826,
-2.93579,0.538635,
-2.93579,0.532532,
-2.93732,0.570679,
-2.93579,0.610352,
-2.93427,0.595093,
-2.93427,0.527954,
-2.93732,0.532532,
-2.94037,0.572205,
-2.94189,0.6073,
-2.948,0.595093,
-2.95258,0.538635,
-2.96326,0.534058,
-2.97394,0.575256,
-2.98767,0.601196,
-2.99988,0.598145,
-3.01361,0.535583,
-3.0304,0.52948,
-3.04413,0.572205,
-3.06244,0.608826,
-3.07922,0.59967,
-3.09601,0.534058,
-3.10974,0.532532,
-3.12653,0.575256,
-3.14178,0.6073,
-3.15857,0.602722,
-3.17535,0.538635,
-3.19519,0.532532,
-3.21503,0.57373,
-3.22876,0.610352,
-3.23944,0.598145,
-3.2547,0.535583,
-3.27148,0.534058,
-3.29132,0.569153,
-3.30353,0.608826,
-3.31726,0.598145,
-3.3371,0.527954,
-3.35693,0.532532,
-3.37524,0.570679,
-3.39355,0.622559,
-3.41034,0.593567,
-3.42407,0.52948,
-3.44238,0.537109,
-3.45612,0.578308,
-3.46527,0.605774,
-3.48358,0.598145,
-3.50037,0.537109,
-3.51868,0.514221,
-3.53699,0.584412,
-3.55682,0.602722,
-3.57056,0.59967,
-3.59192,0.532532,
-3.61328,0.532532,
-3.63617,0.569153,
-3.65753,0.604248,
-3.67279,0.601196,
-3.69568,0.538635,
-3.71704,0.535583,
-3.73383,0.572205,
-3.75214,0.605774,
-3.76892,0.59967,
-3.78571,0.544739,
-3.79791,0.52948,
-3.81927,0.570679,
-3.83301,0.610352,
-3.84827,0.598145,
-3.85895,0.535583,
-3.86963,0.534058,
-3.87878,0.570679,
-3.89252,0.608826,
-3.90625,0.598145,
-3.92303,0.535583,
-3.93219,0.526428,
-3.94592,0.570679,
-3.95508,0.6073,
-3.96576,0.598145,
-3.97797,0.549316,
-3.98712,0.527954,
-4.00238,0.570679,
-4.01001,0.601196,
-4.01764,0.598145,
-4.02985,0.537109,
-4.04205,0.532532,
-4.05121,0.579834,
-4.06036,0.6073,
-4.07257,0.59967,
-4.08325,0.534058,
-4.09393,0.534058,
-4.10309,0.572205,
-4.11377,0.608826,
-4.1275,0.601196,
-4.14124,0.535583,
-4.15497,0.535583,
-4.1687,0.575256,
-4.1748,0.634766,
-4.18701,0.595093,
-4.19922,0.538635,
-4.21143,0.52948,
-4.22363,0.570679,
-4.24194,0.605774,
-4.25415,0.598145,
-4.27246,0.569153,
-4.28162,0.535583,
-4.29993,0.570679,
-4.31061,0.608826,
-4.32281,0.59967,
-4.33807,0.538635,
-4.34875,0.532532,
-4.36096,0.57373,
-4.37317,0.610352,
-4.38232,0.59967,
-4.39301,0.538635,
-4.40826,0.534058,
-4.41895,0.570679,
-4.43115,0.6073,
-4.44031,0.59967,
-4.45557,0.535583,
-4.46777,0.532532,
-4.48303,0.566101,
-4.49677,0.6073,
-4.5105,0.602722,
-4.5166,0.538635,
-4.52118,0.520325,
-4.51965,0.567627,
-4.5105,0.605774,
-4.49371,0.595093,
-4.4754,0.534058,
-4.44794,0.511169,
-4.41132,0.556946,
-4.36859,0.613403,
-4.31976,0.598145,
-4.26636,0.544739,
-4.20532,0.52948,
-4.14429,0.567627,
-4.07562,0.602722,
-4.00543,0.616455,
-3.93524,0.532532,
-3.862,0.527954,
-3.78723,0.570679,
-3.70941,0.6073,
-3.63464,0.598145,
-3.55988,0.535583,
-3.49426,0.538635,
-3.42407,0.563049,
-3.35388,0.6073,
-3.29285,0.598145,
-3.23029,0.538635,
-3.1723,0.532532,
-3.12195,0.576782,
-3.07312,0.608826,
-3.01971,0.601196,
-2.97089,0.538635,
-2.92969,0.534058,
-2.88544,0.566101,
-2.84576,0.608826,
-2.81219,0.59967,
-2.78778,0.538635,
-2.76031,0.532532,
-2.7359,0.563049,
-2.71912,0.608826,
-2.70081,0.59967,
-2.69012,0.540161,
-2.67944,0.52948,
-2.67334,0.556946,
-2.66266,0.6073,
-2.65808,0.601196,
-2.66266,0.537109,
-2.66266,0.535583,
-2.66876,0.566101,
-2.67029,0.608826,
-2.67792,0.6073,
-2.68402,0.541687,
-2.69318,0.527954,
-2.69928,0.567627,
-2.70538,0.605774,
-2.71301,0.59967,
-2.72675,0.541687,
-2.73743,0.534058,
-2.75269,0.556946,
-2.76794,0.610352,
-2.7832,0.598145,
-2.79541,0.541687,
-2.81067,0.526428,
-2.82593,0.561523,
-2.83966,0.608826,
-2.85034,0.59967,
-2.86255,0.541687,
-2.87933,0.532532,
-2.89459,0.567627,
-2.90375,0.610352,
-2.90833,0.601196,
-2.92053,0.535583,
-2.92969,0.544739,
-2.93579,0.567627,
-2.93579,0.605774,
-2.94037,0.601196,
-2.94189,0.541687,
-2.94189,0.527954,
-2.94189,0.570679,
-2.94342,0.6073,
-2.94037,0.59967,
-2.94189,0.541687,
-2.94037,0.52948,
-2.94189,0.566101,
-2.94037,0.605774,
-2.94037,0.601196,
-2.93121,0.543213,
-2.92511,0.517273,
-2.91443,0.563049,
-2.90985,0.6073,
-2.89917,0.598145,
-2.89154,0.541687,
-2.89154,0.537109,
-2.88696,0.570679,
-2.87933,0.6073,
-2.87476,0.598145,
-2.8717,0.540161,
-2.86865,0.538635,
-2.87323,0.567627,
-2.87781,0.602722,
-2.88086,0.598145,
-2.88544,0.538635,
-2.89764,0.526428,
-2.9007,0.569153,
-2.9068,0.605774,
-2.91595,0.602722,
-2.92511,0.543213,
-2.92969,0.518799,
-2.93884,0.566101,
-2.94952,0.6073,
-2.96021,0.59967,
-2.97089,0.544739,
-2.98462,0.526428,
-2.99683,0.567627,
-3.01666,0.610352,
-3.0304,0.598145,
-3.04565,0.544739,
-3.06396,0.527954,
-3.07922,0.572205,
-3.09143,0.6073,
-3.10516,0.601196,
-3.12042,0.543213,
-3.13263,0.526428,
-3.14941,0.567627,
-3.16162,0.604248,
-3.17383,0.604248,
-3.19061,0.544739,
-3.2074,0.527954,
-3.22266,0.569153,
-3.23944,0.602722,
-3.25775,0.601196,
-3.27454,0.543213,
-3.28522,0.527954,
-3.30353,0.572205,
-3.32031,0.590515,
-3.33862,0.610352,
-3.35541,0.547791,
-3.37219,0.527954,
-3.3905,0.561523,
-3.40271,0.605774,
-3.42255,0.59967,
-3.43628,0.543213,
-3.46069,0.526428,
-3.479,0.572205,
-3.49731,0.604248,
-3.51715,0.611877,
-3.53241,0.543213,
-3.55072,0.526428,
-3.57208,0.569153,
-3.59344,0.602722,
-3.60565,0.59967,
-3.61938,0.547791,
-3.63617,0.524902,
-3.65143,0.569153,
-3.66669,0.605774,
-3.68195,0.595093,
-3.6972,0.546265,
-3.70941,0.527954,
-3.72925,0.569153,
-3.74146,0.610352,
-3.75824,0.592041,
-3.7735,0.546265,
-3.78876,0.527954,
-3.79791,0.569153,
-3.8147,0.59967,
-3.82385,0.604248,
-3.83759,0.544739,
-3.84979,0.526428,
-3.86505,0.567627,
-3.88641,0.604248,
-3.89862,0.604248,
-3.90778,0.550842,
-3.92456,0.527954,
-3.93372,0.570679,
-3.94897,0.605774,
-3.96118,0.59967,
-3.98102,0.546265,
-3.99475,0.524902,
-4.01001,0.566101,
-4.02069,0.601196,
-4.03748,0.598145,
-4.04663,0.546265,
-4.06342,0.524902,
-4.0741,0.569153,
-4.0863,0.602722,
-4.10156,0.598145,
-4.1153,0.543213,
-4.12903,0.526428,
-4.14276,0.569153,
-4.15649,0.601196,
-4.16565,0.598145,
-4.17633,0.546265,
-4.19159,0.524902,
-4.20532,0.567627,
-4.21906,0.608826,
-4.22516,0.595093,
-4.23431,0.547791,
-4.24347,0.524902,
-4.25568,0.566101,
-4.26483,0.602722,
-4.27551,0.595093,
-4.28619,0.547791,
-4.30298,0.526428,
-4.31824,0.569153,
-4.3335,0.602722,
-4.3457,0.601196,
-4.35791,0.552368,
-4.37622,0.524902,
-4.39606,0.570679,
-4.41132,0.602722,
-4.42963,0.601196,
-4.44794,0.538635,
-4.46167,0.526428,
-4.47998,0.569153,
-4.48914,0.605774,
-4.50287,0.59967,
-4.51965,0.550842,
-4.53033,0.526428,
-4.54407,0.570679,
-4.55627,0.602722,
-4.5639,0.598145,
-4.57153,0.547791,
-4.57764,0.526428,
-4.58221,0.567627,
-4.58069,0.59967,
-4.57153,0.601196,
-4.55017,0.547791,
-4.52728,0.524902,
-4.49982,0.570679,
-4.46625,0.617981,
-4.422,0.59967,
-4.37622,0.547791,
-4.32739,0.523376,
-4.26788,0.567627,
-4.20685,0.6073,
-4.14276,0.593567,
-4.0741,0.595093,
-4.00391,0.523376,
-3.93219,0.567627,
-3.85742,0.604248,
-3.77808,0.59967,
-3.70178,0.550842,
-3.62854,0.521851,
-3.55377,0.563049,
-3.47595,0.59967,
-3.39813,0.595093,
-3.32642,0.546265,
-3.25928,0.524902,
-3.19214,0.575256,
-3.13568,0.598145,
-3.0777,0.593567,
-3.0304,0.549316,
-2.98615,0.523376,
-2.94342,0.570679,
-2.90375,0.602722,
-2.86407,0.59967,
-2.83203,0.550842,
-2.79846,0.524902,
-2.76794,0.563049,
-2.73895,0.602722,
-2.71454,0.595093,
-2.69775,0.552368,
-2.67792,0.526428,
-2.66418,0.578308,
-2.65045,0.59967,
-2.63672,0.592041,
-2.62451,0.549316,
-2.61688,0.523376,
-2.60773,0.567627,
-2.60468,0.601196,
-2.59705,0.595093,
-2.58789,0.547791,
-2.58942,0.518799,
-2.59094,0.567627,
-2.59247,0.59967,
-2.59705,0.598145,
-2.60468,0.552368,
-2.61688,0.527954,
-2.62604,0.567627,
-2.63367,0.601196,
-2.64435,0.593567,
-2.65503,0.550842,
-2.67334,0.524902,
-2.68402,0.570679,
-2.69928,0.598145,
-2.71301,0.592041,
-2.72675,0.550842,
-2.73895,0.527954,
-2.75726,0.567627,
-2.771,0.601196,
-2.79083,0.59967,
-2.80457,0.547791,
-2.8183,0.532532,
-2.83203,0.547791,
-2.84576,0.608826,
-2.85797,0.601196,
-2.86713,0.550842,
-2.8717,0.524902,
-2.87628,0.567627,
-2.87933,0.598145,
-2.87933,0.595093,
-2.87933,0.540161,
-2.88086,0.523376,
-2.87933,0.566101,
-2.87781,0.601196,
-2.87628,0.593567,
-2.87933,0.553894,
-2.87476,0.52948,
-2.8656,0.567627,
-2.86255,0.598145,
-2.85645,0.592041,
-2.84729,0.550842,
-2.84576,0.523376,
-2.83966,0.566101,
-2.83203,0.59967,
-2.82745,0.595093,
-2.82593,0.547791,
-2.8183,0.523376,
-2.82288,0.569153,
-2.82135,0.598145,
-2.82135,0.593567,
-2.8183,0.552368,
-2.82288,0.523376,
-2.82593,0.570679,
-2.82898,0.601196,
-2.83051,0.593567,
-2.83661,0.552368,
-2.84119,0.521851,
-2.84576,0.559998,
-2.85034,0.578308,
-2.84882,0.593567,
-2.85034,0.550842,
-2.85645,0.524902,
-2.86102,0.566101,
-2.86255,0.593567,
-2.87018,0.595093,
-2.8717,0.550842,
-2.88086,0.521851,
-2.89001,0.569153,
-2.89917,0.593567,
-2.90985,0.590515,
-2.92358,0.550842,
-2.93732,0.538635,
-2.948,0.558472,
-2.96021,0.593567,
-2.97546,0.585938,
-2.98462,0.552368,
-2.99988,0.523376,
-3.01208,0.569153,
-3.02887,0.595093,
-3.03955,0.590515,
-3.06244,0.552368,
-3.07159,0.521851,
-3.08533,0.563049,
-3.10059,0.592041,
-3.10669,0.584412,
-3.11737,0.552368,
-3.13568,0.518799,
-3.15247,0.559998,
-3.16772,0.598145,
-3.18298,0.576782,
-3.19519,0.552368,
-3.21808,0.527954,
-3.23639,0.575256,
-3.25165,0.593567,
-3.27301,0.592041,
-3.29285,0.579834,
-3.31268,0.538635,
-3.33405,0.563049,
-3.35541,0.595093,
-3.36609,0.592041,
-3.38593,0.550842,
-3.40576,0.521851,
-3.42865,0.563049,
-3.45001,0.593567,
-3.46375,0.588989,
-3.47748,0.552368,
-3.49121,0.520325,
-3.50952,0.563049,
-3.52173,0.592041,
-3.53394,0.590515,
-3.54767,0.552368,
-3.55988,0.520325,
-3.57361,0.563049,
-3.58276,0.602722,
-3.59039,0.59967,
-3.59955,0.553894,
-3.60718,0.521851,
-3.61786,0.567627,
-3.62854,0.595093,
-3.63617,0.588989,
-3.64685,0.550842,
-3.66058,0.518799,
-3.66974,0.567627,
-3.68347,0.590515,
-3.68958,0.588989,
-3.6972,0.556946,
-3.70789,0.520325,
-3.72314,0.570679,
-3.73077,0.602722,
-3.73535,0.588989,
-3.74603,0.553894,
-3.75671,0.521851,
-3.76587,0.567627,
-3.77808,0.592041,
-3.79181,0.588989,
-3.79944,0.553894,
-3.81317,0.535583,
-3.82843,0.563049,
-3.83759,0.587463,
-3.85284,0.588989,
-3.86353,0.553894,
-3.87421,0.523376,
-3.88947,0.566101,
-3.89862,0.590515,
-3.91083,0.584412,
-3.92456,0.552368,
-3.93524,0.518799,
-3.94745,0.569153,
-3.9566,0.590515,
-3.97034,0.587463,
-3.98254,0.550842,
-3.99628,0.520325,
-4.00543,0.566101,
-4.02069,0.588989,
-4.03595,0.584412,
-4.04663,0.547791,
-4.05884,0.518799,
-4.07257,0.567627,
-4.08325,0.590515,
-4.09546,0.584412,
-4.10767,0.546265,
-4.11224,0.511169,
-4.11377,0.563049,
-4.1153,0.593567,
-4.11072,0.587463,
-4.10614,0.550842,
-4.09546,0.521851,
-4.0741,0.556946,
-4.04663,0.588989,
-4.01611,0.588989,
-3.98102,0.550842,
-3.93982,0.523376,
-3.89404,0.561523,
-3.84064,0.587463,
-3.78571,0.584412,
-3.72772,0.552368,
-3.66211,0.521851,
-3.59802,0.566101,
-3.53394,0.590515,
-3.46527,0.585938,
-3.39508,0.549316,
-3.32489,0.520325,
-3.25317,0.566101,
-3.18451,0.585938,
-3.11584,0.576782,
-3.04718,0.550842,
-2.98309,0.520325,
-2.92053,0.566101,
-2.86255,0.587463,
-2.80457,0.585938,
-2.75269,0.55542,
-2.70386,0.515747,
-2.65961,0.563049,
-2.61688,0.588989,
-2.57416,0.585938,
-2.53601,0.552368,
-2.50397,0.520325,
-2.47803,0.561523,
-2.44751,0.584412,
-2.4292,0.587463,
-2.41089,0.55542,
-2.39563,0.523376,
-2.38495,0.561523,
-2.37427,0.590515,
-2.36359,0.584412,
-2.35138,0.553894,
-2.34833,0.520325,
-2.3468,0.563049,
-2.34528,0.588989,
-2.34528,0.579834,
-2.34528,0.552368,
-2.34375,0.521851,
-2.3468,0.561523,
-2.35291,0.590515,
-2.35901,0.582886,
-2.37122,0.558472,
-2.39105,0.521851,
-2.40326,0.561523,
-2.4231,0.588989,
-2.43988,0.582886,
-2.46735,0.552368,
-2.49023,0.518799,
-2.51617,0.563049,
-2.54211,0.584412,
-2.56195,0.58136,
-2.58331,0.55542,
-2.60773,0.520325,
-2.62909,0.558472,
-2.65045,0.587463,
-2.66724,0.585938,
-2.6886,0.552368,
-2.70386,0.521851,
-2.71912,0.559998,
-2.73743,0.588989,
-2.74658,0.582886,
-2.76031,0.552368,
-2.76947,0.524902,
-2.78168,0.563049,
-2.78625,0.585938,
-2.79083,0.584412,
-2.79694,0.553894,
-2.79846,0.518799,
-2.80457,0.563049,
-2.80151,0.587463,
-2.79694,0.58136,
-2.79694,0.549316,
-2.79388,0.520325,
-2.78778,0.584412,
-2.77863,0.595093,
-2.7771,0.578308,
-2.77405,0.550842,
-2.771,0.524902,
-2.76794,0.561523,
-2.76337,0.585938,
-2.75421,0.582886,
-2.74811,0.549316,
-2.742,0.521851,
-2.73285,0.559998,
-2.7298,0.585938,
-2.7298,0.58136,
-2.72369,0.550842,
-2.71454,0.518799,
-2.70996,0.556946,
-2.71149,0.584412,
-2.70844,0.579834,
-2.70691,0.550842,
-2.70996,0.523376,
-2.70691,0.572205,
-2.70691,0.588989,
-2.70691,0.572205,
-2.70691,0.532532,
-2.70691,0.524902,
-2.71454,0.559998,
-2.72522,0.579834,
-2.73743,0.592041,
-2.74658,0.550842,
-2.75879,0.520325,
-2.771,0.561523,
-2.78625,0.585938,
-2.79388,0.579834,
-2.80304,0.550842,
-2.81525,0.524902,
-2.82745,0.558472,
-2.84119,0.584412,
-2.85034,0.579834,
-2.86102,0.553894,
-2.86713,0.521851,
-2.87476,0.563049,
-2.89154,0.576782,
-2.90375,0.58136,
-2.91748,0.552368,
-2.93732,0.523376,
-2.948,0.559998,
-2.96173,0.585938,
-2.97241,0.576782,
-2.98615,0.558472,
-3.00293,0.537109,
-3.02124,0.556946,
-3.03955,0.584412,
-3.05328,0.582886,
-3.07159,0.55542,
-3.0838,0.515747,
-3.10211,0.561523,
-3.11432,0.566101,
-3.1311,0.58136,
-3.14484,0.55542,
-3.15857,0.527954,
-3.17841,0.558472,
-3.18604,0.595093,
-3.20129,0.579834,
-3.2135,0.549316,
-3.22418,0.532532,
-3.24249,0.559998,
-3.25317,0.585938,
-3.26538,0.578308,
-3.27759,0.553894,
-3.2959,0.511169,
-3.30811,0.575256,
-3.32336,0.584412,
-3.34015,0.578308,
-3.35388,0.550842,
-3.37067,0.520325,
-3.3844,0.55542,
-3.40729,0.58136,
-3.41949,0.578308,
-3.43628,0.553894,
-3.45154,0.521851,
-3.46527,0.558472,
-3.48358,0.582886,
-3.50342,0.579834,
-3.5202,0.556946,
-3.52936,0.524902,
-3.54767,0.556946,
-3.55682,0.582886,
-3.5675,0.576782,
-3.58429,0.546265,
-3.59344,0.524902,
-3.59802,0.556946,
-3.61176,0.58136,
-3.61786,0.578308,
-3.63007,0.553894,
-3.64075,0.521851,
-3.6499,0.556946,
-3.65753,0.584412,
-3.66821,0.575256,
-3.67432,0.553894,
-3.685,0.521851,
-3.69415,0.55542,
-3.70026,0.58136,
-3.70789,0.575256,
-3.72009,0.552368,
-3.7262,0.523376,
-3.73993,0.55542,
-3.74603,0.582886,
-3.75977,0.575256,
-3.76892,0.552368,
-3.77808,0.526428,
-3.79181,0.55542,
-3.79791,0.582886,
-3.81165,0.578308,
-3.82538,0.55542,
-3.83453,0.502014,
-3.84521,0.559998,
-3.85284,0.584412,
-3.85895,0.575256,
-3.8559,0.563049,
-3.85437,0.520325,
-3.83911,0.561523,
-3.8208,0.598145,
-3.79944,0.601196,
-3.7674,0.546265,
-3.73077,0.524902,
-3.685,0.553894,
-3.63007,0.582886,
-3.57208,0.575256,
-3.50952,0.553894,
-3.43933,0.521851,
-3.36609,0.55542,
-3.28674,0.587463,
-3.20587,0.576782,
-3.12042,0.55542,
-3.03345,0.521851,
-2.948,0.556946,
-2.8595,0.58136,
-2.77252,0.566101,
-2.68555,0.552368,
-2.59857,0.521851,
-2.5177,0.556946,
-2.43225,0.58136,
-2.34985,0.575256,
-2.27509,0.55542,
-2.20642,0.520325,
-2.13623,0.556946,
-2.07214,0.579834,
-2.005,0.570679,
-1.94702,0.553894,
-1.89362,0.523376,
-1.84174,0.556946,
-1.79291,0.582886,
-1.75018,0.578308,
-1.71509,0.553894,
-1.6861,0.520325,
-1.66016,0.553894,
-1.63269,0.58136,
-1.61285,0.578308,
-1.5976,0.553894,
-1.58081,0.527954,
-1.56555,0.55542,
-1.5564,0.578308,
-1.55029,0.578308,
-1.53351,0.552368,
-1.53046,0.518799,
-1.52893,0.544739,
-1.53351,0.579834,
-1.53351,0.578308,
-1.53809,0.553894,
-1.54877,0.521851,
-1.5564,0.552368,
-1.56403,0.578308,
-1.57166,0.582886,
-1.57928,0.550842,
-1.59454,0.518799,
-1.60522,0.553894,
-1.62201,0.58136,
-1.63727,0.57373,
-1.65405,0.552368,
-1.67389,0.520325,
-1.69067,0.550842,
-1.70746,0.584412,
-1.72577,0.575256,
-1.74408,0.552368,
-1.77155,0.518799,
-1.78223,0.556946,
-1.79901,0.58136,
-1.81427,0.575256,
-1.83716,0.550842,
-1.85242,0.520325,
-1.86768,0.552368,
-1.87531,0.578308,
-1.88751,0.57373,
-1.90125,0.549316,
-1.91193,0.518799,
-1.91803,0.559998,
-1.92413,0.55542,
-1.93176,0.575256,
-1.93481,0.550842,
-1.93939,0.523376,
-1.94397,0.556946,
-1.94244,0.585938,
-1.94092,0.582886,
-1.93939,0.582886,
-1.93634,0.527954,
-1.92871,0.550842,
-1.91803,0.575256,
-1.90735,0.567627,
-1.89819,0.543213,
-1.89514,0.520325,
-1.88599,0.549316,
-1.87988,0.621033,
-1.87683,0.559998,
-1.87073,0.550842,
-1.87073,0.517273,
-1.86615,0.550842,
-1.86462,0.570679,
-1.85852,0.58136,
-1.85089,0.549316,
-1.84326,0.491333,
-1.84326,0.550842,
-1.84326,0.578308,
-1.84631,0.57373,
-1.84479,0.550842,
-1.84784,0.517273,
-1.85242,0.553894,
-1.86157,0.576782,
-1.86462,0.576782,
-1.86768,0.552368,
-1.8692,0.520325,
-1.87836,0.549316,
-1.88293,0.579834,
-1.88904,0.57373,
-1.90125,0.552368,
-1.91345,0.517273,
-1.92413,0.552368,
-1.93176,0.576782,
-1.94397,0.572205,
-1.95923,0.552368,
-1.97754,0.517273,
-1.99127,0.550842,
-2.00958,0.576782,
-2.02484,0.572205,
-2.04163,0.550842,
-2.06451,0.526428,
-2.07977,0.558472,
-2.09656,0.582886,
-2.11487,0.575256,
-2.13623,0.57373,
-2.15759,0.521851,
-2.1759,0.547791,
-2.19727,0.578308,
-2.22015,0.58136,
-2.24152,0.550842,
-2.2583,0.521851,
-2.28271,0.550842,
-2.30713,0.58136,
-2.32391,0.575256,
-2.34375,0.550842,
-2.36359,0.520325,
-2.3819,0.547791,
-2.40173,0.58136,
-2.42462,0.57373,
-2.44751,0.550842,
-2.46735,0.521851,
-2.49023,0.550842,
-2.5116,0.582886,
-2.53601,0.584412,
-2.55432,0.550842,
-2.57263,0.515747,
-2.59247,0.550842,
-2.61078,0.578308,
-2.62909,0.570679,
-2.65045,0.547791,
-2.66571,0.559998,
-2.69012,0.526428,
-2.70996,0.579834,
-2.72675,0.576782,
-2.742,0.550842,
-2.76031,0.517273,
-2.77557,0.552368,
-2.79083,0.579834,
-2.81219,0.576782,
-2.82745,0.549316,
-2.84424,0.520325,
-2.85645,0.549316,
-2.87018,0.58136,
-2.87933,0.578308,
-2.89459,0.553894,
-2.91138,0.515747,
-2.92511,0.550842,
-2.94037,0.58136,
-2.95563,0.576782,
-2.96173,0.553894,
-2.97394,0.520325,
-2.98462,0.549316,
-2.9953,0.58136,
-3.0014,0.579834,
-3.00903,0.547791,
-3.01819,0.518799,
-3.02429,0.549316,
-3.03955,0.566101,
-3.04871,0.575256,
-3.06396,0.552368,
-3.0777,0.520325,
-3.09601,0.553894,
-3.11127,0.58136,
-3.12805,0.579834,
-3.14484,0.558472,
-3.1662,0.526428,
-3.18604,0.549316,
-3.20587,0.585938,
-3.21808,0.602722,
-3.23792,0.572205,
-3.25012,0.517273,
-3.26385,0.549316,
-3.27911,0.579834,
-3.29132,0.578308,
-3.29895,0.549316,
-3.30353,0.518799,
-3.30353,0.526428,
-3.302,0.579834,
-3.28217,0.575256,
-3.25928,0.552368,
-3.23639,0.520325,
-3.20282,0.547791,
-3.16162,0.585938,
-3.11432,0.576782,
-3.05481,0.576782,
-2.99835,0.518799,
-2.93427,0.55542,
-2.86102,0.58136,
-2.78625,0.578308,
-2.70233,0.553894,
-2.62146,0.517273,
-2.53296,0.543213,
-2.44751,0.579834,
-2.35901,0.57373,
-2.27051,0.552368,
-2.18353,0.517273,
-2.09198,0.543213,
-2.00958,0.576782,
-1.91498,0.578308,
-1.83563,0.544739,
-1.75934,0.506592,
-1.68152,0.544739,
-1.61133,0.578308,
-1.55182,0.57373,
-1.49536,0.550842,
-1.44043,0.518799,
-1.39771,0.546265,
-1.35651,0.576782,
-1.32446,0.579834,
-1.28632,0.549316,
-1.2558,0.514221,
-1.22833,0.546265,
-1.20239,0.570679,
-1.18103,0.578308,
-1.16119,0.550842,
-1.14899,0.515747,
-1.13983,0.541687,
-1.13373,0.576782,
-1.12915,0.58136,
-1.12762,0.584412,
-1.12915,0.517273,
-1.1261,0.541687,
-1.13068,0.576782,
-1.13068,0.575256,
-1.13983,0.552368,
-1.14899,0.515747,
-1.16119,0.541687,
-1.1795,0.578308,
-1.19324,0.58136,
-1.21155,0.547791,
-1.23138,0.521851,
-1.25732,0.535583,
-1.28021,0.572205,
-1.30463,0.575256,
-1.33667,0.547791,
-1.36871,0.515747,
-1.40228,0.540161,
-1.43585,0.576782,
-1.46484,0.58136,
-1.49994,0.549316,
-1.52893,0.515747,
-1.56403,0.563049,
-1.59302,0.578308,
-1.62354,0.579834,
-1.64642,0.549316,
-1.67084,0.518799,
-1.69983,0.541687,
-1.72729,0.578308,
-1.74713,0.575256,
-1.76392,0.543213,
-1.77917,0.515747,
-1.79901,0.537109,
-1.81122,0.579834,
-1.82037,0.579834,
-1.82495,0.547791,
-1.83563,0.521851,
-1.84174,0.540161,
-1.84021,0.58136,
-1.84021,0.579834,
-1.84631,0.575256,
-1.84326,0.517273,
-1.84174,0.537109,
-1.84021,0.58136,
-1.83716,0.578308,
-1.83411,0.549316,
-1.83258,0.517273,
-1.82648,0.535583,
-1.8219,0.579834,
-1.8219,0.570679,
-1.81122,0.550842,
-1.80817,0.518799,
-1.80206,0.538635,
-1.80054,0.579834,
-1.80054,0.579834,
-1.79291,0.549316,
-1.79291,0.515747,
-1.79291,0.537109,
-1.79291,0.578308,
-1.79443,0.579834,
-1.79596,0.547791,
-1.79443,0.515747,
-1.79749,0.535583,
-1.80054,0.575256,
-1.81122,0.579834,
-1.81732,0.547791,
-1.82648,0.517273,
-1.83716,0.534058,
-1.84784,0.579834,
-1.86462,0.579834,
-1.87531,0.546265,
-1.89362,0.517273,
-1.9043,0.538635,
-1.92108,0.575256,
-1.93024,0.579834,
-1.9455,0.556946,
-1.96533,0.518799,
-1.98517,0.538635,
-2.005,0.579834,
-2.02637,0.58136,
-2.04468,0.549316,
-2.06451,0.517273,
-2.08282,0.535583,
-2.10419,0.579834,
-2.11945,0.579834,
-2.13776,0.550842,
-2.16064,0.520325,
-2.18353,0.538635,
-2.2049,0.572205,
-2.23083,0.566101,
-2.25067,0.534058,
-2.27203,0.514221,
-2.30103,0.537109,
-2.33459,0.575256,
-2.36511,0.578308,
-2.39563,0.546265,
-2.42767,0.535583,
-2.45667,0.543213,
-2.4826,0.578308,
-2.50854,0.579834,
-2.53601,0.547791,
-2.56348,0.517273,
-2.59552,0.537109,
-2.61993,0.575256,
-2.64435,0.62561,
-2.67181,0.546265,
-2.69623,0.515747,
-2.72675,0.535583,
-2.74658,0.579834,
-2.77557,0.58136,
-2.79999,0.544739,
-2.8244,0.517273,
-2.84729,0.534058,
-2.87018,0.598145,
-2.89459,0.579834,
-2.9129,0.546265,
-2.93579,0.517273,
-2.96173,0.535583,
-2.97852,0.578308,
-3.00446,0.58136,
-3.02277,0.547791,
-3.04565,0.518799,
-3.06854,0.532532,
-3.08838,0.579834,
-3.11127,0.584412,
-3.1311,0.546265,
-3.14941,0.518799,
-3.17383,0.532532,
-3.19366,0.579834,
-3.21655,0.579834,
-3.23944,0.546265,
-3.25775,0.518799,
-3.28064,0.532532,
-3.29742,0.578308,
-3.31421,0.579834,
-3.33099,0.547791,
-3.35083,0.521851,
-3.36456,0.535583,
-3.37677,0.578308,
-3.39203,0.582886,
-3.40576,0.546265,
-3.41644,0.515747,
-3.42865,0.52948,
-3.43933,0.576782,
-3.45306,0.582886,
-3.46985,0.546265,
-3.48358,0.518799,
-3.49579,0.534058,
-3.51257,0.578308,
-3.52325,0.588989,
-3.53241,0.543213,
-3.54309,0.517273,
-3.55072,0.534058,
-3.55377,0.579834,
-3.55225,0.579834,
-3.55225,0.544739,
-3.53851,0.515747,
-3.51563,0.52948,
-3.48053,0.575256,
-3.44543,0.582886,
-3.39813,0.543213,
-3.34778,0.521851,
-3.29132,0.52948,
-3.23029,0.570679,
-3.17078,0.579834,
-3.10211,0.547791,
-3.0365,0.514221,
-2.96478,0.532532,
-2.89307,0.578308,
-2.82288,0.584412,
-2.75269,0.544739,
-2.68402,0.491333,
-2.62451,0.523376,
-2.55585,0.570679,
-2.49176,0.582886,
-2.43225,0.546265,
-2.37122,0.515747,
-2.32391,0.534058,
-2.26593,0.559998,
-2.22168,0.567627,
-2.1698,0.544739,
-2.13013,0.514221,
-2.09351,0.534058,
-2.05994,0.576782,
-2.03094,0.58136,
-2.005,0.546265,
-1.98059,0.517273,
-1.96533,0.532532,
-1.94397,0.58136,
-1.93176,0.582886,
-1.92261,0.556946,
-1.91345,0.515747,
-1.90887,0.527954,
-1.90277,0.576782,
-1.9043,0.58136,
-1.90887,0.547791,
-1.90887,0.520325,
-1.91193,0.526428,
-1.92261,0.578308,
-1.93024,0.584412,
-1.94244,0.546265,
-1.96228,0.514221,
-1.98059,0.527954,
-1.99738,0.576782,
-2.02026,0.58136,
-2.04315,0.546265,
-2.07062,0.515747,
-2.10114,0.532532,
-2.12555,0.576782,
-2.15302,0.58136,
-2.18201,0.546265,
-2.21405,0.515747,
-2.24457,0.52948,
-2.27356,0.576782,
-2.30103,0.58136,
-2.33154,0.544739,
-2.36359,0.512695,
-2.3941,0.532532,
-2.4231,0.59967,
-2.45361,0.584412,
-2.48108,0.541687,
-2.50397,0.515747,
-2.52533,0.52948,
-2.54669,0.578308,
-2.56348,0.584412,
-2.58026,0.544739,
-2.59552,0.515747,
-2.60925,0.52948,
-2.62451,0.578308,
-2.63519,0.585938,
-2.64587,0.546265,
-2.65198,0.518799,
-2.66266,0.527954,
-2.66571,0.579834,
-2.66876,0.588989,
-2.66876,0.549316,
-2.67181,0.515747,
-2.67029,0.527954,
-2.66724,0.582886,
-2.66571,0.592041,
-2.66571,0.540161,
-2.66418,0.509644,
-2.66266,0.52948,
-2.65656,0.576782,
-2.65198,0.582886,
-2.64435,0.547791,
-2.63977,0.511169,
-2.63367,0.523376,
-2.63062,0.549316,
-2.62756,0.584412,
-2.62146,0.546265,
-2.62451,0.514221,
-2.62756,0.526428,
-2.62909,0.587463,
-2.63367,0.578308,
-2.63824,0.544739,
-2.64893,0.518799,
-2.65503,0.524902,
-2.66418,0.578308,
-2.67181,0.585938,
-2.68402,0.547791,
-2.6947,0.520325,
-2.70538,0.526428,
-2.72064,0.58136,
-2.73132,0.582886,
-2.74506,0.543213,
-2.75879,0.514221,
-2.771,0.515747,
-2.78931,0.579834,
-2.79846,0.584412,
-2.81677,0.544739,
-2.83051,0.518799,
-2.84729,0.526428,
-2.86865,0.578308,
-2.88239,0.584412,
-2.9068,0.550842,
-2.92511,0.511169,
-2.95105,0.524902,
-2.96478,0.579834,
-2.9892,0.575256,
-3.01208,0.547791,
-3.02887,0.518799,
-3.05481,0.524902,
-3.07465,0.579834,
-3.09601,0.582886,
-3.11737,0.544739,
-3.14026,0.514221,
-3.17078,0.527954,
-3.19519,0.582886,
-3.21655,0.58136,
-3.24249,0.546265,
-3.26843,0.514221,
-3.28979,0.526428,
-3.31726,0.58136,
-3.33862,0.585938,
-3.36304,0.544739,
-3.38745,0.515747,
-3.41339,0.527954,
-3.44086,0.58136,
-3.45764,0.584412,
-3.479,0.547791,
-3.49884,0.517273,
-3.51868,0.524902,
-3.53699,0.58136,
-3.55682,0.58136,
-3.58124,0.544739,
-3.59955,0.520325,
-3.62854,0.526428,
-3.6499,0.579834,
-3.66974,0.584412,
-3.6911,0.544739,
-3.71246,0.523376,
-3.73688,0.52948,
-3.75824,0.578308,
-3.7796,0.58136,
-3.80096,0.541687,
-3.8208,0.518799,
-3.84216,0.498962,
-3.85895,0.572205,
-3.88184,0.58136,
-3.89709,0.550842,
-3.91388,0.512695,
-3.92914,0.52948,
-3.94592,0.58136,
-3.96423,0.566101,
-3.97339,0.547791,
-3.99017,0.515747,
-4.01001,0.523376,
-4.02374,0.582886,
-4.03748,0.582886,
-4.04816,0.543213,
-4.06494,0.517273,
-4.08325,0.534058,
-4.09698,0.58136,
-4.10919,0.584412,
-4.11835,0.543213,
-4.11835,0.520325,
-4.1153,0.524902,
-4.11377,0.590515,
-4.10004,0.585938,
-4.07715,0.544739,
-4.04816,0.517273,
-4.01306,0.523376,
-3.97339,0.576782,
-3.93372,0.585938,
-3.88336,0.547791,
-3.82843,0.515747,
-3.77045,0.527954,
-3.70636,0.578308,
-3.64227,0.584412,
-3.57361,0.546265,
-3.508,0.517273,
-3.44086,0.521851,
-3.37219,0.576782,
-3.30505,0.582886,
-3.23792,0.546265,
-3.17383,0.514221,
-3.11737,0.526428,
-3.05786,0.578308,
-3.00446,0.587463,
-2.94952,0.543213,
-2.9007,0.509644,
-2.85492,0.52948,
-2.80914,0.576782,
-2.76947,0.585938,
-2.73285,0.546265,
-2.69928,0.515747,
-2.67487,0.524902,
-2.65503,0.578308,
-2.63367,0.584412,
-2.61688,0.538635,
-2.60162,0.515747,
-2.58789,0.527954,
-2.57721,0.579834,
-2.56653,0.587463,
-2.55737,0.546265,
-2.54974,0.517273,
-2.54822,0.524902,
-2.54822,0.58136,
-2.54822,0.582886,
-2.54822,0.544739,
-2.55432,0.512695,
-2.56653,0.523376,
-2.57111,0.578308,
-2.57721,0.585938,
-2.58789,0.546265,
-2.6001,0.515747,
-2.60773,0.524902,
-2.62604,0.579834,
-2.64435,0.587463,
-2.66571,0.550842,
-2.68555,0.523376,
-2.70538,0.527954,
-2.72827,0.578308,
-2.74811,0.587463,
-2.77557,0.544739,
-2.79694,0.515747,
-2.82135,0.526428,
-2.84576,0.576782,
-2.87323,0.587463,
-2.90222,0.544739,
-2.92358,0.515747,
-2.948,0.523376,
-2.96936,0.578308,
-2.99377,0.587463,
-3.01514,0.544739,
-3.0304,0.506592,
-3.05176,0.520325,
-3.06702,0.575256,
-3.0777,0.585938,
-3.08533,0.544739,
-3.09753,0.515747,
-3.11279,0.524902,
-3.12042,0.579834,
-3.12805,0.593567,
-3.12653,0.544739,
-3.13263,0.517273,
-3.13416,0.523376,
-3.13416,0.576782,
-3.13568,0.584412,
-3.13873,0.543213,
-3.13416,0.517273,
-3.13263,0.520325,
-3.12653,0.578308,
-3.125,0.587463,
-3.12042,0.546265,
-3.12042,0.518799,
-3.11737,0.526428,
-3.11279,0.576782,
-3.10669,0.588989,
-3.10211,0.547791,
-3.09906,0.514221,
-3.09143,0.527954,
-3.08685,0.576782,
-3.08685,0.587463,
-3.08533,0.544739,
-3.08685,0.515747,
-3.09296,0.523376,
-3.09753,0.579834,
-3.10059,0.585938,
-3.10822,0.547791,
-3.11279,0.518799,
-3.11737,0.523376,
-3.12347,0.579834,
-3.13568,0.584412,
-3.14484,0.544739,
-3.15399,0.517273,
-3.16772,0.523376,
-3.17993,0.579834,
-3.18909,0.584412,
-3.19977,0.546265,
-3.2135,0.517273,
-3.22418,0.521851,
-3.23486,0.579834,
-3.24554,0.585938,
-3.2547,0.541687,
-3.26996,0.517273,
-3.28369,0.526428,
-3.2959,0.575256,
-3.30963,0.585938,
-3.32031,0.547791,
-3.32642,0.515747,
-3.3371,0.523376,
-3.35236,0.576782,
-3.36151,0.587463,
-3.37677,0.544739,
-3.39355,0.512695,
-3.40729,0.524902,
-3.4256,0.576782,
-3.43475,0.585938,
-3.45764,0.546265,
-3.47595,0.515747,
-3.48969,0.523376,
-3.50952,0.575256,
-3.5141,0.588989,
-3.52936,0.547791,
-3.53851,0.512695,
-3.55072,0.523376,
-3.56445,0.576782,
-3.57513,0.585938,
-3.58582,0.544739,
-3.60107,0.512695,
-3.61328,0.523376,
-3.62701,0.579834,
-3.63922,0.588989,
-3.65448,0.546265,
-3.66974,0.518799,
-3.68195,0.526428,
-3.70178,0.579834,
-3.71704,0.585938,
-3.73383,0.546265,
-3.75214,0.517273,
-3.77197,0.524902,
-3.79181,0.575256,
-3.80554,0.587463,
-3.82233,0.546265,
-3.83606,0.517273,
-3.85284,0.526428,
-3.87115,0.575256,
-3.88794,0.590515,
-3.90625,0.552368,
-3.91693,0.514221,
-3.93372,0.523376,
-3.94592,0.579834,
-3.96576,0.588989,
-3.97949,0.541687,
-3.9978,0.515747,
-4.01611,0.508118,
-4.03748,0.579834,
-4.05273,0.598145,
-4.07562,0.541687,
-4.09698,0.556946,
-4.11377,0.518799,
-4.1275,0.58136,
-4.14276,0.585938,
-4.15802,0.547791,
-4.17938,0.512695,
-4.19312,0.524902,
-4.2099,0.563049,
-4.22363,0.621033,
-4.23737,0.546265,
-4.24957,0.512695,
-4.25873,0.523376,
-4.27094,0.579834,
-4.27246,0.585938,
-4.27399,0.550842,
-4.26788,0.523376,
-4.25415,0.523376,
-4.23737,0.575256,
-4.21143,0.590515,
-4.17938,0.547791,
-4.13971,0.515747,
-4.10461,0.524902,
-4.05121,0.578308,
-3.99628,0.587463,
-3.93524,0.549316,
-3.86963,0.514221,
-3.80859,0.521851,
-3.74146,0.578308,
-3.68042,0.585938,
-3.61328,0.550842,
-3.54614,0.512695,
-3.48663,0.526428,
-3.41797,0.57373,
-3.35999,0.587463,
-3.29895,0.547791,
-3.23792,0.515747,
-3.18451,0.524902,
-3.13416,0.578308,
-3.0838,0.584412,
-3.03802,0.549316,
-2.99377,0.514221,
-2.95563,0.526428,
-2.91595,0.585938,
-2.87781,0.588989,
-2.84576,0.547791,
-2.81219,0.517273,
-2.78625,0.526428,
-2.75726,0.575256,
-2.73743,0.585938,
-2.72217,0.544739,
-2.70844,0.517273,
-2.69928,0.523376,
-2.6886,0.578308,
-2.67944,0.587463,
-2.66876,0.547791,
-2.66418,0.512695,
-2.66571,0.524902,
-2.66418,0.578308,
-2.66571,0.587463,
-2.66876,0.546265,
-2.67181,0.512695,
-2.67944,0.523376,
-2.68707,0.578308,
-2.69318,0.585938,
-2.70386,0.547791,
-2.70844,0.511169,
-2.72522,0.524902,
-2.73743,0.576782,
-2.75574,0.587463,
-2.77405,0.547791,
-2.79083,0.512695,
-2.80762,0.524902,
-2.82593,0.578308,
-2.84271,0.585938,
-2.8595,0.544739,
-2.87628,0.511169,
-2.89764,0.521851,
-2.90985,0.579834,
-2.92358,0.585938,
-2.93884,0.547791,
-2.948,0.511169,
-2.96631,0.524902,
-2.97699,0.576782,
-2.98615,0.587463,
-2.9953,0.558472,
-3.00598,0.517273,
-3.01361,0.523376,
-3.01514,0.579834,
-3.01971,0.588989,
-3.02887,0.546265,
-3.0304,0.514221,
-3.03345,0.514221,
-3.02429,0.576782,
-3.01819,0.590515,
-3.01666,0.537109,
-3.00751,0.514221,
-2.99835,0.523376,
-2.9892,0.58136,
-2.98004,0.588989,
-2.97394,0.546265,
-2.96326,0.512695,
-2.95868,0.526428,
-2.9541,0.576782,
-2.94495,0.590515,
-2.94037,0.547791,
-2.93579,0.514221,
-2.92969,0.527954,
-2.91901,0.579834,
-2.90985,0.587463,
-2.90375,0.547791,
-2.89764,0.512695,
-2.89917,0.540161,
-2.89764,0.579834,
-2.89764,0.636292,
-2.89764,0.543213,
-2.89917,0.514221,
-2.89764,0.523376,
-2.89917,0.575256,
-2.9007,0.587463,
-2.9068,0.553894,
-2.90985,0.527954,
-2.91443,0.523376,
-2.91901,0.584412,
-2.92358,0.584412,
-2.93274,0.547791,
-2.94037,0.514221,
-2.948,0.524902,
-2.95563,0.582886,
-2.96173,0.587463,
-2.96936,0.547791,
-2.97852,0.511169,
-2.98157,0.524902,
-2.99072,0.576782,
-3.0014,0.57373,
-3.00751,0.552368,
-3.01361,0.514221,
-3.02277,0.524902,
-3.0365,0.575256,
-3.04565,0.592041,
-3.05939,0.549316,
-3.0777,0.500488,
-3.08838,0.523376,
-3.10516,0.575256,
-3.12653,0.588989,
-3.14026,0.546265,
-3.15552,0.511169,
-3.1723,0.524902,
-3.19214,0.576782,
-3.20587,0.588989,
-3.22723,0.547791,
-3.24554,0.514221,
-3.26233,0.526428,
-3.28369,0.584412,
-3.30353,0.588989,
-3.32489,0.549316,
-3.34473,0.512695,
-3.36456,0.523376,
-3.38593,0.57373,
-3.39813,0.588989,
-3.40729,0.547791,
-3.4256,0.511169,
-3.43933,0.524902,
-3.45306,0.575256,
-3.46832,0.590515,
-3.48358,0.546265,
-3.50037,0.511169,
-3.51563,0.524902,
-3.53394,0.576782,
-3.54614,0.585938,
-3.56293,0.55542,
-3.57819,0.509644,
-3.59039,0.521851,
-3.60413,0.572205,
-3.61633,0.592041,
-3.62701,0.543213,
-3.64685,0.509644,
-3.65753,0.511169,
-3.66974,0.575256,
-3.68195,0.585938,
-3.70026,0.544739,
-3.71094,0.509644,
-3.72162,0.521851,
-3.73383,0.576782,
-3.74908,0.598145,
-3.75977,0.552368,
-3.77197,0.50354,
-3.7796,0.523376,
-3.79944,0.575256,
-3.81165,0.590515,
-3.82538,0.547791,
-3.83911,0.509644,
-3.85284,0.523376,
-3.8681,0.575256,
-3.87726,0.587463,
-3.88641,0.524902,
-3.89709,0.495911,
