-4.98962,0.387573,
-5.00336,0.43335,
-5.02319,0.386047,
-5.0415,0.358582,
-5.06287,0.361633,
-5.07965,0.384521,
-5.09491,0.479126,
-5.10864,0.384521,
-5.12848,0.350952,
-5.13611,0.350952,
-5.14984,0.387573,
-5.16205,0.431824,
-5.16815,0.386047,
-5.18341,0.354004,
-5.19562,0.366211,
-5.20325,0.387573,
-5.21393,0.436401,
-5.22156,0.382996,
-5.23682,0.354004,
-5.24445,0.366211,
-5.25055,0.375366,
-5.25818,0.434875,
-5.26733,0.386047,
-5.27954,0.354004,
-5.28564,0.363159,
-5.29175,0.384521,
-5.29785,0.436401,
-5.30396,0.375366,
-5.31006,0.357056,
-5.31616,0.369263,
-5.31921,0.386047,
-5.32227,0.436401,
-5.32532,0.387573,
-5.33295,0.367737,
-5.33905,0.375366,
-5.3421,0.386047,
-5.34515,0.431824,
-5.35126,0.389099,
-5.35583,0.35553,
-5.36499,0.370789,
-5.37262,0.389099,
-5.37567,0.434875,
-5.3833,0.389099,
-5.38635,0.35553,
-5.39093,0.367737,
-5.40161,0.386047,
-5.41077,0.434875,
-5.41534,0.389099,
-5.42145,0.358582,
-5.43365,0.367737,
-5.43976,0.393677,
-5.45044,0.439453,
-5.45959,0.389099,
-5.46875,0.35553,
-5.48248,0.372314,
-5.49316,0.386047,
-5.5069,0.436401,
-5.52368,0.387573,
-5.53436,0.357056,
-5.54962,0.367737,
-5.56793,0.389099,
-5.57709,0.436401,
-5.59235,0.392151,
-5.60303,0.35553,
-5.61676,0.366211,
-5.62897,0.382996,
-5.6366,0.434875,
-5.64575,0.389099,
-5.65643,0.357056,
-5.66101,0.367737,
-5.66711,0.387573,
-5.66864,0.434875,
-5.66559,0.40741,
-5.65338,0.354004,
-5.62744,0.366211,
-5.59082,0.401306,
-5.54199,0.431824,
-5.47791,0.390625,
-5.40466,0.358582,
-5.32532,0.366211,
-5.24445,0.390625,
-5.15442,0.43335,
-5.06897,0.38147,
-4.98199,0.354004,
-4.89197,0.363159,
-4.79736,0.393677,
-4.71344,0.408936,
-4.62646,0.392151,
-4.55017,0.360107,
-4.4754,0.35553,
-4.40216,0.390625,
-4.32892,0.428772,
-4.26636,0.393677,
-4.2099,0.35553,
-4.16565,0.367737,
-4.1153,0.387573,
-4.0741,0.43335,
-4.04053,0.392151,
-4.01611,0.35553,
-3.99323,0.367737,
-3.97644,0.392151,
-3.96271,0.437927,
-3.9505,0.393677,
-3.94592,0.35553,
-3.9444,0.363159,
-3.9444,0.387573,
-3.94897,0.436401,
-3.95966,0.39978,
-3.96729,0.357056,
-3.9856,0.363159,
-4.00238,0.390625,
-4.02679,0.434875,
-4.04663,0.402832,
-4.07257,0.35553,
-4.09546,0.367737,
-4.11682,0.389099,
-4.14124,0.43335,
-4.16565,0.404358,
-4.18701,0.357056,
-4.21906,0.363159,
-4.24652,0.389099,
-4.26941,0.431824,
-4.30298,0.405884,
-4.33044,0.354004,
-4.35486,0.367737,
-4.38232,0.393677,
-4.41437,0.427246,
-4.43878,0.410461,
-4.47083,0.346375,
-4.49677,0.32196,
-4.52728,0.369263,
-4.54865,0.440979,
-4.57764,0.408936,
-4.60205,0.357056,
-4.62799,0.354004,
-4.64783,0.390625,
-4.67682,0.434875,
-4.69818,0.413513,
-4.71954,0.357056,
-4.7348,0.35553,
-4.74854,0.390625,
-4.75159,0.428772,
-4.76074,0.413513,
-4.75769,0.338745,
-4.75769,0.35553,
-4.75159,0.386047,
-4.74091,0.43335,
-4.72717,0.416565,
-4.71191,0.354004,
-4.69208,0.354004,
-4.67834,0.389099,
-4.65393,0.428772,
-4.62952,0.415039,
-4.60358,0.352478,
-4.58527,0.354004,
-4.55933,0.387573,
-4.53491,0.43335,
-4.50897,0.413513,
-4.48303,0.35553,
-4.45557,0.352478,
-4.43726,0.393677,
-4.41895,0.428772,
-4.40369,0.416565,
-4.39148,0.35553,
-4.37927,0.350952,
-4.36859,0.389099,
-4.35638,0.431824,
-4.3457,0.418091,
-4.3396,0.352478,
-4.3335,0.350952,
-4.33044,0.390625,
-4.32892,0.43335,
-4.32587,0.413513,
-4.32739,0.35553,
-4.32739,0.349426,
-4.33044,0.392151,
-4.33502,0.424194,
-4.33807,0.415039,
-4.34723,0.350952,
-4.35028,0.349426,
-4.35791,0.389099,
-4.37164,0.422668,
-4.38232,0.422668,
-4.39606,0.352478,
-4.41132,0.350952,
-4.42505,0.39978,
-4.44031,0.42572,
-4.45404,0.418091,
-4.46777,0.3479,
-4.48608,0.349426,
-4.50134,0.390625,
-4.51813,0.437927,
-4.53491,0.418091,
-4.55322,0.340271,
-4.56543,0.3479,
-4.58374,0.389099,
-4.59595,0.439453,
-4.60968,0.418091,
-4.62036,0.416565,
-4.63257,0.3479,
-4.64783,0.393677,
-4.66156,0.416565,
-4.67987,0.427246,
-4.69208,0.349426,
-4.70581,0.350952,
-4.7226,0.389099,
-4.73785,0.384521,
-4.75769,0.421143,
-4.7699,0.350952,
-4.78516,0.349426,
-4.80042,0.38147,
-4.80804,0.424194,
-4.82025,0.418091,
-4.83246,0.3479,
-4.83856,0.3479,
-4.84924,0.390625,
-4.8584,0.421143,
-4.86755,0.421143,
-4.87366,0.346375,
-4.88129,0.346375,
-4.88739,0.387573,
-4.89044,0.390625,
-4.89807,0.421143,
-4.9057,0.350952,
-4.91486,0.3479,
-4.91943,0.372314,
-4.92401,0.421143,
-4.92706,0.469971,
-4.93317,0.346375,
-4.93622,0.346375,
-4.93927,0.387573,
-4.94537,0.424194,
-4.94995,0.422668,
-4.953,0.338745,
-4.953,0.343323,
-4.95605,0.386047,
-4.95758,0.421143,
-4.96216,0.424194,
-4.96216,0.344849,
-4.96674,0.343323,
-4.96979,0.387573,
-4.96826,0.424194,
-4.96826,0.421143,
-4.96979,0.344849,
-4.96368,0.341797,
-4.96674,0.386047,
-4.96521,0.421143,
-4.96063,0.421143,
-4.95605,0.349426,
-4.95605,0.343323,
-4.953,0.382996,
-4.953,0.427246,
-4.95453,0.424194,
-4.953,0.346375,
-4.95453,0.338745,
-4.95453,0.39978,
-4.94995,0.408936,
-4.94843,0.424194,
-4.94537,0.3479,
-4.94385,0.341797,
-4.93774,0.38147,
-4.93927,0.421143,
-4.93927,0.421143,
-4.93927,0.349426,
-4.93927,0.32959,
-4.9408,0.349426,
-4.94537,0.402832,
-4.95453,0.422668,
-4.95453,0.344849,
-4.96368,0.341797,
-4.96979,0.384521,
-4.97894,0.424194,
-4.98657,0.456238,
-4.99573,0.343323,
-5.00946,0.32196,
-5.02319,0.386047,
-5.03082,0.422668,
-5.0415,0.421143,
-5.04608,0.343323,
-5.05981,0.338745,
-5.0705,0.384521,
-5.07965,0.422668,
-5.09033,0.424194,
-5.09644,0.3479,
-5.10864,0.338745,
-5.11475,0.379944,
-5.1239,0.424194,
-5.13,0.424194,
-5.12543,0.395203,
-5.11627,0.334167,
-5.09186,0.382996,
-5.06134,0.422668,
-5.01099,0.428772,
-4.95453,0.352478,
-4.88892,0.335693,
-4.80957,0.379944,
-4.7287,0.422668,
-4.63409,0.424194,
-4.54559,0.346375,
-4.45099,0.337219,
-4.36096,0.382996,
-4.27399,0.42572,
-4.18243,0.421143,
-4.10309,0.3479,
-4.02374,0.30365,
-3.94592,0.376892,
-3.88031,0.428772,
-3.81317,0.421143,
-3.75671,0.3479,
-3.70331,0.343323,
-3.66211,0.379944,
-3.62091,0.421143,
-3.58429,0.419617,
-3.55377,0.346375,
-3.52783,0.328064,
-3.508,0.384521,
-3.48969,0.421143,
-3.47137,0.422668,
-3.45764,0.3479,
-3.45612,0.318909,
-3.44543,0.38147,
-3.44391,0.437927,
-3.44391,0.421143,
-3.44543,0.344849,
-3.45306,0.325012,
-3.46069,0.38147,
-3.46832,0.424194,
-3.48358,0.419617,
-3.49731,0.343323,
-3.5141,0.332642,
-3.53546,0.387573,
-3.55682,0.422668,
-3.57971,0.419617,
-3.6026,0.343323,
-3.62549,0.334167,
-3.6499,0.378418,
-3.68042,0.42572,
-3.70941,0.422668,
-3.7384,0.341797,
-3.7674,0.334167,
-3.79944,0.378418,
-3.82996,0.422668,
-3.862,0.416565,
-3.89404,0.338745,
-3.92609,0.332642,
-3.95966,0.378418,
-3.99475,0.422668,
-4.02832,0.421143,
-4.06647,0.337219,
-4.10156,0.332642,
-4.13361,0.387573,
-4.16412,0.424194,
-4.18854,0.419617,
-4.21295,0.3479,
-4.23737,0.332642,
-4.24805,0.392151,
-4.26483,0.418091,
-4.27246,0.483704,
-4.28619,0.314331,
-4.28925,0.332642,
-4.28925,0.38147,
-4.29077,0.437927,
-4.28619,0.421143,
-4.27246,0.344849,
-4.26025,0.335693,
-4.24805,0.378418,
-4.22516,0.42572,
-4.20227,0.424194,
-4.17633,0.35553,
-4.15344,0.335693,
-4.13055,0.384521,
-4.10156,0.434875,
-4.06952,0.483704,
-4.04205,0.3479,
-4.01459,0.32959,
-3.98102,0.366211,
-3.95508,0.428772,
-3.92609,0.395203,
-3.89709,0.346375,
-3.87421,0.32959,
-3.85437,0.376892,
-3.82996,0.422668,
-3.81927,0.419617,
-3.79944,0.344849,
-3.79028,0.332642,
-3.77655,0.376892,
-3.7674,0.427246,
-3.75977,0.416565,
-3.75671,0.3479,
-3.74908,0.32959,
-3.74146,0.375366,
-3.73993,0.42572,
-3.73688,0.416565,
-3.73688,0.343323,
-3.73688,0.326538,
-3.7384,0.376892,
-3.74603,0.42572,
-3.74908,0.413513,
-3.75824,0.344849,
-3.76587,0.32959,
-3.7735,0.389099,
-3.77655,0.427246,
-3.78723,0.418091,
-3.79791,0.392151,
-3.81317,0.334167,
-3.82996,0.378418,
-3.84064,0.421143,
-3.8559,0.418091,
-3.86963,0.346375,
-3.88184,0.328064,
-3.89862,0.378418,
-3.9093,0.479126,
-3.92456,0.42572,
-3.93829,0.354004,
-3.95966,0.328064,
-3.97797,0.376892,
-3.9978,0.413513,
-4.00543,0.408936,
-4.02069,0.3479,
-4.03595,0.326538,
-4.05121,0.384521,
-4.06647,0.421143,
-4.08173,0.416565,
-4.09851,0.3479,
-4.11835,0.328064,
-4.13208,0.379944,
-4.14734,0.422668,
-4.16718,0.416565,
-4.18243,0.349426,
-4.19922,0.32959,
-4.21295,0.382996,
-4.23126,0.421143,
-4.245,0.40741,
-4.25873,0.349426,
-4.27704,0.328064,
-4.29077,0.37384,
-4.30756,0.421143,
-4.31976,0.416565,
-4.33502,0.340271,
-4.3457,0.38147,
-4.35791,0.378418,
-4.37164,0.42572,
-4.37927,0.40741,
-4.39148,0.346375,
-4.39606,0.326538,
-4.40674,0.38147,
-4.41437,0.421143,
-4.42047,0.405884,
-4.42352,0.3479,
-4.42505,0.32959,
-4.42352,0.389099,
-4.422,0.419617,
-4.41589,0.40741,
-4.41589,0.349426,
-4.41742,0.332642,
-4.41742,0.38147,
-4.41589,0.421143,
-4.41132,0.40741,
-4.41589,0.349426,
-4.41284,0.32959,
-4.41284,0.38147,
-4.41132,0.419617,
-4.40826,0.40741,
-4.40216,0.352478,
-4.39758,0.32959,
-4.39453,0.379944,
-4.38843,0.419617,
-4.38843,0.39978,
-4.38232,0.3479,
-4.3808,0.328064,
-4.37927,0.384521,
-4.37775,0.421143,
-4.37622,0.402832,
-4.37927,0.350952,
-4.37927,0.328064,
-4.37927,0.384521,
-4.3808,0.43335,
-4.38232,0.410461,
-4.38385,0.3479,
-4.39148,0.332642,
-4.39148,0.38147,
-4.39758,0.419617,
-4.39911,0.39978,
-4.40979,0.350952,
-4.41437,0.326538,
-4.41895,0.382996,
-4.42352,0.422668,
-4.4281,0.404358,
-4.42963,0.352478,
-4.4342,0.332642,
-4.44031,0.38147,
-4.44031,0.422668,
-4.44489,0.401306,
-4.45251,0.3479,
-4.45251,0.334167,
-4.45099,0.376892,
-4.43878,0.42572,
-4.41742,0.39978,
-4.38843,0.354004,
-4.34875,0.335693,
-4.29993,0.384521,
-4.23889,0.42572,
-4.16718,0.40741,
-4.08783,0.349426,
-4.00391,0.335693,
-3.91846,0.389099,
-3.83759,0.427246,
-3.74298,0.404358,
-3.65448,0.361633,
-3.5675,0.3479,
-3.48358,0.382996,
-3.39813,0.42572,
-3.31879,0.404358,
-3.24707,0.352478,
-3.17841,0.335693,
-3.11279,0.361633,
-3.05481,0.427246,
-3.0014,0.40741,
-2.9541,0.352478,
-2.90985,0.341797,
-2.86865,0.384521,
-2.82898,0.428772,
-2.79388,0.402832,
-2.76794,0.352478,
-2.74811,0.340271,
-2.73132,0.382996,
-2.71454,0.42572,
-2.70996,0.401306,
-2.70691,0.360107,
-2.70233,0.325012,
-2.70081,0.38147,
-2.71149,0.431824,
-2.71454,0.39978,
-2.72827,0.35553,
-2.742,0.344849,
-2.76184,0.387573,
-2.7771,0.428772,
-2.79694,0.395203,
-2.81677,0.35553,
-2.84119,0.341797,
-2.86865,0.386047,
-2.89307,0.43335,
-2.91901,0.393677,
-2.94647,0.354004,
-2.96936,0.343323,
-2.99835,0.389099,
-3.02277,0.431824,
-3.04871,0.392151,
-3.07465,0.349426,
-3.10211,0.344849,
-3.13263,0.393677,
-3.15552,0.445557,
-3.18909,0.395203,
-3.2196,0.352478,
-3.25012,0.344849,
-3.27911,0.387573,
-3.30505,0.437927,
-3.33252,0.401306,
-3.35846,0.361633,
-3.38593,0.344849,
-3.40729,0.396729,
-3.42865,0.434875,
-3.44086,0.395203,
-3.45612,0.352478,
-3.46527,0.35553,
-3.46985,0.386047,
-3.47748,0.500488,
-3.47748,0.408936,
-3.47595,0.3479,
-3.4668,0.346375,
-3.45917,0.395203,
-3.44238,0.440979,
-3.42712,0.405884,
-3.40271,0.358582,
-3.3783,0.344849,
-3.35846,0.389099,
-3.33862,0.428772,
-3.30811,0.402832,
-3.28522,0.354004,
-3.25623,0.344849,
-3.23334,0.387573,
-3.21045,0.440979,
-3.18451,0.395203,
-3.16467,0.317383,
-3.14178,0.344849,
-3.12042,0.390625,
-3.10059,0.447083,
-3.0838,0.401306,
-3.06702,0.354004,
-3.05176,0.352478,
-3.03955,0.389099,
-3.02734,0.444031,
-3.01056,0.40741,
-2.99683,0.354004,
-2.98615,0.350952,
-2.97852,0.389099,
-2.96936,0.440979,
-2.96021,0.410461,
-2.9541,0.354004,
-2.95258,0.349426,
-2.948,0.393677,
-2.948,0.440979,
-2.948,0.40741,
-2.948,0.352478,
-2.95105,0.354004,
-2.96021,0.38147,
-2.96631,0.437927,
-2.97699,0.418091,
-2.98462,0.317383,
-2.9953,0.357056,
-3.00293,0.389099,
-3.00751,0.442505,
-3.01666,0.410461,
-3.03345,0.341797,
-3.04413,0.358582,
-3.05328,0.393677,
-3.06854,0.444031,
-3.07922,0.415039,
-3.09296,0.349426,
-3.10822,0.352478,
-3.12042,0.392151,
-3.1311,0.447083,
-3.14484,0.413513,
-3.1601,0.350952,
-3.1723,0.352478,
-3.19061,0.401306,
-3.20282,0.447083,
-3.21503,0.416565,
-3.22418,0.350952,
-3.23944,0.354004,
-3.25317,0.401306,
-3.26385,0.447083,
-3.27454,0.421143,
-3.28674,0.350952,
-3.2959,0.357056,
-3.30505,0.395203,
-3.31116,0.447083,
-3.32184,0.418091,
-3.33252,0.354004,
-3.34473,0.357056,
-3.35693,0.393677,
-3.36151,0.445557,
-3.37067,0.418091,
-3.37372,0.35553,
-3.38287,0.354004,
-3.3905,0.395203,
-3.39813,0.442505,
-3.40729,0.410461,
-3.41644,0.349426,
-3.42407,0.354004,
-3.43323,0.393677,
-3.43323,0.447083,
-3.44391,0.418091,
-3.44543,0.35553,
-3.45306,0.357056,
-3.45459,0.393677,
-3.45612,0.450134,
-3.45764,0.421143,
-3.46069,0.350952,
-3.46222,0.312805,
-3.4668,0.390625,
-3.46985,0.448608,
-3.46527,0.421143,
-3.4668,0.354004,
-3.4668,0.358582,
-3.46832,0.392151,
-3.46985,0.447083,
-3.46222,0.42572,
-3.46375,0.350952,
-3.46375,0.361633,
-3.4668,0.393677,
-3.46527,0.45166,
-3.46375,0.424194,
-3.46375,0.346375,
-3.46222,0.357056,
-3.46375,0.395203,
-3.46069,0.450134,
-3.45764,0.427246,
-3.45764,0.354004,
-3.45459,0.360107,
-3.45459,0.396729,
-3.45154,0.450134,
-3.44849,0.42572,
-3.44696,0.352478,
-3.44543,0.361633,
-3.44391,0.396729,
-3.44696,0.448608,
-3.45154,0.427246,
-3.45612,0.350952,
-3.46527,0.358582,
-3.47443,0.401306,
-3.48206,0.454712,
-3.48816,0.427246,
-3.49884,0.354004,
-3.50037,0.358582,
-3.51257,0.402832,
-3.52173,0.453186,
-3.52631,0.445557,
-3.53851,0.354004,
-3.54767,0.357056,
-3.55682,0.39978,
-3.56598,0.45166,
-3.57513,0.413513,
-3.58429,0.357056,
-3.5965,0.402832,
-3.60718,0.396729,
-3.62091,0.453186,
-3.63007,0.436401,
-3.63922,0.357056,
-3.6499,0.358582,
-3.65295,0.387573,
-3.6499,0.447083,
-3.64685,0.431824,
-3.63312,0.350952,
-3.60718,0.35553,
-3.5675,0.404358,
-3.5202,0.453186,
-3.46222,0.434875,
-3.39203,0.354004,
-3.31268,0.357056,
-3.22876,0.39978,
-3.14026,0.453186,
-3.04565,0.437927,
-2.9541,0.358582,
-2.86102,0.357056,
-2.771,0.401306,
-2.67792,0.45166,
-2.59094,0.439453,
-2.50397,0.354004,
-2.42004,0.35553,
-2.34375,0.404358,
-2.26593,0.456238,
-2.20337,0.437927,
-2.13928,0.352478,
-2.07977,0.354004,
-2.034,0.404358,
-1.98212,0.456238,
-1.93939,0.418091,
-1.90277,0.367737,
-1.87225,0.352478,
-1.84784,0.39978,
-1.82495,0.454712,
-1.80664,0.442505,
-1.79901,0.35553,
-1.79291,0.352478,
-1.7868,0.402832,
-1.7868,0.405884,
-1.78986,0.424194,
-1.79596,0.363159,
-1.80511,0.350952,
-1.81122,0.404358,
-1.82648,0.457764,
-1.83868,0.444031,
-1.84937,0.390625,
-1.87073,0.384521,
-1.88751,0.395203,
-1.90582,0.466919,
-1.92413,0.444031,
-1.94702,0.360107,
-1.96533,0.357056,
-1.98822,0.416565,
-2.00653,0.462341,
-2.02484,0.448608,
-2.04773,0.369263,
-2.07214,0.352478,
-2.09198,0.379944,
-2.11639,0.444031,
-2.14081,0.447083,
-2.16522,0.358582,
-2.18658,0.350952,
-2.21405,0.402832,
-2.23694,0.456238,
-2.26135,0.445557,
-2.28882,0.3479,
-2.31171,0.352478,
-2.33612,0.39978,
-2.35443,0.456238,
-2.36969,0.444031,
-2.38495,0.360107,
-2.40021,0.352478,
-2.40631,0.395203,
-2.42004,0.457764,
-2.42767,0.448608,
-2.4292,0.361633,
-2.4231,0.360107,
-2.42004,0.401306,
-2.40936,0.45929,
-2.39868,0.447083,
-2.3819,0.366211,
-2.36359,0.357056,
-2.35138,0.402832,
-2.32697,0.457764,
-2.30865,0.447083,
-2.28271,0.369263,
-2.2583,0.35553,
-2.23846,0.402832,
-2.21252,0.457764,
-2.18658,0.447083,
-2.16522,0.367737,
-2.14386,0.350952,
-2.1225,0.401306,
-2.09961,0.457764,
-2.07977,0.45166,
-2.06146,0.369263,
-2.04926,0.352478,
-2.03552,0.402832,
-2.01721,0.457764,
-1.9989,0.450134,
-1.98364,0.372314,
-1.97296,0.350952,
-1.96228,0.402832,
-1.95465,0.456238,
-1.94702,0.447083,
-1.94397,0.370789,
-1.94244,0.352478,
-1.93939,0.401306,
-1.93939,0.436401,
-1.93939,0.405884,
-1.94244,0.367737,
-1.94092,0.35553,
-1.94397,0.401306,
-1.9455,0.453186,
-1.95313,0.45929,
-1.96686,0.370789,
-1.97449,0.328064,
-1.98822,0.372314,
-2.00348,0.450134,
-2.01111,0.453186,
-2.02332,0.361633,
-2.03247,0.350952,
-2.04468,0.401306,
-2.05994,0.45166,
-2.07672,0.447083,
-2.09045,0.378418,
-2.10571,0.346375,
-2.11945,0.408936,
-2.14081,0.454712,
-2.15454,0.445557,
-2.17438,0.424194,
-2.19116,0.334167,
-2.20947,0.40741,
-2.22168,0.444031,
-2.23846,0.444031,
-2.25067,0.376892,
-2.26746,0.326538,
-2.28424,0.434875,
-2.29645,0.431824,
-2.30865,0.447083,
-2.32391,0.379944,
-2.33917,0.349426,
-2.35291,0.404358,
-2.36969,0.448608,
-2.3819,0.474548,
-2.39716,0.382996,
-2.41394,0.344849,
-2.43073,0.404358,
-2.44446,0.448608,
-2.45972,0.447083,
-2.46887,0.379944,
-2.47955,0.346375,
-2.49176,0.402832,
-2.50244,0.447083,
-2.50702,0.444031,
-2.51923,0.384521,
-2.52686,0.343323,
-2.53448,0.401306,
-2.54059,0.448608,
-2.54669,0.444031,
-2.5528,0.382996,
-2.5589,0.343323,
-2.565,0.402832,
-2.57111,0.447083,
-2.57416,0.444031,
-2.57568,0.386047,
-2.58026,0.346375,
-2.58636,0.401306,
-2.59552,0.45166,
-2.59857,0.440979,
-2.60162,0.387573,
-2.60315,0.344849,
-2.60315,0.396729,
-2.60773,0.440979,
-2.60468,0.405884,
-2.60925,0.38147,
-2.6123,0.349426,
-2.61078,0.39978,
-2.61688,0.442505,
-2.61536,0.45166,
-2.61536,0.372314,
-2.61536,0.343323,
-2.61688,0.401306,
-2.61688,0.437927,
-2.61688,0.440979,
-2.61993,0.386047,
-2.62146,0.337219,
-2.62299,0.395203,
-2.62604,0.440979,
-2.62604,0.440979,
-2.63519,0.389099,
-2.63672,0.343323,
-2.63824,0.404358,
-2.6413,0.442505,
-2.63977,0.434875,
-2.64282,0.401306,
-2.64435,0.349426,
-2.65045,0.402832,
-2.6535,0.437927,
-2.65503,0.43335,
-2.65961,0.392151,
-2.66418,0.344849,
-2.66876,0.390625,
-2.67334,0.436401,
-2.67334,0.434875,
-2.68097,0.390625,
-2.69012,0.341797,
-2.70081,0.401306,
-2.70386,0.434875,
-2.70996,0.43335,
-2.72217,0.401306,
-2.73438,0.341797,
-2.74658,0.39978,
-2.76031,0.434875,
-2.77252,0.434875,
-2.78168,0.389099,
-2.79694,0.341797,
-2.81372,0.404358,
-2.82593,0.431824,
-2.83508,0.427246,
-2.84729,0.392151,
-2.86102,0.341797,
-2.87018,0.401306,
-2.88239,0.437927,
-2.89001,0.431824,
-2.89154,0.393677,
-2.88696,0.341797,
-2.87781,0.402832,
-2.84729,0.436401,
-2.80457,0.428772,
-2.75574,0.392151,
-2.69165,0.344849,
-2.61841,0.404358,
-2.53448,0.43335,
-2.44598,0.427246,
-2.35596,0.392151,
-2.25983,0.3479,
-2.1637,0.40741,
-2.06757,0.43335,
-1.97296,0.424194,
-1.87988,0.395203,
-1.79596,0.3479,
-1.70593,0.39978,
-1.62354,0.431824,
-1.54877,0.427246,
-1.46942,0.393677,
-1.40381,0.366211,
-1.3382,0.402832,
-1.28021,0.43335,
-1.22375,0.421143,
-1.17645,0.396729,
-1.13068,0.3479,
-1.091,0.402832,
-1.05591,0.411987,
-1.02539,0.421143,
-1.00555,0.392151,
-0.985718,0.354004,
-0.971985,0.404358,
-0.964355,0.431824,
-0.956726,0.424194,
-0.953674,0.405884,
-0.953674,0.350952,
-0.959778,0.39978,
-0.967407,0.42572,
-0.973511,0.419617,
-0.984192,0.393677,
-0.999451,0.350952,
-1.01013,0.386047,
-1.02386,0.422668,
-1.04218,0.419617,
-1.05743,0.401306,
-1.08185,0.349426,
-1.10626,0.401306,
-1.12762,0.42572,
-1.15662,0.416565,
-1.18561,0.395203,
-1.21155,0.352478,
-1.24054,0.396729,
-1.26953,0.424194,
-1.29852,0.416565,
-1.32904,0.395203,
-1.36108,0.352478,
-1.3916,0.392151,
-1.42365,0.422668,
-1.45569,0.413513,
-1.48315,0.387573,
-1.5152,0.308228,
-1.53961,0.392151,
-1.57318,0.424194,
-1.60065,0.416565,
-1.62659,0.39978,
-1.64642,0.349426,
-1.66168,0.389099,
-1.67847,0.422668,
-1.6861,0.413513,
-1.69678,0.393677,
-1.69678,0.3479,
-1.69983,0.390625,
-1.69678,0.427246,
-1.6861,0.43335,
-1.66931,0.401306,
-1.66016,0.3479,
-1.64185,0.389099,
-1.61896,0.431824,
-1.60065,0.415039,
-1.57928,0.404358,
-1.55182,0.350952,
-1.53046,0.390625,
-1.50452,0.424194,
-1.48468,0.418091,
-1.45569,0.392151,
-1.42822,0.349426,
-1.40076,0.396729,
-1.37329,0.424194,
-1.34735,0.419617,
-1.32294,0.393677,
-1.297,0.3479,
-1.27563,0.389099,
-1.25275,0.424194,
-1.23138,0.415039,
-1.2207,0.393677,
-1.21002,0.349426,
-1.19934,0.390625,
-1.19019,0.427246,
-1.18408,0.418091,
-1.17493,0.396729,
-1.17035,0.340271,
-1.16425,0.389099,
-1.16577,0.419617,
-1.16119,0.418091,
-1.15814,0.402832,
-1.15814,0.3479,
-1.15814,0.387573,
-1.16425,0.422668,
-1.16119,0.418091,
-1.16577,0.392151,
-1.17035,0.361633,
-1.17493,0.393677,
-1.18256,0.421143,
-1.18866,0.415039,
-1.20239,0.39978,
-1.22223,0.350952,
-1.23138,0.38147,
-1.24664,0.437927,
-1.26343,0.419617,
-1.28326,0.395203,
-1.30005,0.352478,
-1.31683,0.386047,
-1.3382,0.422668,
-1.35651,0.419617,
-1.37939,0.392151,
-1.39771,0.349426,
-1.41907,0.384521,
-1.4389,0.422668,
-1.46484,0.424194,
-1.48926,0.392151,
-1.50757,0.350952,
-1.52893,0.379944,
-1.54877,0.421143,
-1.5686,0.424194,
-1.59302,0.387573,
-1.61133,0.350952,
-1.63422,0.376892,
-1.65405,0.427246,
-1.67389,0.428772,
-1.69525,0.389099,
-1.71051,0.349426,
-1.7334,0.376892,
-1.74255,0.424194,
-1.75629,0.42572,
-1.76697,0.390625,
-1.7807,0.360107,
-1.79138,0.37384,
-1.80206,0.422668,
-1.81274,0.424194,
-1.82953,0.389099,
-1.84326,0.349426,
-1.85394,0.370789,
-1.87683,0.424194,
-1.88599,0.431824,
-1.90582,0.390625,
-1.91803,0.35553,
-1.93329,0.363159,
-1.94092,0.428772,
-1.95007,0.431824,
-1.9577,0.390625,
-1.96686,0.349426,
-1.97601,0.367737,
-1.98975,0.419617,
-2.00348,0.431824,
-2.01111,0.393677,
-2.01721,0.358582,
-2.02179,0.367737,
-2.02789,0.396729,
-2.03857,0.431824,
-2.04315,0.392151,
-2.05078,0.358582,
-2.05994,0.363159,
-2.06451,0.422668,
-2.07367,0.419617,
-2.07825,0.35553,
-2.08588,0.352478,
-2.09351,0.376892,
-2.10266,0.416565,
-2.10571,0.424194,
-2.11182,0.389099,
-2.11792,0.3479,
-2.12402,0.354004,
-2.13013,0.424194,
-2.1347,0.440979,
-2.14233,0.392151,
-2.14386,0.350952,
-2.14539,0.361633,
-2.15302,0.43335,
-2.15149,0.437927,
-2.15607,0.393677,
-2.16064,0.354004,
-2.1698,0.363159,
-2.17896,0.422668,
-2.17896,0.436401,
-2.18658,0.393677,
-2.19574,0.354004,
-2.20337,0.367737,
-2.20947,0.42572,
-2.2171,0.436401,
-2.22778,0.389099,
-2.24152,0.352478,
-2.25067,0.358582,
-2.25983,0.427246,
-2.27356,0.439453,
-2.28119,0.390625,
-2.29034,0.352478,
-2.3056,0.357056,
-2.31781,0.431824,
-2.33307,0.440979,
-2.34833,0.389099,
-2.36053,0.346375,
-2.37732,0.305176,
-2.39258,0.442505,
-2.40173,0.434875,
-2.41852,0.387573,
-2.43683,0.35553,
-2.45361,0.361633,
-2.46582,0.431824,
-2.48413,0.424194,
-2.49939,0.39978,
-2.51312,0.357056,
-2.52991,0.361633,
-2.53754,0.434875,
-2.54059,0.439453,
-2.54364,0.389099,
-2.53448,0.357056,
-2.51617,0.360107,
-2.48413,0.428772,
-2.43988,0.440979,
-2.38037,0.392151,
-2.31323,0.354004,
-2.23694,0.358582,
-2.14996,0.431824,
-2.05841,0.442505,
-1.9577,0.387573,
-1.86615,0.35553,
-1.76697,0.352478,
-1.66779,0.402832,
-1.57013,0.437927,
-1.47247,0.389099,
-1.38092,0.354004,
-1.29089,0.360107,
-1.2085,0.427246,
-1.12152,0.445557,
-1.0437,0.396729,
-0.971985,0.369263,
-0.906372,0.357056,
-0.836182,0.428772,
-0.779724,0.445557,
-0.727844,0.387573,
-0.679016,0.352478,
-0.637817,0.358582,
-0.59967,0.431824,
-0.561523,0.445557,
-0.531006,0.392151,
-0.505066,0.352478,
-0.486755,0.358582,
-0.468445,0.437927,
-0.454712,0.444031,
-0.448608,0.392151,
-0.442505,0.358582,
-0.453186,0.357056,
-0.454712,0.427246,
-0.466919,0.442505,
-0.476074,0.395203,
-0.494385,0.352478,
-0.508118,0.358582,
-0.531006,0.427246,
-0.546265,0.442505,
-0.564575,0.392151,
-0.585938,0.35553,
-0.602722,0.357056,
-0.628662,0.43335,
-0.646973,0.456238,
-0.668335,0.392151,
-0.691223,0.357056,
-0.717163,0.360107,
-0.743103,0.43335,
-0.767517,0.445557,
-0.799561,0.39978,
-0.83313,0.35553,
-0.865173,0.357056,
-0.898743,0.43335,
-0.932312,0.445557,
-0.965881,0.39978,
-1.00098,0.35553,
-1.03607,0.357056,
-1.06964,0.416565,
-1.10168,0.447083,
-1.1322,0.395203,
-1.15662,0.357056,
-1.18103,0.360107,
-1.19629,0.427246,
-1.21155,0.453186,
-1.22681,0.395203,
-1.23291,0.358582,
-1.24054,0.360107,
-1.23749,0.431824,
-1.23596,0.448608,
-1.22375,0.402832,
-1.21765,0.338745,
-1.20697,0.375366,
-1.18561,0.428772,
-1.16272,0.448608,
-1.13983,0.395203,
-1.11694,0.35553,
-1.08643,0.37384,
-1.05896,0.434875,
-1.02844,0.442505,
-0.996399,0.39978,
-0.965881,0.354004,
-0.935364,0.367737,
-0.914001,0.434875,
-0.888062,0.448608,
-0.865173,0.402832,
-0.843811,0.341797,
-0.828552,0.361633,
-0.805664,0.43335,
-0.787354,0.454712,
-0.772095,0.404358,
-0.759888,0.357056,
-0.744629,0.363159,
-0.735474,0.427246,
-0.72937,0.453186,
-0.724792,0.404358,
-0.718689,0.352478,
-0.712585,0.363159,
-0.709534,0.427246,
-0.709534,0.45166,
-0.71106,0.39978,
-0.712585,0.354004,
-0.717163,0.360107,
-0.718689,0.43335,
-0.720215,0.45166,
-0.721741,0.402832,
-0.730896,0.350952,
-0.740051,0.354004,
-0.750732,0.419617,
-0.761414,0.45166,
-0.773621,0.402832,
-0.788879,0.346375,
-0.805664,0.361633,
-0.813293,0.439453,
-0.827026,0.454712,
-0.845337,0.404358,
-0.863647,0.338745,
-0.881958,0.361633,
-0.898743,0.434875,
-0.921631,0.454712,
-0.942993,0.396729,
-0.970459,0.354004,
-0.994873,0.396729,
-1.01776,0.43335,
-1.04218,0.437927,
-1.06964,0.39978,
-1.08948,0.354004,
-1.11084,0.366211,
-1.13983,0.436401,
-1.16119,0.454712,
-1.19171,0.402832,
-1.21765,0.352478,
-1.24207,0.361633,
-1.26648,0.431824,
-1.29089,0.448608,
-1.31226,0.401306,
-1.33514,0.350952,
-1.35803,0.360107,
-1.37787,0.43335,
-1.39923,0.450134,
-1.42212,0.404358,
-1.44348,0.349426,
-1.46637,0.360107,
-1.48163,0.434875,
-1.49841,0.43335,
-1.5152,0.389099,
-1.53809,0.350952,
-1.55334,0.352478,
-1.56708,0.431824,
-1.58691,0.457764,
-1.6037,0.402832,
-1.62354,0.357056,
-1.64185,0.363159,
-1.65558,0.431824,
-1.67389,0.450134,
-1.68915,0.401306,
-1.70746,0.350952,
-1.72119,0.358582,
-1.72882,0.428772,
-1.73645,0.453186,
-1.74255,0.39978,
-1.75629,0.350952,
-1.76239,0.366211,
-1.77307,0.428772,
-1.78223,0.450134,
-1.79443,0.401306,
-1.80359,0.349426,
-1.80969,0.358582,
-1.81732,0.445557,
-1.828,0.456238,
-1.83716,0.39978,
-1.84326,0.354004,
-1.85394,0.363159,
-1.8631,0.436401,
-1.86615,0.45166,
-1.87073,0.418091,
-1.87836,0.35553,
-1.87988,0.361633,
-1.88446,0.428772,
-1.88751,0.457764,
-1.89362,0.396729,
-1.89819,0.35553,
-1.90887,0.382996,
-1.91498,0.422668,
-1.92871,0.453186,
-1.93481,0.39978,
-1.9455,0.350952,
-1.95313,0.366211,
-1.96533,0.390625,
-1.97449,0.450134,
-1.98517,0.39978,
-1.99738,0.352478,
-2.00958,0.367737,
-2.02179,0.440979,
-2.03857,0.442505,
-2.04926,0.401306,
-2.06146,0.354004,
-2.07367,0.372314,
-2.08588,0.427246,
-2.09961,0.453186,
-2.11487,0.396729,
-2.12708,0.358582,
-2.14539,0.366211,
-2.15759,0.436401,
-2.17133,0.469971,
-2.18811,0.401306,
-2.2049,0.357056,
-2.22473,0.37384,
-2.24457,0.428772,
-2.2583,0.453186,
-2.27661,0.395203,
-2.2934,0.354004,
-2.31323,0.375366,
-2.32697,0.428772,
-2.3407,0.45166,
-2.35138,0.396729,
-2.34833,0.354004,
-2.33612,0.375366,
-2.30713,0.431824,
-2.26746,0.453186,
-2.20642,0.396729,
-2.13776,0.354004,
-2.05841,0.378418,
-1.96991,0.422668,
-1.87683,0.454712,
-1.77612,0.395203,
-1.68152,0.354004,
-1.58081,0.344849,
-1.4801,0.424194,
-1.37939,0.457764,
-1.28021,0.393677,
-1.18256,0.350952,
-1.0849,0.389099,
-0.991821,0.422668,
-0.904846,0.511169,
-0.817871,0.386047,
-0.744629,0.357056,
-0.666809,0.378418,
-0.595093,0.439453,
-0.52948,0.453186,
-0.466919,0.393677,
-0.408936,0.357056,
-0.352478,0.379944,
-0.302124,0.42572,
-0.259399,0.457764,
-0.221252,0.404358,
-0.189209,0.354004,
-0.160217,0.375366,
-0.135803,0.424194,
-0.109863,0.45166,
-0.0930786,0.395203,
-0.0854492,0.349426,
-0.0778198,0.378418,
-0.0732422,0.428772,
-0.0732422,0.448608,
-0.0732422,0.396729,
-0.0869751,0.3479,
-0.0961304,0.37384,
-0.109863,0.424194,
-0.12207,0.444031,
-0.140381,0.393677,
-0.160217,0.350952,
-0.18158,0.37384,
-0.205994,0.42572,
-0.233459,0.444031,
-0.262451,0.392151,
-0.291443,0.349426,
-0.323486,0.37384,
-0.358582,0.42572,
-0.393677,0.447083,
-0.434875,0.392151,
-0.476074,0.349426,
-0.518799,0.376892,
-0.556946,0.422668,
-0.601196,0.439453,
-0.645447,0.390625,
-0.686646,0.344849,
-0.737,0.379944,
-0.779724,0.424194,
-0.820923,0.440979,
-0.863647,0.384521,
-0.900269,0.349426,
-0.935364,0.378418,
-0.964355,0.42572,
-0.985718,0.444031,
-1.00861,0.393677,
-1.02844,0.3479,
-1.04065,0.382996,
-1.0498,0.424194,
-1.0498,0.444031,
-1.05133,0.392151,
-1.04523,0.346375,
-1.03912,0.379944,
-1.02692,0.424194,
-1.01166,0.440979,
-0.991821,0.393677,
-0.970459,0.343323,
-0.946045,0.384521,
-0.927734,0.395203,
-0.901794,0.439453,
-0.87738,0.392151,
-0.852966,0.346375,
-0.83313,0.402832,
-0.80719,0.428772,
-0.784302,0.440979,
-0.761414,0.393677,
-0.740051,0.338745,
-0.717163,0.384521,
-0.698853,0.431824,
-0.680542,0.439453,
-0.669861,0.390625,
-0.65155,0.343323,
-0.642395,0.421143,
-0.628662,0.43335,
-0.617981,0.436401,
-0.605774,0.393677,
-0.598145,0.340271,
-0.598145,0.38147,
-0.592041,0.427246,
-0.595093,0.436401,
-0.593567,0.393677,
-0.595093,0.338745,
-0.598145,0.361633,
-0.598145,0.43335,
-0.601196,0.434875,
-0.608826,0.393677,
-0.613403,0.340271,
-0.622559,0.38147,
-0.639343,0.422668,
-0.643921,0.422668,
-0.657654,0.404358,
-0.671387,0.323486,
-0.68512,0.379944,
-0.698853,0.42572,
-0.717163,0.437927,
-0.733948,0.389099,
-0.753784,0.323486,
-0.78125,0.38147,
-0.80719,0.439453,
-0.828552,0.440979,
-0.85144,0.392151,
-0.871277,0.340271,
-0.897217,0.376892,
-0.920105,0.473022,
-0.941467,0.473022,
-0.965881,0.387573,
-0.991821,0.341797,
-1.02081,0.376892,
-1.0498,0.431824,
-1.07727,0.437927,
-1.10474,0.390625,
-1.12762,0.337219,
-1.15204,0.369263,
-1.17645,0.428772,
-1.19934,0.43335,
-1.22681,0.354004,
-1.2558,0.337219,
-1.28632,0.372314,
-1.31531,0.431824,
-1.34583,0.43335,
-1.37329,0.392151,
-1.40228,0.332642,
-1.42517,0.375366,
-1.45111,0.428772,
-1.4801,0.440979,
-1.50146,0.393677,
-1.5213,0.335693,
-1.54877,0.37384,
-1.5686,0.43335,
-1.58691,0.43335,
-1.60828,0.389099,
-1.62506,0.337219,
-1.64185,0.369263,
-1.65405,0.416565,
-1.66168,0.431824,
-1.67999,0.393677,
-1.68762,0.338745,
-1.70288,0.372314,
-1.71356,0.427246,
-1.72577,0.43335,
-1.73798,0.393677,
-1.75476,0.323486,
-1.76849,0.372314,
-1.77917,0.42572,
-1.78223,0.43335,
-1.79138,0.393677,
-1.80054,0.338745,
-1.80664,0.369263,
-1.8158,0.428772,
-1.82037,0.431824,
-1.82648,0.392151,
-1.83258,0.338745,
-1.84326,0.372314,
-1.84937,0.428772,
-1.8631,0.428772,
-1.86462,0.393677,
-1.87531,0.334167,
-1.87836,0.369263,
-1.88446,0.428772,
-1.88904,0.43335,
-1.90125,0.392151,
-1.91193,0.335693,
-1.92719,0.366211,
-1.93939,0.445557,
-1.94855,0.466919,
-1.95923,0.386047,
-1.97449,0.332642,
-1.98669,0.363159,
-2.005,0.431824,
-2.01874,0.43335,
-2.03247,0.395203,
-2.05078,0.332642,
-2.07062,0.360107,
-2.08282,0.445557,
-2.09351,0.396729,
-2.11029,0.38147,
-2.11945,0.341797,
-2.1347,0.366211,
-2.14386,0.427246,
-2.15454,0.42572,
-2.1637,0.392151,
-2.1759,0.332642,
-2.18201,0.360107,
-2.18353,0.43335,
-2.17743,0.43335,
-2.15302,0.386047,
-2.1225,0.354004,
-2.08588,0.361633,
-2.02484,0.42572,
-1.9577,0.431824,
-1.88599,0.390625,
-1.79901,0.332642,
-1.70593,0.358582,
-1.60217,0.43335,
-1.49841,0.437927,
-1.39465,0.389099,
-1.28479,0.334167,
-1.17645,0.35553,
-1.06354,0.431824,
-0.9552,0.428772,
-0.842285,0.389099,
-0.732422,0.315857,
-0.630188,0.358582,
-0.534058,0.434875,
-0.434875,0.431824,
-0.341797,0.390625,
-0.254822,0.334167,
-0.169373,0.357056,
-0.088501,0.431824,
-0.00915527,0.431824,
0.0610352,0.390625,
0.125122,0.334167,
0.18158,0.357056,
0.238037,0.43335,
0.286865,0.436401,
0.32959,0.384521,
0.364685,0.328064,
0.392151,0.357056,
0.421143,0.428772,
0.444031,0.431824,
0.457764,0.386047,
0.462341,0.32959,
0.462341,0.352478,
0.463867,0.431824,
0.465393,0.428772,
0.457764,0.384521,
0.453186,0.332642,
0.439453,0.357056,
0.421143,0.431824,
0.404358,0.436401,
0.382996,0.386047,
0.363159,0.32959,
0.338745,0.357056,
0.309753,0.444031,
0.282288,0.389099,
0.250244,0.390625,
0.215149,0.334167,
0.180054,0.35553,
0.140381,0.427246,
0.0976563,0.447083,
0.0579834,0.411987,
0.0198364,0.370789,
-0.0289917,0.350952,
-0.0762939,0.431824,
-0.115967,0.437927,
-0.158691,0.392151,
-0.204468,0.334167,
-0.248718,0.3479,
-0.291443,0.431824,
-0.335693,0.439453,
-0.375366,0.392151,
-0.405884,0.332642,
-0.436401,0.350952,
-0.460815,0.427246,
-0.479126,0.440979,
-0.494385,0.387573,
-0.50354,0.32959,
-0.511169,0.350952,
-0.514221,0.42572,
-0.512695,0.439453,
-0.506592,0.387573,
-0.497437,0.326538,
-0.486755,0.3479,
-0.474548,0.422668,
-0.460815,0.436401,
-0.444031,0.387573,
-0.427246,0.32959,
-0.40741,0.3479,
-0.387573,0.428772,
-0.363159,0.411987,
-0.338745,0.366211,
-0.318909,0.332642,
-0.302124,0.349426,
-0.283813,0.424194,
-0.259399,0.43335,
-0.238037,0.386047,
-0.227356,0.300598,
-0.215149,0.337219,
-0.196838,0.427246,
-0.189209,0.437927,
-0.177002,0.390625,
-0.167847,0.328064,
-0.158691,0.3479,
-0.149536,0.424194,
-0.141907,0.436401,
-0.134277,0.386047,
-0.132751,0.32959,
-0.128174,0.3479,
-0.125122,0.436401,
-0.123596,0.436401,
-0.1297,0.387573,
-0.132751,0.334167,
-0.140381,0.344849,
-0.14801,0.419617,
-0.154114,0.436401,
-0.166321,0.387573,
-0.180054,0.334167,
-0.187683,0.346375,
-0.202942,0.418091,
-0.222778,0.437927,
-0.236511,0.386047,
-0.259399,0.326538,
-0.280762,0.346375,
-0.302124,0.416565,
-0.328064,0.436401,
-0.352478,0.38147,
-0.376892,0.332642,
-0.39978,0.343323,
-0.427246,0.416565,
-0.450134,0.439453,
-0.471497,0.386047,
-0.498962,0.332642,
-0.524902,0.343323,
-0.552368,0.416565,
-0.578308,0.436401,
-0.602722,0.384521,
-0.634766,0.326538,
-0.662231,0.3479,
-0.689697,0.421143,
-0.715637,0.440979,
-0.746155,0.389099,
-0.776672,0.335693,
-0.805664,0.3479,
-0.831604,0.411987,
-0.857544,0.447083,
-0.883484,0.387573,
-0.909424,0.332642,
-0.932312,0.346375,
-0.9552,0.415039,
-0.978088,0.440979,
-1.0025,0.386047,
-1.02539,0.337219,
-1.0498,0.3479,
-1.0788,0.408936,
-1.10474,0.442505,
-1.12762,0.387573,
-1.15204,0.337219,
-1.17188,0.3479,
-1.19171,0.408936,
-1.21002,0.440979,
-1.22833,0.386047,
-1.24664,0.335693,
-1.26953,0.344849,
-1.28784,0.410461,
-1.29852,0.444031,
-1.31683,0.389099,
-1.32751,0.349426,
-1.34277,0.3479,
-1.34888,0.408936,
-1.36261,0.444031,
-1.37482,0.387573,
-1.38702,0.335693,
-1.40076,0.337219,
-1.41144,0.404358,
-1.42059,0.445557,
-1.4328,0.384521,
-1.44196,0.340271,
-1.45416,0.350952,
-1.46637,0.402832,
-1.47552,0.445557,
-1.48926,0.389099,
-1.49841,0.341797,
-1.51215,0.349426,
-1.51978,0.402832,
-1.5274,0.447083,
-1.53503,0.386047,
-1.55334,0.341797,
-1.56403,0.349426,
-1.57318,0.402832,
-1.58997,0.447083,
-1.60065,0.387573,
-1.61743,0.344849,
-1.63422,0.352478,
-1.64642,0.416565,
-1.66168,0.45166,
-1.67847,0.445557,
-1.69983,0.346375,
-1.71661,0.35553,
-1.73645,0.401306,
-1.75018,0.445557,
-1.77612,0.387573,
-1.79291,0.341797,
-1.81427,0.354004,
-1.83411,0.401306,
-1.84937,0.424194,
-1.8631,0.390625,
-1.88141,0.350952,
-1.89667,0.357056,
-1.91498,0.401306,
-1.93024,0.440979,
-1.94397,0.389099,
-1.95923,0.341797,
-1.97296,0.35553,
-1.98364,0.401306,
-1.98364,0.450134,
-1.97601,0.389099,
-1.96228,0.341797,
-1.93481,0.35553,
-1.89056,0.395203,
-1.83868,0.444031,
-1.76849,0.387573,
-1.68762,0.349426,
-1.59302,0.354004,
-1.49384,0.392151,
-1.38855,0.445557,
-1.27563,0.396729,
-1.16272,0.367737,
-1.04675,0.352478,
-0.926208,0.395203,
-0.813293,0.447083,
-0.698853,0.390625,
-0.578308,0.358582,
-0.462341,0.360107,
-0.349426,0.39978,
-0.236511,0.444031,
-0.126648,0.37384,
-0.0274658,0.350952,
0.0701904,0.360107,
0.163269,0.39978,
0.247192,0.442505,
0.328064,0.392151,
0.395203,0.352478,
0.463867,0.357056,
0.523376,0.401306,
0.575256,0.440979,
0.622559,0.390625,
0.657654,0.35553,
0.694275,0.361633,
0.720215,0.395203,
0.744629,0.445557,
0.756836,0.389099,
0.772095,0.352478,
0.773621,0.363159,
0.776672,0.401306,
0.772095,0.448608,
0.762939,0.390625,
0.752258,0.35553,
0.738525,0.363159,
0.715637,0.396729,
0.698853,0.439453,
0.671387,0.387573,
0.640869,0.366211,
0.611877,0.366211,
0.576782,0.393677,
0.546265,0.465393,
0.512695,0.389099,
0.474548,0.352478,
0.439453,0.369263,
0.39978,0.393677,
0.360107,0.442505,
0.318909,0.389099,
0.27771,0.357056,
0.230408,0.369263,
0.186157,0.395203,
0.135803,0.439453,
0.0854492,0.389099,
0.0366211,0.357056,
-0.012207,0.372314,
-0.0595093,0.392151,
-0.105286,0.439453,
-0.14801,0.392151,
-0.190735,0.363159,
-0.227356,0.372314,
-0.265503,0.395203,
-0.296021,0.440979,
-0.32196,0.393677,
-0.343323,0.363159,
-0.354004,0.37384,
-0.366211,0.393677,
-0.370789,0.440979,
-0.375366,0.393677,
-0.367737,0.361633,
-0.364685,0.375366,
-0.352478,0.393677,
-0.338745,0.439453,
-0.318909,0.393677,
-0.302124,0.358582,
-0.280762,0.37384,
-0.259399,0.392151,
-0.238037,0.439453,
-0.216675,0.395203,
-0.195313,0.361633,
-0.177002,0.37384,
-0.15564,0.393677,
-0.135803,0.434875,
-0.117493,0.392151,
-0.105286,0.360107,
-0.0900269,0.370789,
-0.0747681,0.390625,
-0.0564575,0.439453,
-0.0427246,0.389099,
-0.0228882,0.360107,
-0.012207,0.376892,
0,0.382996,
0.00762939,0.413513,
0.0137329,0.39978,
0.0152588,0.360107,
0.0167847,0.376892,
0.0198364,0.387573,
0.0213623,0.442505,
0.0213623,0.393677,
0.0152588,0.358582,
0.00762939,0.375366,
0.00305176,0.390625,
-0.00457764,0.440979,
-0.0137329,0.402832,
-0.0244141,0.361633,
-0.0411987,0.372314,
-0.0610352,0.392151,
-0.0839233,0.442505,
-0.106812,0.395203,
-0.128174,0.357056,
-0.154114,0.367737,
-0.18158,0.392151,
-0.213623,0.440979,
-0.245667,0.396729,
-0.271606,0.360107,
-0.305176,0.375366,
-0.335693,0.389099,
-0.367737,0.439453,
-0.39978,0.395203,
-0.42572,0.361633,
-0.462341,0.372314,
-0.494385,0.389099,
-0.531006,0.444031,
-0.561523,0.395203,
-0.588989,0.35553,
-0.622559,0.37384,
-0.65155,0.395203,
-0.680542,0.434875,
-0.715637,0.393677,
-0.749207,0.358582,
-0.782776,0.379944,
-0.817871,0.392151,
-0.849915,0.437927,
-0.878906,0.39978,
-0.909424,0.360107,
-0.939941,0.37384,
-0.971985,0.395203,
-1.0025,0.436401,
-1.03607,0.401306,
-1.05896,0.366211,
-1.08643,0.370789,
-1.11389,0.395203,
-1.13678,0.437927,
-1.15814,0.401306,
-1.18103,0.360107,
-1.20239,0.375366,
-1.22528,0.39978,
-1.24817,0.437927,
-1.26648,0.402832,
-1.28479,0.360107,
-1.30157,0.369263,
-1.31989,0.392151,
-1.33667,0.436401,
-1.35498,0.40741,
-1.37482,0.358582,
-1.39008,0.367737,
-1.40381,0.38147,
-1.42059,0.43335,
-1.43433,0.39978,
-1.44806,0.367737,
-1.46027,0.361633,
-1.47247,0.392151,
-1.4801,0.436401,
-1.49078,0.411987,
-1.50452,0.361633,
-1.51825,0.361633,
-1.52283,0.396729,
-1.52893,0.437927,
-1.53656,0.424194,
-1.54572,0.369263,
-1.5564,0.337219,
-1.57166,0.395203,
-1.58081,0.436401,
-1.59149,0.416565,
-1.60217,0.352478,
-1.61133,0.357056,
-1.62659,0.393677,
-1.63879,0.431824,
-1.65558,0.419617,
-1.66626,0.357056,
-1.68152,0.369263,
-1.69983,0.390625,
-1.71509,0.437927,
-1.73035,0.418091,
-1.74866,0.361633,
-1.77002,0.361633,
-1.79443,0.379944,
-1.81427,0.436401,
-1.83716,0.418091,
-1.8631,0.360107,
-1.88751,0.361633,
-1.9104,0.395203,
-1.92719,0.434875,
-1.94855,0.418091,
-1.96838,0.358582,
-1.99738,0.35553,
-2.02179,0.393677,
-2.04468,0.43335,
-2.06909,0.422668,
-2.09351,0.360107,
-2.11029,0.35553,
-2.1286,0.39978,
-2.14691,0.434875,
-2.16217,0.404358,
-2.17743,0.354004,
-2.18811,0.354004,
-2.19269,0.393677,
-2.19269,0.43335,
-2.17438,0.421143,
-2.14996,0.358582,
-2.10876,0.35553,
-2.05231,0.395203,
-1.98212,0.431824,
-1.90125,0.422668,
-1.80969,0.35553,
-1.71051,0.354004,
-1.60217,0.404358,
-1.49078,0.436401,
-1.37329,0.424194,
-1.2558,0.35553,
-1.13068,0.352478,
-1.00708,0.389099,
-0.880432,0.434875,
-0.753784,0.42572,
-0.628662,0.354004,
-0.509644,0.349426,
-0.392151,0.395203,
-0.280762,0.428772,
-0.17395,0.422668,
-0.0686646,0.372314,
0.0259399,0.354004,
0.12207,0.396729,
0.209045,0.434875,
0.289917,0.428772,
0.363159,0.352478,
0.430298,0.349426,
0.495911,0.408936,
0.558472,0.431824,
0.608826,0.43335,
0.654602,0.334167,
0.692749,0.352478,
0.718689,0.393677,
0.744629,0.43335,
0.762939,0.42572,
0.769043,0.358582,
0.770569,0.354004,
0.772095,0.39978,
0.770569,0.428772,
0.758362,0.43335,
0.749207,0.354004,
0.733948,0.357056,
0.709534,0.411987,
0.688171,0.427246,
0.662231,0.422668,
0.631714,0.350952,
0.598145,0.349426,
0.564575,0.395203,
0.526428,0.428772,
0.488281,0.428772,
0.447083,0.352478,
0.39978,0.349426,
0.3479,0.396729,
0.297546,0.427246,
0.248718,0.434875,
0.193787,0.352478,
0.140381,0.350952,
0.0839233,0.392151,
0.0274658,0.413513,
-0.038147,0.43335,
-0.0930786,0.350952,
-0.158691,0.352478,
-0.213623,0.401306,
-0.270081,0.413513,
-0.32196,0.431824,
-0.367737,0.354004,
-0.405884,0.337219,
-0.437927,0.352478,
-0.465393,0.411987,
-0.491333,0.436401,
-0.505066,0.363159,
-0.520325,0.35553,
-0.521851,0.392151,
-0.520325,0.43335,
-0.514221,0.468445,
-0.508118,0.311279,
-0.495911,0.343323,
-0.483704,0.393677,
-0.463867,0.42572,
-0.442505,0.431824,
-0.424194,0.354004,
-0.404358,0.343323,
-0.384521,0.392151,
-0.361633,0.428772,
-0.337219,0.428772,
-0.314331,0.352478,
-0.294495,0.340271,
-0.271606,0.387573,
-0.248718,0.42572,
-0.22583,0.42572,
-0.210571,0.352478,
-0.198364,0.344849,
-0.183105,0.387573,
-0.167847,0.424194,
-0.15564,0.428772,
-0.14801,0.352478,
-0.140381,0.344849,
-0.137329,0.387573,
-0.132751,0.428772,
-0.1297,0.437927,
-0.1297,0.352478,
-0.1297,0.343323,
-0.134277,0.390625,
-0.137329,0.42572,
-0.143433,0.428772,
-0.154114,0.349426,
-0.169373,0.349426,
-0.178528,0.389099,
-0.192261,0.42572,
-0.213623,0.428772,
-0.233459,0.352478,
-0.256348,0.338745,
-0.279236,0.387573,
-0.299072,0.411987,
-0.325012,0.428772,
-0.354004,0.352478,
-0.384521,0.338745,
-0.416565,0.389099,
-0.445557,0.427246,
-0.485229,0.428772,
-0.518799,0.349426,
-0.552368,0.343323,
-0.588989,0.387573,
-0.630188,0.42572,
-0.666809,0.428772,
-0.704956,0.350952,
-0.740051,0.341797,
-0.782776,0.390625,
-0.820923,0.42572,
-0.857544,0.418091,
-0.898743,0.354004,
-0.939941,0.338745,
-0.978088,0.389099,
-1.01776,0.436401,
-1.06049,0.427246,
-1.10474,0.358582,
-1.13678,0.328064,
-1.17188,0.390625,
-1.20087,0.427246,
-1.23291,0.43335,
-1.2619,0.352478,
-1.29395,0.340271,
-1.32904,0.384521,
-1.35651,0.428772,
-1.3855,0.42572,
-1.41754,0.349426,
-1.44653,0.337219,
-1.47247,0.38147,
-1.49841,0.431824,
-1.51978,0.427246,
-1.54266,0.349426,
-1.56555,0.334167,
-1.58997,0.387573,
-1.61285,0.43335,
-1.63116,0.424194,
-1.65253,0.346375,
-1.66626,0.337219,
-1.68915,0.382996,
-1.70441,0.43335,
-1.72272,0.386047,
-1.7395,0.349426,
-1.75476,0.344849,
-1.77002,0.38147,
-1.7807,0.431824,
-1.79138,0.434875,
-1.81427,0.378418,
-1.828,0.361633,
-1.84021,0.384521,
-1.85547,0.43335,
-1.87073,0.427246,
-1.89362,0.3479,
-1.9104,0.338745,
-1.92413,0.382996,
-1.93481,0.431824,
-1.95007,0.424194,
-1.95923,0.3479,
-1.97449,0.337219,
-1.98822,0.384521,
-2.00653,0.428772,
-2.01569,0.424194,
-2.03094,0.3479,
-2.04468,0.32959,
-2.05841,0.38147,
-2.07214,0.428772,
-2.08588,0.419617,
-2.09961,0.349426,
-2.11334,0.338745,
-2.12555,0.382996,
-2.13928,0.427246,
-2.15302,0.428772,
-2.17438,0.349426,
-2.19574,0.332642,
-2.21405,0.384521,
-2.23083,0.424194,
-2.24915,0.422668,
-2.26746,0.344849,
-2.29034,0.323486,
-2.31323,0.390625,
-2.33612,0.42572,
-2.35443,0.421143,
-2.37427,0.349426,
-2.39868,0.332642,
-2.41547,0.346375,
-2.43225,0.436401,
-2.44751,0.431824,
-2.45514,0.366211,
-2.46735,0.332642,
-2.47192,0.382996,
-2.47192,0.428772,
-2.46429,0.416565,
-2.44598,0.35553,
-2.40936,0.32959,
-2.35901,0.38147,
-2.28729,0.424194,
-2.20642,0.424194,
-2.11182,0.350952,
-2.01111,0.32959,
-1.9043,0.38147,
-1.79138,0.427246,
-1.67389,0.419617,
-1.5564,0.350952,
-1.43127,0.328064,
-1.30157,0.382996,
-1.17798,0.419617,
-1.0498,0.419617,
-0.926208,0.349426,
-0.805664,0.328064,
-0.683594,0.378418,
-0.570679,0.421143,
-0.462341,0.410461,
-0.357056,0.349426,
-0.256348,0.32959,
-0.164795,0.378418,
-0.0732422,0.422668,
0.0152588,0.418091,
0.088501,0.376892,
0.160217,0.32959,
0.228882,0.38147,
0.288391,0.42572,
0.341797,0.405884,
0.387573,0.3479,
0.42572,0.332642,
0.456238,0.382996,
0.483704,0.422668,
0.505066,0.410461,
0.526428,0.352478,
0.535583,0.334167,
0.534058,0.384521,
0.534058,0.428772,
0.531006,0.411987,
0.517273,0.349426,
0.495911,0.335693,
0.482178,0.382996,
0.457764,0.419617,
0.424194,0.416565,
0.396729,0.354004,
0.360107,0.334167,
0.320435,0.387573,
0.279236,0.427246,
0.236511,0.410461,
0.187683,0.349426,
0.132751,0.338745,
0.0762939,0.387573,
0.0183105,0.428772,
-0.0366211,0.405884,
-0.088501,0.354004,
-0.149536,0.335693,
-0.201416,0.387573,
-0.263977,0.424194,
-0.320435,0.401306,
-0.38147,0.354004,
-0.436401,0.332642,
-0.494385,0.382996,
-0.547791,0.419617,
-0.595093,0.402832,
-0.646973,0.35553,
-0.689697,0.32959,
-0.726318,0.384521,
-0.75531,0.427246,
-0.772095,0.401306,
-0.788879,0.349426,
-0.799561,0.332642,
-0.804138,0.384521,
-0.796509,0.421143,
-0.787354,0.402832,
-0.778198,0.349426,
-0.759888,0.337219,
-0.732422,0.382996,
-0.71106,0.422668,
-0.68512,0.396729,
-0.657654,0.3479,
-0.627136,0.334167,
-0.596619,0.384521,
-0.567627,0.42572,
-0.534058,0.39978,
-0.508118,0.350952,
-0.4776,0.332642,
-0.453186,0.386047,
-0.431824,0.43335,
-0.408936,0.401306,
-0.392151,0.349426,
-0.372314,0.332642,
-0.357056,0.384521,
-0.341797,0.428772,
-0.326538,0.402832,
-0.317383,0.343323,
-0.306702,0.334167,
-0.299072,0.382996,
-0.288391,0.422668,
-0.285339,0.39978,
-0.282288,0.366211,
-0.282288,0.338745,
-0.288391,0.382996,
-0.291443,0.422668,
-0.296021,0.404358,
-0.311279,0.357056,
-0.323486,0.337219,
-0.343323,0.387573,
-0.364685,0.427246,
-0.38147,0.404358,
-0.404358,0.350952,
-0.427246,0.326538,
-0.456238,0.38147,
-0.479126,0.428772,
-0.505066,0.402832,
-0.534058,0.35553,
-0.558472,0.343323,
-0.592041,0.38147,
-0.62561,0.427246,
-0.653076,0.411987,
-0.68512,0.354004,
-0.715637,0.338745,
-0.753784,0.387573,
-0.787354,0.431824,
-0.827026,0.393677,
-0.862122,0.352478,
-0.898743,0.340271,
-0.935364,0.386047,
-0.970459,0.428772,
-1.00403,0.395203,
-1.03607,0.35553,
-1.07422,0.332642,
-1.10931,0.357056,
-1.14899,0.428772,
-1.17798,0.39978,
-1.21765,0.354004,
-1.2558,0.3479,
-1.28784,0.390625,
-1.32599,0.431824,
-1.35345,0.372314,
-1.38397,0.372314,
-1.41602,0.358582,
-1.44348,0.393677,
-1.474,0.434875,
-1.50452,0.396729,
-1.53046,0.352478,
-1.55792,0.349426,
-1.58386,0.386047,
-1.60522,0.437927,
-1.63116,0.39978,
-1.6571,0.350952,
-1.68152,0.344849,
-1.70135,0.386047,
-1.72424,0.437927,
-1.74713,0.410461,
-1.76849,0.352478,
-1.78528,0.343323,
-1.81122,0.386047,
-1.8219,0.436401,
-1.84021,0.402832,
-1.85852,0.340271,
-1.87683,0.346375,
-1.89514,0.3479,
-1.91193,0.436401,
-1.92719,0.405884,
-1.94244,0.357056,
-1.95618,0.340271,
-1.96838,0.384521,
-1.98212,0.436401,
-1.99738,0.450134,
-2.00958,0.341797,
-2.02789,0.340271,
-2.04468,0.389099,
-2.05841,0.442505,
-2.07825,0.401306,
-2.09198,0.350952,
-2.10571,0.35553,
-2.12555,0.389099,
-2.14386,0.439453,
-2.15607,0.404358,
-2.17133,0.349426,
-2.18964,0.350952,
-2.20642,0.392151,
-2.22473,0.439453,
-2.24304,0.408936,
-2.25677,0.3479,
-2.27661,0.352478,
-2.2934,0.389099,
-2.30865,0.437927,
-2.32697,0.404358,
-2.3468,0.3479,
-2.36206,0.346375,
-2.37732,0.390625,
-2.388,0.439453,
-2.39716,0.40741,
-2.41089,0.354004,
-2.41547,0.350952,
-2.41699,0.386047,
-2.40173,0.439453,
-2.38037,0.405884,
-2.34375,0.3479,
-2.29492,0.350952,
-2.22778,0.393677,
-2.15302,0.436401,
-2.05994,0.408936,
-1.9577,0.344849,
-1.84937,0.349426,
-1.73492,0.387573,
-1.61285,0.437927,
-1.48621,0.408936,
-1.35498,0.344849,
-1.22375,0.349426,
-1.08795,0.384521,
-0.9552,0.434875,
-0.822449,0.411987,
-0.68512,0.3479,
-0.559998,0.3479,
-0.430298,0.395203,
-0.305176,0.437927,
-0.184631,0.408936,
-0.0808716,0.346375,
0.0259399,0.344849,
0.120544,0.387573,
0.20752,0.434875,
0.294495,0.40741,
0.372314,0.35553,
0.442505,0.3479,
0.506592,0.387573,
0.567627,0.439453,
0.614929,0.410461,
0.660706,0.349426,
0.695801,0.346375,
0.726318,0.372314,
0.749207,0.437927,
0.767517,0.411987,
0.773621,0.349426,
0.775146,0.349426,
0.769043,0.390625,
0.759888,0.439453,
0.746155,0.40741,
0.727844,0.341797,
0.70343,0.349426,
0.679016,0.390625,
0.648499,0.415039,
0.619507,0.413513,
0.588989,0.344849,
0.547791,0.352478,
0.509644,0.390625,
0.474548,0.440979,
0.43335,0.415039,
0.387573,0.352478,
0.338745,0.350952,
0.292969,0.387573,
0.241089,0.436401,
0.183105,0.415039,
0.131226,0.3479,
0.0717163,0.352478,
0.0137329,0.37384,
-0.0457764,0.447083,
-0.0976563,0.415039,
-0.15564,0.346375,
-0.209045,0.349426,
-0.254822,0.384521,
-0.296021,0.437927,
-0.335693,0.404358,
-0.372314,0.349426,
-0.404358,0.350952,
-0.427246,0.389099,
-0.448608,0.439453,
-0.462341,0.419617,
-0.473022,0.343323,
-0.479126,0.349426,
-0.485229,0.390625,
-0.486755,0.440979,
-0.480652,0.418091,
-0.4776,0.3479,
-0.468445,0.346375,
-0.462341,0.376892,
-0.450134,0.439453,
-0.436401,0.434875,
-0.42572,0.350952,
-0.401306,0.344849,
-0.38147,0.396729,
-0.363159,0.440979,
-0.338745,0.418091,
-0.315857,0.349426,
-0.297546,0.354004,
-0.282288,0.384521,
-0.260925,0.442505,
-0.242615,0.421143,
-0.224304,0.346375,
-0.213623,0.3479,
-0.196838,0.390625,
-0.180054,0.439453,
-0.170898,0.42572,
-0.166321,0.314331,
-0.166321,0.338745,
-0.164795,0.389099,
-0.161743,0.439453,
-0.164795,0.424194,
-0.17395,0.346375,
-0.178528,0.344849,
-0.189209,0.390625,
-0.189209,0.440979,
-0.198364,0.424194,
-0.205994,0.346375,
-0.222778,0.350952,
-0.242615,0.389099,
-0.262451,0.440979,
-0.283813,0.42572,
-0.308228,0.346375,
-0.331116,0.341797,
-0.357056,0.390625,
-0.386047,0.444031,
-0.418091,0.436401,
-0.450134,0.344849,
-0.480652,0.341797,
-0.518799,0.390625,
-0.547791,0.447083,
-0.585938,0.428772,
-0.617981,0.352478,
-0.656128,0.343323,
-0.689697,0.390625,
-0.724792,0.436401,
-0.761414,0.416565,
-0.799561,0.349426,
-0.836182,0.340271,
-0.871277,0.389099,
-0.906372,0.445557,
-0.941467,0.43335,
-0.975037,0.346375,
-1.01166,0.341797,
-1.04675,0.389099,
-1.08185,0.444031,
-1.11389,0.43335,
-1.15204,0.357056,
-1.19019,0.338745,
-1.22986,0.390625,
-1.26495,0.444031,
-1.30005,0.434875,
-1.33667,0.352478,
-1.37024,0.341797,
-1.40076,0.392151,
-1.43127,0.447083,
-1.46484,0.437927,
-1.49536,0.349426,
-1.52435,0.340271,
-1.55334,0.392151,
-1.57623,0.445557,
-1.6037,0.434875,
-1.62659,0.349426,
-1.65558,0.340271,
-1.67847,0.386047,
-1.69983,0.444031,
-1.72577,0.437927,
-1.74561,0.352478,
-1.76697,0.346375,
-1.78223,0.387573,
-1.80206,0.445557,
-1.82037,0.434875,
-1.83868,0.3479,
-1.85852,0.341797,
-1.87378,0.384521,
-1.88446,0.440979,
-1.90277,0.440979,
-1.9165,0.352478,
-1.93329,0.343323,
-1.94855,0.392151,
-1.95923,0.442505,
-1.97144,0.453186,
-1.98212,0.358582,
-1.9928,0.341797,
-2.00653,0.389099,
-2.01874,0.442505,
-2.03552,0.439453,
-2.04773,0.357056,
-2.05994,0.340271,
-2.07367,0.389099,
-2.08588,0.442505,
-2.10114,0.436401,
-2.11639,0.358582,
-2.13623,0.337219,
-2.15149,0.392151,
-2.17133,0.440979,
-2.18811,0.436401,
-2.20184,0.358582,
-2.22168,0.338745,
-2.24152,0.387573,
-2.26135,0.447083,
-2.28119,0.447083,
-2.29797,0.363159,
-2.31934,0.337219,
-2.33917,0.389099,
-2.35901,0.440979,
-2.38037,0.427246,
-2.39716,0.361633,
-2.41852,0.338745,
-2.4353,0.387573,
-2.45056,0.440979,
-2.45972,0.434875,
-2.46124,0.363159,
-2.46124,0.335693,
-2.44751,0.387573,
-2.41699,0.439453,
-2.37579,0.431824,
-2.31018,0.363159,
-2.24457,0.337219,
-2.15759,0.389099,
-2.05841,0.436401,
-1.95313,0.428772,
-1.83411,0.367737,
-1.70898,0.335693,
-1.57776,0.387573,
-1.45111,0.442505,
-1.3092,0.485229,
-1.1734,0.367737,
-1.0376,0.332642,
-0.898743,0.384521,
-0.759888,0.437927,
-0.62561,0.43335,
-0.492859,0.367737,
-0.363159,0.335693,
-0.238037,0.389099,
-0.12207,0.396729,
-0.00457764,0.431824,
0.105286,0.37384,
0.204468,0.340271,
0.296021,0.390625,
0.387573,0.421143,
0.466919,0.431824,
0.535583,0.369263,
0.59967,0.332642,
0.656128,0.390625,
0.70343,0.427246,
0.743103,0.431824,
0.778198,0.372314,
0.802612,0.334167,
0.820923,0.386047,
0.83313,0.431824,
0.837708,0.431824,
0.839233,0.370789,
0.828552,0.32959,
0.813293,0.387573,
0.793457,0.427246,
0.773621,0.42572,
0.750732,0.37384,
0.717163,0.32959,
0.692749,0.387573,
0.662231,0.427246,
0.627136,0.42572,
0.587463,0.375366,
0.546265,0.32959,
0.508118,0.389099,
0.462341,0.428772,
0.410461,0.42572,
0.360107,0.372314,
0.311279,0.332642,
0.256348,0.389099,
0.20752,0.428772,
0.151062,0.424194,
0.0961304,0.375366,
0.0396729,0.337219,
-0.0198364,0.382996,
-0.0778198,0.427246,
-0.1297,0.424194,
-0.178528,0.37384,
-0.224304,0.32959,
-0.270081,0.376892,
-0.312805,0.421143,
-0.352478,0.421143,
-0.38147,0.378418,
-0.404358,0.32959,
-0.428772,0.379944,
-0.445557,0.422668,
-0.453186,0.421143,
-0.460815,0.375366,
-0.465393,0.326538,
-0.469971,0.384521,
-0.469971,0.419617,
-0.465393,0.418091,
-0.454712,0.375366,
-0.444031,0.32959,
-0.439453,0.387573,
-0.424194,0.413513,
-0.408936,0.42572,
-0.392151,0.378418,
-0.379944,0.332642,
-0.364685,0.384521,
-0.346375,0.422668,
-0.32959,0.418091,
-0.314331,0.379944,
-0.296021,0.332642,
-0.283813,0.389099,
-0.265503,0.419617,
-0.250244,0.416565,
-0.236511,0.378418,
-0.222778,0.332642,
-0.216675,0.384521,
-0.210571,0.419617,
-0.195313,0.413513,
-0.190735,0.378418,
-0.195313,0.335693,
-0.196838,0.387573,
-0.204468,0.410461,
-0.209045,0.415039,
-0.215149,0.378418,
-0.227356,0.332642,
-0.245667,0.384521,
-0.257874,0.422668,
-0.280762,0.410461,
-0.299072,0.375366,
-0.323486,0.334167,
-0.3479,0.382996,
-0.37384,0.418091,
-0.405884,0.411987,
-0.434875,0.378418,
-0.466919,0.334167,
-0.500488,0.387573,
-0.534058,0.421143,
-0.57373,0.410461,
-0.610352,0.378418,
-0.646973,0.338745,
-0.692749,0.386047,
-0.72937,0.416565,
-0.767517,0.405884,
-0.805664,0.379944,
-0.840759,0.334167,
-0.878906,0.384521,
-0.917053,0.413513,
-0.950623,0.408936,
-0.991821,0.379944,
-1.03607,0.337219,
-1.0788,0.387573,
-1.11847,0.411987,
-1.15662,0.408936,
-1.19476,0.389099,
-1.23444,0.340271,
-1.27411,0.384521,
-1.31531,0.413513,
-1.35498,0.405884,
-1.39618,0.38147,
-1.44043,0.340271,
-1.48163,0.38147,
-1.52283,0.413513,
-1.56403,0.408936,
-1.60065,0.379944,
-1.64185,0.340271,
-1.67999,0.386047,
-1.72119,0.413513,
-1.75476,0.404358,
-1.79291,0.38147,
-1.83105,0.338745,
-1.86615,0.38147,
-1.89667,0.413513,
-1.92413,0.39978,
-1.95923,0.384521,
-1.98517,0.340271,
-2.01569,0.390625,
-2.04315,0.411987,
-2.0752,0.402832,
-2.10419,0.382996,
-2.1347,0.337219,
-2.15912,0.376892,
-2.18201,0.413513,
-2.20642,0.402832,
-2.23083,0.379944,
-2.24762,0.335693,
-2.27203,0.379944,
-2.29034,0.415039,
-2.30865,0.404358,
-2.32239,0.370789,
-2.34985,0.332642,
-2.36511,0.378418,
-2.37427,0.411987,
-2.38953,0.396729,
-2.39868,0.384521,
-2.41394,0.334167,
-2.4292,0.378418,
-2.44598,0.408936,
-2.45819,0.392151,
-2.47345,0.37384,
-2.48871,0.335693,
-2.50397,0.38147,
-2.52075,0.408936,
-2.53601,0.402832,
-2.55737,0.384521,
-2.57111,0.332642,
-2.59399,0.376892,
-2.61536,0.408936,
-2.63519,0.401306,
-2.66266,0.384521,
-2.68555,0.32959,
-2.70691,0.378418,
-2.7359,0.411987,
-2.75574,0.40741,
-2.78625,0.378418,
-2.81219,0.338745,
-2.83966,0.378418,
-2.87018,0.416565,
-2.89612,0.396729,
-2.92358,0.382996,
-2.948,0.337219,
-2.97241,0.376892,
-2.9953,0.408936,
-3.02124,0.405884,
-3.05176,0.382996,
-3.07617,0.335693,
-3.10059,0.375366,
-3.125,0.408936,
-3.14941,0.404358,
-3.1723,0.382996,
-3.19061,0.335693,
-3.19519,0.369263,
-3.19366,0.413513,
-3.17688,0.40741,
-3.14636,0.378418,
-3.09143,0.335693,
-3.02429,0.38147,
-2.93884,0.416565,
-2.83661,0.40741,
-2.71912,0.384521,
-2.6001,0.334167,
-2.46887,0.370789,
-2.33307,0.410461,
-2.19269,0.402832,
-2.05383,0.378418,
-1.9043,0.325012,
-1.76239,0.372314,
-1.62506,0.408936,
-1.4801,0.411987,
-1.3382,0.38147,
-1.20697,0.337219,
-1.07422,0.361633,
-0.946045,0.416565,
-0.827026,0.427246,
-0.712585,0.382996,
-0.605774,0.335693,
-0.50354,0.357056,
-0.405884,0.408936,
-0.320435,0.408936,
-0.238037,0.37384,
-0.164795,0.338745,
-0.100708,0.357056,
-0.0488281,0.415039,
0.00610352,0.415039,
0.0473022,0.379944,
0.0823975,0.340271,
0.106812,0.357056,
0.1297,0.413513,
0.149536,0.416565,
0.157166,0.378418,
0.160217,0.337219,
0.152588,0.358582,
0.141907,0.411987,
0.123596,0.415039,
0.105286,0.382996,
0.0778198,0.337219,
0.0534058,0.357056,
0.0198364,0.411987,
-0.0106812,0.419617,
-0.0473022,0.379944,
-0.088501,0.340271,
-0.132751,0.354004,
-0.18158,0.411987,
-0.224304,0.421143,
-0.271606,0.379944,
-0.32959,0.340271,
-0.386047,0.341797,
-0.442505,0.413513,
-0.498962,0.424194,
-0.563049,0.376892,
-0.622559,0.340271,
-0.689697,0.354004,
-0.758362,0.413513,
-0.819397,0.379944,
-0.881958,0.382996,
-0.941467,0.346375,
-1.0025,0.350952,
-1.05743,0.419617,
-1.10931,0.422668,
-1.15509,0.376892,
-1.19934,0.395203,
-1.23596,0.314331,
-1.26648,0.415039,
-1.29089,0.421143,
-1.30463,0.372314,
-1.31683,0.335693,
-1.31683,0.352478,
-1.31836,0.415039,
-1.31683,0.396729,
-1.3092,0.379944,
-1.30005,0.338745,
-1.28632,0.354004,
-1.2619,0.415039,
-1.24207,0.421143,
-1.21765,0.376892,
-1.19629,0.354004,
-1.17035,0.358582,
-1.14441,0.416565,
-1.11847,0.424194,
-1.091,0.38147,
-1.07117,0.341797,
-1.04828,0.350952,
-1.02539,0.416565,
-1.00708,0.396729,
-0.990295,0.38147,
-0.973511,0.346375,
-0.961304,0.352478,
-0.950623,0.416565,
-0.944519,0.42572,
-0.939941,0.382996,
-0.933838,0.384521,
-0.927734,0.367737,
-0.930786,0.421143,
-0.93689,0.422668,
-0.941467,0.38147,
-0.950623,0.343323,
-0.964355,0.354004,
-0.978088,0.419617,
-0.991821,0.422668,
-1.01318,0.379944,
-1.0376,0.346375,
-1.05743,0.346375,
-1.08185,0.418091,
-1.10626,0.427246,
-1.13068,0.376892,
-1.16272,0.358582,
-1.19019,0.344849,
-1.2207,0.421143,
-1.25122,0.42572,
-1.28632,0.379944,
-1.31836,0.341797,
-1.35498,0.349426,
-1.3916,0.424194,
-1.42517,0.427246,
-1.46332,0.38147,
-1.50146,0.343323,
-1.53656,0.350952,
-1.57623,0.421143,
-1.61896,0.428772,
-1.65558,0.38147,
-1.69373,0.3479,
-1.73035,0.3479,
-1.76849,0.424194,
-1.80511,0.424194,
-1.84631,0.38147,
-1.88751,0.341797,
-1.92108,0.3479,
-1.9577,0.419617,
-2.00195,0.428772,
-2.03552,0.382996,
-2.07214,0.346375,
-2.10571,0.3479,
-2.13928,0.416565,
-2.17896,0.43335,
-2.21863,0.384521,
-2.25525,0.3479,
-2.29187,0.341797,
-2.32697,0.424194,
-2.35901,0.43335,
-2.39563,0.382996,
-2.4292,0.341797,
-2.46429,0.350952,
-2.49329,0.422668,
-2.52075,0.43335,
-2.55432,0.387573,
-2.58179,0.3479,
-2.60773,0.3479,
-2.63519,0.421143,
-2.66418,0.43335,
-2.68707,0.437927,
-2.70996,0.349426,
-2.73132,0.349426,
-2.75269,0.421143,
-2.76794,0.437927,
-2.78168,0.386047,
-2.79999,0.344849,
-2.81219,0.350952,
-2.82745,0.42572,
-2.83661,0.439453,
-2.84424,0.384521,
-2.85492,0.3479,
-2.86255,0.352478,
-2.87018,0.424194,
-2.87476,0.442505,
-2.88544,0.387573,
-2.89764,0.3479,
-2.91138,0.350952,
-2.92664,0.424194,
-2.93884,0.436401,
-2.9541,0.389099,
-2.96783,0.346375,
-2.98309,0.349426,
-2.99835,0.424194,
-3.01208,0.439453,
-3.02887,0.389099,
-3.04413,0.3479,
-3.06396,0.3479,
-3.08075,0.424194,
-3.10059,0.442505,
-3.11737,0.38147,
-3.13873,0.349426,
-3.15857,0.352478,
-3.17688,0.421143,
-3.19519,0.434875,
-3.21503,0.395203,
-3.23029,0.337219,
-3.24707,0.32196,
-3.26233,0.405884,
-3.28217,0.444031,
-3.2959,0.392151,
-3.31879,0.35553,
-3.33405,0.354004,
-3.35388,0.422668,
-3.36456,0.476074,
-3.37677,0.387573,
-3.38898,0.346375,
-3.39813,0.352478,
-3.40881,0.42572,
-3.40271,0.439453,
-3.39355,0.405884,
-3.36609,0.346375,
-3.32642,0.349426,
-3.26843,0.427246,
-3.19366,0.440979,
-3.10669,0.393677,
-3.00598,0.3479,
-2.89917,0.35553,
-2.78625,0.427246,
-2.65808,0.442505,
-2.52991,0.395203,
-2.39716,0.357056,
-2.25983,0.357056,
-2.11945,0.427246,
-1.98059,0.445557,
-1.83868,0.396729,
-1.6983,0.349426,
-1.56097,0.357056,
-1.42975,0.428772,
-1.297,0.45166,
-1.17188,0.393677,
-1.05286,0.3479,
-0.942993,0.352478,
-0.83313,0.42572,
-0.737,0.447083,
-0.637817,0.361633,
-0.553894,0.3479,
-0.469971,0.370789,
-0.393677,0.434875,
-0.32959,0.445557,
-0.265503,0.393677,
-0.213623,0.346375,
-0.170898,0.354004,
-0.132751,0.42572,
-0.0991821,0.460815,
-0.0747681,0.395203,
-0.0564575,0.350952,
-0.0457764,0.357056,
-0.0411987,0.431824,
-0.0427246,0.448608,
-0.0488281,0.393677,
-0.0579834,0.346375,
-0.0793457,0.360107,
-0.102234,0.431824,
-0.131226,0.440979,
-0.161743,0.386047,
-0.19989,0.352478,
-0.245667,0.357056,
-0.286865,0.431824,
-0.331116,0.512695,
-0.38147,0.396729,
-0.43335,0.350952,
-0.486755,0.35553,
-0.541687,0.427246,
-0.602722,0.448608,
-0.662231,0.396729,
-0.724792,0.349426,
-0.785828,0.35553,
-0.852966,0.428772,
-0.917053,0.448608,
-0.984192,0.396729,
-1.04675,0.346375,
-1.11237,0.357056,
-1.17493,0.431824,
-1.22833,0.450134,
-1.27869,0.393677,
-1.32751,0.343323,
-1.36719,0.354004,
-1.40381,0.421143,
-1.4328,0.448608,
-1.45416,0.393677,
-1.47552,0.350952,
-1.48163,0.357056,
-1.48773,0.42572,
-1.48926,0.448608,
-1.48468,0.404358,
-1.48315,0.35553,
-1.46942,0.363159,
-1.45721,0.42572,
-1.44348,0.444031,
-1.42822,0.395203,
-1.40686,0.354004,
-1.39313,0.352478,
-1.37024,0.416565,
-1.3504,0.436401,
-1.32446,0.392151,
-1.3092,0.354004,
-1.28479,0.366211,
-1.26495,0.43335,
-1.24207,0.450134,
-1.2207,0.395203,
-1.20087,0.350952,
-1.1795,0.367737,
-1.16272,0.428772,
-1.14594,0.450134,
-1.13373,0.395203,
-1.12,0.350952,
-1.11694,0.367737,
-1.11237,0.42572,
-1.10931,0.448608,
-1.11237,0.395203,
-1.11694,0.352478,
-1.12305,0.370789,
-1.13068,0.427246,
-1.13983,0.448608,
-1.14899,0.392151,
-1.15967,0.35553,
-1.1734,0.372314,
-1.18713,0.421143,
-1.20544,0.450134,
-1.22528,0.392151,
-1.24664,0.350952,
-1.27411,0.367737,
-1.30157,0.491333,
-1.32599,0.442505,
-1.35345,0.396729,
-1.38397,0.357056,
-1.42059,0.38147,
-1.45264,0.431824,
-1.48468,0.462341,
-1.51825,0.38147,
-1.55334,0.354004,
-1.59302,0.366211,
-1.63116,0.434875,
-1.67084,0.45166,
-1.71051,0.395203,
-1.74866,0.349426,
-1.79291,0.376892,
-1.83105,0.419617,
-1.86462,0.450134,
-1.89972,0.393677,
-1.93787,0.350952,
-1.97449,0.375366,
-2.00958,0.422668,
-2.04315,0.445557,
-2.07977,0.39978,
-2.11487,0.3479,
-2.14691,0.379944,
-2.18048,0.422668,
-2.21558,0.448608,
-2.24915,0.389099,
-2.28424,0.350952,
-2.32086,0.38147,
-2.35748,0.428772,
-2.38953,0.447083,
-2.42462,0.390625,
-2.45667,0.349426,
-2.48871,0.370789,
-2.51923,0.42572,
-2.54669,0.45166,
-2.57416,0.393677,
-2.60162,0.354004,
-2.62299,0.370789,
-2.65045,0.422668,
-2.67181,0.444031,
-2.69318,0.392151,
-2.71759,0.354004,
-2.73743,0.37384,
-2.76184,0.421143,
-2.78168,0.454712,
-2.80151,0.392151,
-2.8183,0.349426,
-2.83966,0.376892,
-2.8595,0.422668,
-2.87476,0.442505,
-2.89307,0.395203,
-2.91138,0.346375,
-2.92816,0.366211,
-2.94189,0.424194,
-2.95258,0.447083,
-2.96631,0.384521,
-2.98309,0.344849,
-3.0014,0.376892,
-3.01361,0.422668,
-3.03192,0.444031,
-3.04871,0.389099,
-3.06396,0.323486,
-3.08228,0.382996,
-3.10364,0.418091,
-3.11737,0.442505,
-3.13263,0.392151,
-3.15552,0.343323,
-3.17993,0.382996,
-3.19672,0.421143,
-3.21808,0.440979,
-3.23486,0.390625,
-3.25623,0.379944,
-3.27301,0.38147,
-3.2959,0.424194,
-3.31421,0.442505,
-3.33252,0.392151,
-3.35083,0.340271,
-3.37219,0.38147,
-3.38593,0.424194,
-3.40118,0.442505,
-3.41949,0.390625,
-3.43018,0.343323,
-3.43628,0.382996,
-3.43628,0.428772,
-3.42407,0.444031,
-3.40729,0.379944,
-3.36761,0.3479,
-3.32184,0.384521,
-3.25317,0.424194,
-3.1723,0.437927,
-3.07159,0.387573,
-2.96021,0.320435,
-2.83813,0.378418,
-2.70386,0.424194,
-2.56195,0.439453,
-2.41394,0.392151,
-2.26746,0.340271,
-2.11182,0.372314,
-1.95923,0.40741,
-1.80511,0.453186,
-1.65405,0.396729,
-1.50146,0.335693,
-1.34888,0.378418,
-1.20087,0.42572,
-1.05743,0.436401,
-0.912476,0.390625,
-0.770569,0.352478,
-0.642395,0.375366,
-0.521851,0.422668,
-0.408936,0.439453,
-0.299072,0.389099,
-0.204468,0.340271,
-0.111389,0.375366,
-0.0274658,0.422668,
0.0518799,0.437927,
0.117493,0.392151,
0.180054,0.32959,
0.233459,0.35553,
0.271606,0.392151,
0.309753,0.444031,
0.335693,0.401306,
0.35553,0.334167,
0.369263,0.375366,
0.37384,0.428772,
0.375366,0.428772,
0.375366,0.445557,
0.366211,0.334167,
0.349426,0.378418,
0.331116,0.42572,
0.305176,0.43335,
0.279236,0.387573,
0.247192,0.338745,
0.212097,0.372314,
0.172424,0.427246,
0.1297,0.422668,
0.0854492,0.390625,
0.0457764,0.337219,
0.00152588,0.369263,
-0.050354,0.42572,
-0.100708,0.431824,
-0.15564,0.387573,
-0.215149,0.338745,
-0.271606,0.370789,
-0.332642,0.427246,
-0.393677,0.43335,
-0.460815,0.390625,
-0.526428,0.337219,
-0.598145,0.370789,
-0.65918,0.427246,
-0.721741,0.43335,
-0.778198,0.390625,
-0.831604,0.334167,
-0.878906,0.367737,
-0.914001,0.427246,
-0.949097,0.431824,
-0.976563,0.390625,
-1.00098,0.337219,
-1.01624,0.367737,
-1.02997,0.428772,
-1.04218,0.431824,
-1.04828,0.390625,
-1.04675,0.335693,
-1.0437,0.370789,
-1.03302,0.431824,
-1.01929,0.43335,
-1.00861,0.392151,
-0.996399,0.344849,
-0.984192,0.366211,
-0.968933,0.427246,
-0.953674,0.431824,
-0.935364,0.390625,
-0.914001,0.335693,
-0.898743,0.366211,
-0.88501,0.431824,
-0.865173,0.42572,
-0.846863,0.387573,
-0.828552,0.32959,
-0.814819,0.369263,
-0.802612,0.419617,
-0.788879,0.42572,
-0.776672,0.389099,
-0.775146,0.32959,
-0.765991,0.367737,
-0.75531,0.434875,
-0.753784,0.42572,
-0.750732,0.389099,
-0.752258,0.332642,
-0.753784,0.363159,
-0.765991,0.431824,
-0.772095,0.424194,
-0.782776,0.389099,
-0.793457,0.32959,
-0.80719,0.360107,
-0.820923,0.431824,
-0.839233,0.422668,
-0.85907,0.387573,
-0.880432,0.332642,
-0.906372,0.361633,
-0.935364,0.42572,
-0.961304,0.42572,
-0.98877,0.389099,
-1.01929,0.332642,
-1.0498,0.360107,
-1.08643,0.427246,
-1.12305,0.431824,
-1.16119,0.386047,
-1.20087,0.326538,
-1.23749,0.35553,
-1.27716,0.427246,
-1.31683,0.428772,
-1.35803,0.384521,
-1.39771,0.328064,
-1.44653,0.352478,
-1.49536,0.427246,
-1.53503,0.428772,
-1.58081,0.386047,
-1.62201,0.32959,
-1.66473,0.358582,
-1.70441,0.42572,
-1.74103,0.427246,
-1.77765,0.387573,
-1.81885,0.326538,
-1.86157,0.35553,
-1.90125,0.424194,
-1.93634,0.427246,
-1.96991,0.386047,
-2.00806,0.328064,
-2.04315,0.357056,
-2.07367,0.428772,
-2.10571,0.43335,
-2.13928,0.386047,
-2.17896,0.32959,
-2.2171,0.352478,
-2.25067,0.427246,
-2.28882,0.43335,
-2.32086,0.384521,
-2.35443,0.332642,
-2.38647,0.354004,
-2.41699,0.427246,
-2.44598,0.43335,
-2.4704,0.384521,
-2.49939,0.32959,
-2.52991,0.3479,
-2.5589,0.42572,
-2.58331,0.434875,
-2.60925,0.387573,
-2.63672,0.32959,
-2.65656,0.3479,
-2.67334,0.43335,
-2.69623,0.434875,
-2.71759,0.386047,
-2.7359,0.328064,
-2.75421,0.332642,
-2.76947,0.427246,
-2.79236,0.431824,
-2.80914,0.389099,
-2.83356,0.332642,
-2.85492,0.349426,
-2.87018,0.427246,
-2.89459,0.436401,
-2.9068,0.390625,
-2.92358,0.335693,
-2.94037,0.349426,
-2.95563,0.428772,
-2.96783,0.43335,
-2.98309,0.393677,
-2.99988,0.334167,
-3.01819,0.344849,
-3.02734,0.424194,
-3.04565,0.437927,
-3.06396,0.386047,
-3.07922,0.32959,
-3.09906,0.346375,
-3.11737,0.42572,
-3.13721,0.440979,
-3.16162,0.387573,
-3.18451,0.328064,
-3.20892,0.349426,
-3.23944,0.431824,
-3.26233,0.439453,
-3.29132,0.389099,
-3.31879,0.32959,
-3.3432,0.346375,
-3.3783,0.421143,
-3.40881,0.434875,
-3.43323,0.386047,
-3.45917,0.32959,
-3.48663,0.39978,
-3.5141,0.428772,
-3.53546,0.434875,
-3.55835,0.393677,
-3.57513,0.32959,
-3.59955,0.343323,
-3.61481,0.424194,
-3.62854,0.43335,
-3.63007,0.387573,
-3.62396,0.334167,
-3.60565,0.343323,
-3.57056,0.418091,
-3.51715,0.436401,
-3.44391,0.384521,
-3.35083,0.332642,
-3.24554,0.346375,
-3.12653,0.421143,
-2.99377,0.43335,
-2.85645,0.387573,
-2.70844,0.332642,
-2.56348,0.346375,
-2.41089,0.418091,
-2.25983,0.43335,
-2.11182,0.384521,
-1.95923,0.332642,
-1.8158,0.3479,
-1.67084,0.413513,
-1.52435,0.434875,
-1.38245,0.387573,
-1.24512,0.32959,
-1.11237,0.341797,
-0.987244,0.402832,
-0.868225,0.437927,
-0.75531,0.387573,
-0.653076,0.334167,
-0.553894,0.3479,
-0.466919,0.415039,
-0.382996,0.439453,
-0.311279,0.363159,
-0.245667,0.335693,
-0.189209,0.344849,
-0.141907,0.413513,
-0.106812,0.442505,
-0.0747681,0.387573,
-0.0549316,0.335693,
-0.0411987,0.346375,
-0.0305176,0.415039,
-0.0289917,0.439453,
-0.0442505,0.390625,
-0.0549316,0.334167,
-0.0778198,0.3479,
-0.105286,0.408936,
-0.1297,0.439453,
-0.166321,0.387573,
-0.201416,0.337219,
-0.248718,0.341797,
-0.289917,0.413513,
-0.338745,0.439453,
-0.392151,0.386047,
-0.444031,0.338745,
-0.50354,0.349426,
-0.563049,0.408936,
-0.622559,0.442505,
-0.679016,0.392151,
-0.740051,0.340271,
-0.802612,0.357056,
-0.865173,0.410461,
-0.926208,0.440979,
-0.991821,0.390625,
-1.06201,0.344849,
-1.13373,0.346375,
-1.20544,0.404358,
-1.26953,0.442505,
-1.33209,0.384521,
-1.39313,0.338745,
-1.44958,0.350952,
-1.50146,0.411987,
-1.55029,0.453186,
-1.58997,0.440979,
-1.62659,0.340271,
-1.65558,0.352478,
-1.67999,0.408936,
-1.69525,0.445557,
-1.70288,0.370789,
-1.71051,0.352478,
-1.71204,0.37384,
-1.70898,0.401306,
-1.70135,0.444031,
-1.69067,0.386047,
-1.67847,0.343323,
-1.66168,0.357056,
-1.64185,0.40741,
-1.61896,0.444031,
-1.59454,0.389099,
-1.57471,0.343323,
-1.55182,0.357056,
-1.52588,0.410461,
-1.49841,0.431824,
-1.47705,0.382996,
-1.45721,0.346375,
-1.43738,0.350952,
-1.42059,0.405884,
-1.40533,0.45166,
-1.39313,0.387573,
-1.38245,0.3479,
-1.38092,0.372314,
-1.38397,0.402832,
-1.38702,0.442505,
-1.38702,0.389099,
-1.39313,0.350952,
-1.39923,0.35553,
-1.40839,0.404358,
-1.41449,0.448608,
-1.4267,0.390625,
-1.44196,0.354004,
-1.46027,0.357056,
-1.47705,0.402832,
-1.49994,0.453186,
-1.51978,0.396729,
-1.54877,0.3479,
-1.57776,0.357056,
-1.62354,0.401306,
-1.66016,0.444031,
-1.69983,0.376892,
-1.7395,0.312805,
-1.7807,0.360107,
-1.8219,0.40741,
-1.8631,0.45166,
-1.90735,0.387573,
-1.9455,0.350952,
-1.98822,0.361633,
-2.034,0.39978,
-2.07367,0.448608,
-2.11334,0.390625,
-2.15302,0.35553,
-2.19879,0.366211,
-2.24762,0.402832,
-2.29187,0.444031,
-2.33917,0.393677,
-2.38647,0.354004,
-2.42615,0.366211,
-2.47192,0.401306,
-2.51617,0.447083,
-2.5589,0.392151,
-2.60162,0.354004,
-2.64435,0.367737,
-2.69165,0.396729,
-2.73438,0.447083,
-2.77557,0.369263,
-2.81525,0.35553,
-2.85797,0.366211,
-2.90222,0.401306,
-2.93732,0.45166,
-2.97394,0.392151,
-3.01361,0.360107,
-3.05328,0.367737,
-3.09753,0.396729,
-3.13568,0.45166,
-3.17535,0.387573,
-3.21045,0.357056,
-3.25165,0.367737,
-3.28674,0.404358,
-3.32336,0.448608,
-3.35693,0.393677,
-3.38287,0.361633,
-3.41339,0.372314,
-3.43475,0.386047,
-3.46222,0.447083,
-3.48816,0.396729,
-3.51105,0.357056,
-3.53394,0.372314,
-3.5553,0.39978,
-3.57971,0.445557,
-3.60107,0.393677,
-3.62549,0.361633,
-3.64685,0.38147,
-3.66516,0.392151,
-3.68652,0.442505,
-3.70026,0.40741,
-3.72009,0.370789,
-3.73993,0.436401,
-3.76129,0.370789,
-3.77655,0.442505,
-3.79181,0.393677,
-3.80707,0.366211,
-3.8269,0.37384,
-3.84674,0.395203,
-3.86353,0.442505,
-3.88031,0.396729,
-3.89557,0.367737,
-3.91235,0.378418,
-3.92761,0.392151,
-3.94287,0.436401,
-3.95966,0.39978,
-3.97644,0.366211,
-4.00085,0.38147,
-4.01306,0.39978,
-4.03595,0.447083,
-4.06036,0.402832,
-4.07562,0.363159,
-4.09546,0.378418,
-4.1153,0.395203,
-4.13818,0.448608,
-4.1626,0.404358,
-4.18243,0.366211,
-4.20227,0.378418,
-4.22516,0.39978,
-4.245,0.445557,
-4.26941,0.402832,
-4.29535,0.367737,
-4.32129,0.376892,
-4.35028,0.395203,
-4.3808,0.444031,
-4.41437,0.404358,
-4.44794,0.367737,
-4.47845,0.376892,
-4.50745,0.396729,
-4.53949,0.448608,
-4.57458,0.363159,
-4.6051,0.369263,
-4.62494,0.379944,
-4.6524,0.39978,
-4.66614,0.445557,
-4.67377,0.402832,
-4.67224,0.366211,
-4.65698,0.38147,
-4.61731,0.401306,
-4.5578,0.445557,
-4.4754,0.402832,
-4.37317,0.367737,
-4.2511,0.378418,
-4.1153,0.396729,
-3.97034,0.444031,
-3.8208,0.405884,
-3.66364,0.366211,
-3.508,0.389099,
-3.3432,0.396729,
-3.18146,0.448608,
-3.01666,0.413513,
-2.85492,0.360107,
-2.69318,0.379944,
-2.53143,0.392151,
-2.3819,0.445557,
-2.23083,0.410461,
-2.08588,0.366211,
-1.94855,0.357056,
-1.81427,0.396729,
-1.69525,0.445557,
-1.57318,0.408936,
-1.46484,0.366211,
-1.35803,0.372314,
-1.2619,0.39978,
-1.17493,0.445557,
-1.09711,0.40741,
-1.03302,0.366211,
-0.971985,0.375366,
-0.921631,0.402832,
-0.87738,0.444031,
-0.843811,0.411987,
-0.813293,0.367737,
-0.798035,0.375366,
-0.779724,0.39978,
-0.770569,0.440979,
-0.770569,0.413513,
-0.776672,0.366211,
-0.787354,0.375366,
-0.801086,0.401306,
-0.817871,0.448608,
-0.842285,0.415039,
-0.869751,0.363159,
-0.906372,0.369263,
-0.942993,0.40741,
-0.982666,0.442505,
-1.02692,0.419617,
-1.07727,0.361633,
-1.12762,0.367737,
-1.18713,0.39978,
-1.24512,0.444031,
-1.3031,0.422668,
-1.36566,0.361633,
-1.43433,0.369263,
-1.50146,0.39978,
-1.56555,0.442505,
-1.64032,0.421143,
-1.71204,0.366211,
-1.78528,0.361633,
-1.85852,0.39978,
-1.92871,0.440979,
-2.005,0.421143,
-2.07672,0.358582,
-2.14386,0.366211,
-2.20795,0.404358,
-2.26288,0.444031,
-2.31628,0.427246,
-2.35748,0.393677,
-2.39563,0.325012,
-2.42157,0.387573,
-2.44598,0.442505,
-2.45972,0.427246,
-2.46735,0.372314,
-2.46582,0.363159,
-2.46429,0.401306,
-2.45361,0.502014,
-2.43225,0.439453,
-2.41241,0.360107,
-2.38647,0.369263,
-2.35901,0.395203,
-2.32849,0.440979,
-2.29645,0.428772,
-2.26593,0.360107,
-2.22931,0.363159,
-2.20184,0.396729,
-2.16827,0.439453,
-2.13776,0.424194,
-2.10876,0.363159,
-2.07825,0.361633,
-2.04773,0.404358,
-2.02179,0.436401,
-1.99585,0.431824,
-1.97449,0.346375,
-1.96381,0.361633,
-1.95465,0.39978,
-1.95313,0.437927,
-1.9455,0.43335,
-1.94092,0.358582,
-1.93939,0.363159,
-1.93634,0.401306,
-1.93939,0.434875,
-1.94244,0.431824,
-1.94855,0.358582,
-1.96228,0.358582,
-1.97601,0.396729,
-1.9928,0.434875,
-2.01111,0.422668,
-2.02484,0.369263,
-2.05078,0.361633,
-2.06909,0.401306,
-2.08893,0.434875,
-2.11334,0.43335,
-2.13776,0.360107,
-2.16522,0.354004,
-2.19421,0.402832,
-2.22778,0.431824,
-2.25677,0.434875,
-2.29034,0.35553,
-2.32697,0.358582,
-2.36511,0.395203,
-2.40021,0.431824,
-2.43835,0.434875,
-2.47192,0.35553,
-2.51617,0.357056,
-2.5589,0.402832,
-2.6001,0.437927,
-2.63824,0.395203,
-2.6886,0.340271,
-2.73132,0.366211,
-2.77557,0.395203,
-2.81219,0.431824,
-2.85797,0.434875,
-2.89612,0.354004,
-2.94342,0.404358,
-2.98767,0.416565,
-3.03497,0.434875,
-3.0777,0.431824,
-3.12195,0.357056,
-3.16162,0.354004,
-3.20282,0.395203,
-3.24402,0.428772,
-3.28217,0.436401,
-3.31879,0.357056,
-3.35388,0.35553,
-3.38898,0.396729,
-3.42407,0.43335,
-3.45917,0.439453,
-3.48969,0.35553,
-3.52478,0.350952,
-3.5553,0.396729,
-3.58276,0.431824,
-3.61176,0.436401,
-3.63312,0.352478,
-3.66058,0.352478,
-3.685,0.393677,
-3.70789,0.42572,
-3.72925,0.43335,
-3.75366,0.354004,
-3.77655,0.35553,
-3.79486,0.396729,
-3.80859,0.431824,
-3.8208,0.431824,
-3.83759,0.357056,
-3.85437,0.354004,
-3.86963,0.395203,
-3.88184,0.431824,
-3.89404,0.434875,
-3.90778,0.354004,
-3.91388,0.35553,
-3.92303,0.395203,
-3.93372,0.431824,
-3.94135,0.415039,
-3.9505,0.35553,
-3.96118,0.350952,
-3.97339,0.396729,
-3.97949,0.428772,
-3.99323,0.43335,
-4.00085,0.352478,
-4.01459,0.3479,
-4.02527,0.392151,
-4.03748,0.428772,
-4.04968,0.434875,
-4.06036,0.354004,
-4.0741,0.352478,
-4.09241,0.389099,
-4.10767,0.431824,
-4.1214,0.416565,
-4.13666,0.352478,
-4.15192,0.346375,
-4.1687,0.387573,
-4.18396,0.428772,
-4.19769,0.442505,
-4.216,0.346375,
-4.23431,0.390625,
-4.26025,0.390625,
-4.28772,0.427246,
-4.30603,0.434875,
-4.3335,0.357056,
-4.35791,0.344849,
-4.38232,0.392151,
-4.40521,0.419617,
-4.42047,0.427246,
-4.4342,0.357056,
-4.44031,0.343323,
-4.43878,0.389099,
-4.41895,0.431824,
-4.38995,0.428772,
-4.3396,0.350952,
-4.26941,0.349426,
-4.17786,0.387573,
-4.07257,0.431824,
-3.95508,0.428772,
-3.81775,0.350952,
-3.67737,0.344849,
-3.53241,0.390625,
-3.3783,0.424194,
-3.22418,0.428772,
-3.07159,0.354004,
-2.92358,0.343323,
-2.771,0.387573,
-2.61841,0.427246,
-2.46887,0.424194,
-2.32849,0.350952,
-2.19116,0.337219,
-2.06146,0.387573,
-1.93481,0.410461,
-1.80969,0.387573,
-1.69373,0.341797,
-1.58691,0.337219,
-1.48468,0.386047,
-1.39008,0.43335,
-1.30463,0.431824,
-1.22375,0.354004,
-1.15204,0.340271,
-1.08948,0.386047,
-1.03455,0.428772,
-0.984192,0.415039,
-0.949097,0.349426,
-0.917053,0.338745,
-0.895691,0.389099,
-0.878906,0.43335,
-0.865173,0.42572,
-0.856018,0.352478,
-0.856018,0.340271,
-0.857544,0.384521,
-0.869751,0.427246,
-0.881958,0.427246,
-0.900269,0.349426,
-0.923157,0.338745,
-0.950623,0.386047,
-0.984192,0.447083,
-1.01318,0.428772,
-1.05591,0.410461,
-1.09863,0.326538,
-1.14899,0.384521,
-1.19934,0.427246,
-1.25427,0.431824,
-1.31683,0.350952,
-1.38092,0.338745,
-1.44653,0.379944,
-1.51825,0.428772,
-1.58844,0.431824,
-1.66016,0.350952,
-1.73187,0.341797,
-1.80969,0.38147,
-1.88751,0.434875,
-1.96838,0.422668,
-2.0462,0.352478,
-2.12555,0.334167,
-2.20184,0.382996,
-2.27814,0.437927,
-2.34528,0.422668,
-2.40936,0.354004,
-2.46124,0.334167,
-2.5116,0.384521,
-2.54822,0.43335,
-2.58026,0.424194,
-2.60315,0.349426,
-2.61688,0.334167,
-2.62146,0.386047,
-2.61841,0.428772,
-2.61078,0.42572,
-2.6001,0.349426,
-2.58026,0.294495,
-2.56042,0.387573,
-2.53296,0.431824,
-2.50244,0.422668,
-2.47192,0.349426,
-2.43988,0.337219,
-2.40479,0.384521,
-2.37427,0.483704,
-2.33612,0.427246,
-2.3056,0.3479,
-2.27509,0.32959,
-2.24457,0.386047,
-2.21558,0.427246,
-2.18658,0.421143,
-2.15912,0.352478,
-2.13928,0.335693,
-2.11334,0.384521,
-2.09351,0.427246,
-2.0752,0.419617,
-2.05688,0.35553,
-2.04315,0.334167,
-2.034,0.389099,
-2.034,0.428772,
-2.03094,0.416565,
-2.03247,0.354004,
-2.03552,0.326538,
-2.03857,0.386047,
-2.04315,0.42572,
-2.05078,0.415039,
-2.06146,0.357056,
-2.07825,0.315857,
-2.09656,0.390625,
-2.11182,0.390625,
-2.13013,0.411987,
-2.14691,0.358582,
-2.17133,0.340271,
-2.19727,0.389099,
-2.22626,0.427246,
-2.25677,0.411987,
-2.28577,0.413513,
-2.31476,0.326538,
-2.34833,0.386047,
-2.37732,0.427246,
-2.40631,0.419617,
-2.44446,0.352478,
-2.4826,0.338745,
-2.51923,0.375366,
-2.55585,0.428772,
-2.60162,0.411987,
-2.64435,0.35553,
-2.69165,0.335693,
-2.73285,0.389099,
-2.7771,0.427246,
-2.8183,0.408936,
-2.86102,0.354004,
-2.90222,0.332642,
-2.94495,0.389099,
-2.98615,0.42572,
-3.02429,0.404358,
-3.06854,0.354004,
-3.10974,0.334167,
-3.14331,0.386047,
-3.18146,0.393677,
-3.22571,0.393677,
-3.2608,0.357056,
-3.30353,0.335693,
-3.33862,0.392151,
-3.37372,0.428772,
-3.40729,0.40741,
-3.44391,0.335693,
-3.48358,0.332642,
-3.51715,0.389099,
-3.54614,0.43335,
-3.57056,0.39978,
-3.6026,0.35553,
-3.62701,0.340271,
-3.65295,0.387573,
-3.68195,0.427246,
-3.70178,0.40741,
-3.7262,0.357056,
-3.75061,0.335693,
-3.77045,0.392151,
-3.79028,0.431824,
-3.80707,0.418091,
-3.83148,0.357056,
-3.84827,0.337219,
-3.8681,0.389099,
-3.88641,0.428772,
-3.9032,0.404358,
-3.91846,0.361633,
-3.93829,0.341797,
-3.9566,0.390625,
-3.97034,0.434875,
-3.98712,0.404358,
-4.00696,0.357056,
-4.02374,0.341797,
-4.04205,0.393677,
-4.06494,0.428772,
-4.08173,0.40741,
-4.10156,0.357056,
-4.11987,0.340271,
-4.13818,0.390625,
-4.15649,0.416565,
-4.1748,0.370789,
-4.19312,0.35553,
-4.21448,0.343323,
-4.23279,0.386047,
-4.25262,0.434875,
-4.27399,0.404358,
-4.29077,0.358582,
-4.30756,0.340271,
-4.32129,0.387573,
-4.33502,0.428772,
-4.34418,0.402832,
-4.34875,0.358582,
-4.35486,0.343323,
-4.35333,0.387573,
-4.3457,0.434875,
-4.32587,0.413513,
-4.29993,0.357056,
-4.25415,0.3479,
-4.19006,0.389099,
-4.10767,0.437927,
-4.00543,0.402832,
-3.88336,0.366211,
-3.74451,0.340271,
-3.59955,0.387573,
-3.44543,0.436401,
-3.28369,0.395203,
-3.1189,0.357056,
-2.95105,0.357056,
-2.78778,0.395203,
-2.61078,0.422668,
-2.43378,0.416565,
-2.27051,0.354004,
-2.10419,0.3479,
-1.93634,0.393677,
-1.78223,0.418091,
-1.62659,0.392151,
-1.47247,0.337219,
-1.33057,0.352478,
-1.19324,0.392151,
-1.06964,0.439453,
-0.941467,0.411987,
-0.823975,0.346375,
-0.718689,0.410461,
-0.62561,0.386047,
-0.531006,0.439453,
-0.448608,0.396729,
-0.372314,0.35553,
-0.317383,0.344849,
-0.260925,0.387573,
-0.218201,0.439453,
-0.184631,0.401306,
-0.154114,0.335693,
-0.132751,0.3479,
-0.120544,0.389099,
-0.112915,0.439453,
-0.109863,0.401306,
-0.115967,0.349426,
-0.126648,0.344849,
-0.14801,0.390625,
-0.170898,0.440979,
-0.198364,0.402832,
-0.230408,0.354004,
-0.265503,0.350952,
-0.308228,0.392151,
-0.350952,0.440979,
-0.395203,0.404358,
-0.442505,0.354004,
-0.491333,0.350952,
-0.544739,0.387573,
-0.59967,0.439453,
-0.656128,0.40741,
-0.709534,0.354004,
-0.773621,0.3479,
-0.840759,0.392151,
-0.904846,0.437927,
-0.971985,0.405884,
-1.04065,0.349426,
-1.11237,0.352478,
-1.18103,0.387573,
-1.24207,0.442505,
-1.30005,0.404358,
-1.36261,0.3479,
-1.42212,0.350952,
-1.47247,0.390625,
-1.5213,0.453186,
-1.56708,0.408936,
-1.60675,0.349426,
-1.6449,0.352478,
-1.66626,0.393677,
-1.68762,0.442505,
-1.69678,0.408936,
-1.69983,0.344849,
-1.69983,0.35553,
-1.69525,0.389099,
-1.6861,0.445557,
-1.67084,0.40741,
-1.65863,0.349426,
-1.64337,0.352478,
-1.62201,0.393677,
-1.59607,0.440979,
-1.57166,0.408936,
-1.54266,0.350952,
-1.5152,0.349426,
-1.48773,0.389099,
-1.45416,0.440979,
-1.42059,0.419617,
-1.3916,0.357056,
-1.36108,0.350952,
-1.3382,0.389099,
-1.31531,0.444031,
-1.29395,0.413513,
-1.27869,0.35553,
-1.25885,0.352478,
-1.24054,0.392151,
-1.22528,0.427246,
-1.21155,0.410461,
-1.19934,0.3479,
-1.19476,0.352478,
-1.18866,0.387573,
-1.19019,0.439453,
-1.19019,0.415039,
-1.19629,0.346375,
-1.20544,0.352478,
-1.21307,0.387573,
-1.22528,0.442505,
-1.24054,0.413513,
-1.25732,0.350952,
-1.27716,0.354004,
-1.30157,0.392151,
-1.32294,0.442505,
-1.34888,0.416565,
-1.37482,0.3479,
-1.40228,0.354004,
-1.43433,0.390625,
-1.46027,0.444031,
-1.49231,0.411987,
-1.53046,0.352478,
-1.56403,0.360107,
-1.60522,0.396729,
-1.6449,0.445557,
-1.6922,0.419617,
-1.73187,0.350952,
-1.77917,0.358582,
-1.82037,0.393677,
-1.8631,0.447083,
-1.9104,0.421143,
-1.95313,0.389099,
-1.9989,0.358582,
-2.0401,0.401306,
-2.0813,0.447083,
-2.12097,0.427246,
-2.1637,0.350952,
-2.20795,0.360107,
-2.25067,0.390625,
-2.29034,0.447083,
-2.33154,0.408936,
-2.37579,0.3479,
-2.42004,0.354004,
-2.45972,0.396729,
-2.50092,0.447083,
-2.53906,0.427246,
-2.57568,0.346375,
-2.61841,0.35553,
-2.65961,0.396729,
-2.69775,0.445557,
-2.7359,0.421143,
-2.771,0.350952,
-2.80762,0.357056,
-2.83966,0.39978,
-2.87323,0.445557,
-2.89764,0.434875,
-2.92816,0.350952,
-2.95563,0.360107,
-2.98157,0.401306,
-3.00293,0.445557,
-3.0304,0.480652,
-3.04565,0.349426,
-3.07159,0.357056,
-3.08838,0.393677,
-3.10516,0.45166,
-3.12195,0.418091,
-3.13873,0.335693,
-3.15552,0.349426,
-3.17688,0.460815,
-3.18756,0.419617,
-3.20282,0.428772,
-3.21198,0.352478,
-3.22723,0.354004,
-3.23944,0.39978,
-3.25317,0.45166,
-3.26538,0.436401,
-3.27911,0.354004,
-3.29285,0.354004,
-3.30505,0.393677,
-3.31726,0.450134,
-3.33252,0.43335,
-3.35083,0.352478,
-3.36761,0.352478,
-3.38593,0.396729,
-3.40118,0.450134,
-3.41949,0.439453,
-3.44086,0.346375,
-3.46069,0.341797,
-3.48053,0.39978,
-3.50189,0.448608,
-3.5202,0.434875,
-3.53851,0.332642,
-3.5614,0.309753,
-3.58582,0.395203,
-3.61328,0.450134,
-3.63312,0.436401,
-3.65448,0.352478,
-3.67584,0.349426,
-3.69415,0.393677,
-3.70789,0.42572,
-3.71552,0.437927,
-3.71552,0.349426,
-3.70483,0.346375,
-3.67737,0.396729,
-3.63464,0.453186,
-3.56903,0.444031,
-3.49121,0.352478,
-3.39203,0.350952,
-3.28064,0.401306,
-3.15857,0.454712,
-3.02124,0.439453,
-2.87933,0.357056,
-2.7298,0.3479,
-2.57111,0.395203,
-2.41241,0.454712,
-2.25525,0.424194,
-2.09351,0.354004,
-1.93939,0.343323,
-1.78528,0.39978,
-1.63269,0.445557,
-1.4801,0.405884,
-1.33209,0.360107,
-1.18866,0.357056,
-1.05133,0.393677,
-0.915527,0.460815,
-0.793457,0.440979,
-0.675964,0.35553,
-0.566101,0.393677,
-0.466919,0.39978,
-0.375366,0.45166,
-0.289917,0.442505,
-0.216675,0.361633,
-0.14801,0.352478,
-0.0976563,0.39978,
-0.050354,0.45166,
-0.0106812,0.444031,
0.0228882,0.376892,
0.0457764,0.350952,
0.062561,0.395203,
0.0732422,0.45166,
0.0793457,0.444031,
0.0808716,0.366211,
0.0732422,0.349426,
0.0549316,0.395203,
0.038147,0.45166,
0.0183105,0.442505,
-0.0137329,0.366211,
-0.0473022,0.349426,
-0.0808716,0.39978,
-0.120544,0.450134,
-0.161743,0.404358,
-0.205994,0.360107,
-0.256348,0.352478,
-0.30365,0.401306,
-0.358582,0.453186,
-0.408936,0.444031,
-0.469971,0.369263,
-0.52948,0.402832,
-0.587463,0.39978,
-0.650024,0.450134,
-0.712585,0.445557,
-0.779724,0.372314,
-0.845337,0.3479,
-0.915527,0.401306,
-0.979614,0.448608,
-1.04523,0.445557,
-1.11084,0.37384,
-1.17188,0.350952,
-1.22833,0.396729,
-1.27716,0.450134,
-1.32599,0.444031,
-1.36719,0.375366,
-1.40686,0.3479,
-1.43585,0.402832,
-1.46027,0.450134,
-1.47552,0.445557,
-1.48926,0.37384,
-1.49536,0.352478,
-1.49841,0.39978,
-1.49689,0.450134,
-1.49231,0.442505,
-1.48163,0.369263,
-1.47095,0.3479,
-1.45874,0.405884,
-1.44043,0.448608,
-1.41449,0.447083,
-1.39008,0.376892,
-1.36108,0.349426,
-1.33362,0.404358,
-1.31073,0.448608,
-1.27869,0.442505,
-1.24969,0.382996,
-1.22223,0.350952,
-1.19934,0.401306,
-1.1734,0.447083,
-1.15204,0.440979,
-1.13068,0.38147,
-1.12,0.346375,
-1.10931,0.402832,
-1.09406,0.444031,
-1.08337,0.428772,
-1.08032,0.384521,
-1.08185,0.3479,
-1.08337,0.401306,
-1.08337,0.445557,
-1.08643,0.440979,
-1.091,0.382996,
-1.09558,0.343323,
-1.10321,0.401306,
-1.11847,0.444031,
-1.12915,0.440979,
-1.14594,0.38147,
-1.17188,0.340271,
-1.19171,0.401306,
-1.21918,0.440979,
-1.24512,0.442505,
-1.27563,0.386047,
-1.31073,0.343323,
-1.34735,0.402832,
-1.38855,0.447083,
-1.4267,0.440979,
-1.46484,0.382996,
-1.50757,0.344849,
-1.55334,0.401306,
-1.59607,0.442505,
-1.63422,0.439453,
-1.67694,0.387573,
-1.72119,0.346375,
-1.76239,0.402832,
-1.80359,0.440979,
-1.84784,0.437927,
-1.89667,0.386047,
-1.94092,0.3479,
-1.98517,0.404358,
-2.03094,0.440979,
-2.06909,0.434875,
-2.11487,0.389099,
-2.15302,0.346375,
-2.19269,0.408936,
-2.23694,0.439453,
-2.27966,0.434875,
-2.31781,0.387573,
-2.35901,0.344849,
-2.3941,0.395203,
-2.43073,0.442505,
-2.46582,0.43335,
-2.50244,0.396729,
-2.54211,0.3479,
-2.58026,0.404358,
-2.61841,0.437927,
-2.65198,0.428772,
-2.68555,0.390625,
-2.71912,0.346375,
-2.74353,0.402832,
-2.77405,0.440979,
-2.80304,0.427246,
-2.83203,0.390625,
-2.85645,0.344849,
-2.88239,0.39978,
-2.91138,0.43335,
-2.93579,0.428772,
-2.95563,0.392151,
-2.97699,0.346375,
-2.99683,0.401306,
-3.01361,0.431824,
-3.02734,0.428772,
-3.0426,0.389099,
-3.05786,0.343323,
-3.07465,0.372314,
-3.0899,0.436401,
-3.10364,0.42572,
-3.12195,0.393677,
-3.13721,0.346375,
-3.15399,0.396729,
-3.16467,0.43335,
-3.17993,0.42572,
-3.19214,0.390625,
-3.20435,0.346375,
-3.21503,0.401306,
-3.23029,0.431824,
-3.24402,0.424194,
-3.25775,0.396729,
-3.27911,0.3479,
-3.29437,0.39978,
-3.31116,0.434875,
-3.32794,0.411987,
-3.34625,0.395203,
-3.36456,0.350952,
-3.38593,0.402832,
-3.40881,0.42572,
-3.42407,0.421143,
-3.44391,0.396729,
-3.45917,0.352478,
-3.48358,0.404358,
-3.508,0.427246,
-3.52936,0.418091,
-3.55072,0.39978,
-3.57361,0.350952,
-3.5965,0.402832,
-3.61328,0.42572,
-3.63312,0.419617,
-3.65448,0.39978,
-3.67126,0.354004,
-3.68958,0.404358,
-3.70331,0.427246,
-3.70941,0.418091,
-3.70941,0.396729,
-3.70178,0.350952,
-3.68042,0.396729,
-3.64227,0.42572,
-3.58429,0.447083,
-3.50494,0.393677,
-3.41492,0.350952,
-3.30658,0.395203,
-3.18451,0.427246,
-3.05176,0.416565,
-2.9068,0.396729,
-2.76489,0.350952,
-2.60925,0.401306,
-2.45361,0.442505,
-2.29797,0.422668,
-2.13928,0.396729,
-1.98517,0.349426,
-1.828,0.393677,
-1.67236,0.427246,
-1.51825,0.415039,
-1.37787,0.354004,
-1.24054,0.349426,
-1.10931,0.393677,
-0.975037,0.428772,
-0.849915,0.416565,
-0.733948,0.393677,
-0.630188,0.346375,
-0.527954,0.393677,
-0.436401,0.424194,
-0.3479,0.411987,
-0.268555,0.39978,
-0.202942,0.349426,
-0.141907,0.392151,
-0.088501,0.422668,
-0.0442505,0.416565,
0,0.393677,
0.0289917,0.337219,
0.0579834,0.390625,
0.0808716,0.424194,
0.0900269,0.416565,
0.0930786,0.39978,
0.0854492,0.352478,
0.0732422,0.395203,
0.0488281,0.42572,
0.0213623,0.422668,
-0.00610352,0.396729,
-0.0427246,0.346375,
-0.0732422,0.396729,
-0.114441,0.424194,
-0.154114,0.411987,
-0.196838,0.402832,
-0.244141,0.332642,
-0.297546,0.395203,
-0.350952,0.424194,
-0.410461,0.416565,
-0.468445,0.396729,
-0.531006,0.337219,
-0.596619,0.387573,
-0.669861,0.421143,
-0.744629,0.424194,
-0.814819,0.393677,
-0.889587,0.350952,
-0.965881,0.392151,
-1.03302,0.421143,
-1.10474,0.392151,
-1.17035,0.39978,
-1.23138,0.35553,
-1.28632,0.389099,
-1.3382,0.424194,
-1.38397,0.419617,
-1.42517,0.408936,
-1.46179,0.3479,
-1.48926,0.350952,
-1.50604,0.42572,
-1.51672,0.422668,
-1.52435,0.396729,
-1.52588,0.352478,
-1.53046,0.386047,
-1.54266,0.427246,
-1.54419,0.421143,
-1.53961,0.393677,
-1.53046,0.352478,
-1.5152,0.386047,
-1.49536,0.424194,
-1.47705,0.42572,
-1.45111,0.393677,
-1.4267,0.350952,
-1.39771,0.382996,
-1.36871,0.427246,
-1.3382,0.427246,
-1.3092,0.396729,
-1.28479,0.352478,
-1.25275,0.378418,
-1.22528,0.427246,
-1.19629,0.424194,
-1.1734,0.392151,
-1.15051,0.354004,
-1.13373,0.378418,
-1.11389,0.427246,
-1.09406,0.427246,
-1.08032,0.390625,
-1.06964,0.354004,
-1.06506,0.37384,
-1.05896,0.424194,
-1.05591,0.428772,
-1.06049,0.393677,
-1.07117,0.352478,
-1.07422,0.375366,
-1.08185,0.427246,
-1.08948,0.428772,
-1.10931,0.392151,
-1.12457,0.35553,
-1.14594,0.370789,
-1.16119,0.428772,
-1.1795,0.434875,
-1.19476,0.396729,
-1.22223,0.354004,
-1.24817,0.367737,
-1.29089,0.427246,
-1.32751,0.43335,
-1.37177,0.392151,
-1.41754,0.349426,
-1.45569,0.369263,
-1.49841,0.421143,
-1.53503,0.434875,
-1.57471,0.393677,
-1.61438,0.354004,
-1.6571,0.358582,
-1.6983,0.424194,
-1.7395,0.43335,
-1.78375,0.396729,
-1.83716,0.35553,
-1.87683,0.372314,
-1.92413,0.427246,
-1.96838,0.434875,
-2.01416,0.387573,
-2.05994,0.354004,
-2.10266,0.360107,
-2.13928,0.424194,
-2.18353,0.434875,
-2.22473,0.393677,
-2.26746,0.35553,
-2.31018,0.369263,
-2.35138,0.424194,
-2.39258,0.431824,
-2.43225,0.393677,
-2.47192,0.354004,
-2.51312,0.370789,
-2.55432,0.427246,
-2.59399,0.434875,
-2.62909,0.392151,
-2.66876,0.334167,
-2.70081,0.369263,
-2.73438,0.422668,
-2.76642,0.437927,
-2.79236,0.392151,
-2.81372,0.35553,
-2.83966,0.369263,
-2.86407,0.434875,
-2.87933,0.434875,
-2.89917,0.395203,
-2.9129,0.35553,
-2.93427,0.369263,
-2.94495,0.43335,
-2.95563,0.439453,
-2.97089,0.393677,
-2.98615,0.315857,
-3.0014,0.366211,
-3.01514,0.431824,
-3.0304,0.440979,
-3.04565,0.393677,
-3.05786,0.354004,
-3.07465,0.363159,
-3.0838,0.43335,
-3.09296,0.436401,
-3.10974,0.389099,
-3.125,0.357056,
-3.13721,0.363159,
-3.15247,0.43335,
-3.16772,0.439453,
-3.18298,0.393677,
-3.19214,0.35553,
-3.2074,0.366211,
-3.21808,0.436401,
-3.23334,0.440979,
-3.25012,0.390625,
-3.26538,0.360107,
-3.28369,0.367737,
-3.29895,0.434875,
-3.32031,0.442505,
-3.33252,0.393677,
-3.35236,0.358582,
-3.37067,0.402832,
-3.38593,0.436401,
-3.40576,0.434875,
-3.4256,0.393677,
-3.44849,0.357056,
-3.46527,0.360107,
-3.48511,0.440979,
-3.50037,0.445557,
-3.51868,0.393677,
-3.53088,0.35553,
-3.54004,0.369263,
-3.54004,0.436401,
-3.53394,0.447083,
-3.51105,0.393677,
-3.47748,0.361633,
-3.4256,0.361633,
-3.35388,0.434875,
-3.26843,0.447083,
-3.1662,0.39978,
-3.05786,0.357056,
-2.93884,0.360107,
-2.80762,0.428772,
-2.66571,0.448608,
-2.52991,0.393677,
-2.38495,0.358582,
-2.23694,0.358582,
-2.08893,0.431824,
-1.94244,0.447083,
-1.79901,0.39978,
-1.65863,0.35553,
-1.52283,0.352478,
-1.3855,0.402832,
-1.25732,0.454712,
-1.1322,0.402832,
-1.02081,0.360107,
-0.91095,0.367737,
-0.804138,0.428772,
-0.70343,0.444031,
-0.608826,0.396729,
-0.526428,0.350952,
-0.442505,0.360107,
-0.369263,0.434875,
-0.300598,0.448608,
-0.238037,0.401306,
-0.187683,0.357056,
-0.143433,0.350952,
-0.111389,0.43335,
-0.0793457,0.448608,
-0.0595093,0.396729,
-0.050354,0.357056,
-0.0442505,0.360107,
-0.0473022,0.43335,
-0.0564575,0.450134,
-0.0640869,0.411987,
-0.0839233,0.361633,
-0.106812,0.363159,
-0.134277,0.434875,
-0.15564,0.460815,
-0.196838,0.402832,
-0.231934,0.357056,
-0.27771,0.375366,
-0.323486,0.434875,
-0.375366,0.450134,
-0.430298,0.396729,
-0.488281,0.354004,
-0.547791,0.358582,
-0.611877,0.436401,
-0.67749,0.453186,
-0.741577,0.39978,
-0.817871,0.358582,
-0.895691,0.360107,
-0.970459,0.437927,
-1.0437,0.456238,
-1.11694,0.395203,
-1.19171,0.35553,
-1.26038,0.363159,
-1.32599,0.434875,
-1.3855,0.456238,
-1.44196,0.379944,
-1.49231,0.360107,
-1.54114,0.361633,
-1.57928,0.421143,
-1.60675,0.416565,
-1.63116,0.393677,
-1.64642,0.360107,
-1.66321,0.361633,
-1.66473,0.434875,
-1.66321,0.468445,
-1.65405,0.416565,
-1.63574,0.390625,
-1.62354,0.35553,
-1.59912,0.436401,
-1.57928,0.453186,
-1.54877,0.402832,
-1.51978,0.357056,
-1.48926,0.361633,
-1.45721,0.460815,
-1.4267,0.454712,
-1.39465,0.39978,
-1.37024,0.358582,
-1.33972,0.361633,
-1.31683,0.437927,
-1.28784,0.456238,
-1.25885,0.40741,
-1.24054,0.358582,
-1.21765,0.366211,
-1.19781,0.436401,
-1.18103,0.454712,
-1.16272,0.402832,
-1.15051,0.354004,
-1.13983,0.367737,
-1.12762,0.437927,
-1.12,0.457764,
-1.11542,0.392151,
-1.11694,0.350952,
-1.12152,0.361633,
-1.12457,0.419617,
-1.1322,0.460815,
-1.13983,0.390625,
-1.15051,0.360107,
-1.16577,0.357056,
-1.18713,0.440979,
-1.20697,0.460815,
-1.22375,0.395203,
-1.24817,0.413513,
-1.26801,0.375366,
-1.29547,0.431824,
-1.32294,0.450134,
-1.35345,0.408936,
-1.37939,0.350952,
-1.41296,0.366211,
-1.44806,0.428772,
-1.48315,0.457764,
-1.52435,0.405884,
-1.55945,0.3479,
-1.60065,0.361633,
-1.64185,0.43335,
-1.68152,0.454712,
-1.72424,0.404358,
-1.76392,0.338745,
-1.80817,0.361633,
-1.85242,0.434875,
-1.89514,0.457764,
-1.93481,0.404358,
-1.97601,0.357056,
-2.01569,0.361633,
-2.05994,0.43335,
-2.10266,0.456238,
-2.14996,0.411987,
-2.18964,0.352478,
-2.23389,0.360107,
-2.27051,0.440979,
-2.30865,0.456238,
-2.34528,0.401306,
-2.38037,0.352478,
-2.41547,0.361633,
-2.44751,0.43335,
-2.47345,0.454712,
-2.50397,0.404358,
-2.53448,0.354004,
-2.56195,0.370789,
-2.59705,0.434875,
-2.62451,0.456238,
-2.64587,0.401306,
-2.67639,0.349426,
-2.70081,0.369263,
-2.72827,0.43335,
-2.74963,0.456238,
-2.77405,0.401306,
-2.79999,0.352478,
-2.81372,0.370789,
-2.83356,0.431824,
-2.84576,0.453186,
-2.86407,0.39978,
-2.87933,0.35553,
-2.89459,0.37384,
-2.90833,0.427246,
-2.92511,0.454712,
-2.94189,0.401306,
-2.96021,0.35553,
-2.97852,0.372314,
-2.99835,0.427246,
-3.01514,0.45166,
-3.03802,0.396729,
-3.05481,0.357056,
-3.07922,0.376892,
-3.10059,0.436401,
-3.125,0.453186,
-3.14636,0.39978,
-3.16467,0.352478,
-3.18298,0.389099,
-3.20282,0.436401,
-3.2196,0.436401,
-3.23944,0.40741,
-3.25623,0.35553,
-3.27454,0.37384,
-3.28827,0.428772,
-3.30353,0.462341,
-3.31879,0.396729,
-3.32794,0.35553,
-3.34015,0.376892,
-3.34778,0.431824,
-3.34473,0.454712,
-3.33862,0.395203,
-3.31421,0.357056,
-3.28522,0.375366,
-3.24097,0.434875,
-3.1723,0.453186,
-3.08838,0.401306,
-2.99072,0.358582,
-2.88239,0.378418,
-2.75726,0.428772,
-2.61688,0.453186,
-2.47803,0.39978,
-2.32391,0.354004,
-2.16827,0.38147,
-2.00653,0.428772,
-1.84021,0.456238,
-1.67694,0.401306,
-1.51825,0.350952,
-1.35651,0.384521,
-1.20544,0.428772,
-1.0498,0.500488,
-0.901794,0.395203,
-0.75531,0.354004,
-0.622559,0.38147,
-0.480652,0.428772,
-0.358582,0.450134,
-0.238037,0.392151,
-0.128174,0.405884,
-0.0213623,0.379944,
0.0747681,0.42572,
0.163269,0.454712,
0.242615,0.401306,
0.312805,0.350952,
0.375366,0.382996,
0.430298,0.42572,
0.474548,0.448608,
0.511169,0.396729,
0.537109,0.35553,
0.547791,0.35553,
0.561523,0.431824,
0.570679,0.448608,
0.569153,0.395203,
0.559998,0.354004,
0.553894,0.431824,
0.538635,0.428772,
0.518799,0.427246,
0.491333,0.395203,
0.463867,0.354004,
0.439453,0.379944,
0.401306,0.42572,
0.364685,0.447083,
0.325012,0.392151,
0.273132,0.350952,
0.22583,0.392151,
0.18158,0.43335,
0.123596,0.447083,
0.0717163,0.401306,
0.0152588,0.349426,
-0.0488281,0.38147,
-0.105286,0.424194,
-0.169373,0.454712,
-0.231934,0.393677,
-0.302124,0.349426,
-0.364685,0.379944,
-0.43335,0.42572,
-0.497437,0.440979,
-0.564575,0.393677,
-0.621033,0.349426,
-0.671387,0.39978,
-0.720215,0.424194,
-0.764465,0.444031,
-0.802612,0.392151,
-0.83313,0.3479,
-0.85907,0.38147,
-0.880432,0.421143,
-0.897217,0.440979,
-0.912476,0.395203,
-0.917053,0.343323,
-0.920105,0.384521,
-0.920105,0.43335,
-0.914001,0.437927,
-0.90332,0.39978,
-0.889587,0.344849,
-0.872803,0.389099,
-0.857544,0.436401,
-0.837708,0.440979,
-0.816345,0.395203,
-0.788879,0.346375,
-0.769043,0.387573,
-0.744629,0.42572,
-0.720215,0.440979,
-0.700378,0.392151,
-0.680542,0.343323,
-0.660706,0.395203,
-0.640869,0.427246,
-0.622559,0.442505,
-0.602722,0.393677,
-0.587463,0.343323,
-0.57373,0.389099,
-0.561523,0.434875,
-0.546265,0.437927,
-0.538635,0.395203,
-0.532532,0.343323,
-0.52948,0.382996,
-0.52948,0.431824,
-0.531006,0.437927,
-0.534058,0.404358,
-0.543213,0.346375,
-0.547791,0.38147,
-0.559998,0.418091,
-0.575256,0.448608,
-0.593567,0.390625,
-0.613403,0.326538,
-0.63324,0.379944,
-0.662231,0.419617,
-0.689697,0.434875,
-0.720215,0.39978,
-0.747681,0.338745,
-0.782776,0.386047,
-0.814819,0.431824,
-0.849915,0.43335,
-0.888062,0.390625,
-0.926208,0.338745,
-0.968933,0.392151,
-1.01318,0.427246,
-1.05591,0.437927,
-1.09711,0.393677,
-1.14288,0.341797,
-1.18713,0.379944,
-1.22528,0.43335,
-1.26801,0.447083,
-1.31378,0.404358,
-1.35651,0.341797,
-1.40076,0.378418,
-1.44806,0.427246,
-1.49231,0.436401,
-1.53503,0.390625,
-1.57318,0.3479,
-1.61438,0.360107,
-1.65405,0.390625,
-1.6922,0.434875,
-1.7334,0.39978,
-1.77307,0.337219,
-1.80664,0.37384,
-1.84479,0.431824,
-1.88446,0.42572,
-1.92108,0.393677,
-1.95618,0.338745,
-1.98975,0.375366,
-2.02637,0.43335,
-2.05994,0.419617,
-2.09198,0.389099,
-2.12555,0.340271,
-2.15607,0.376892,
-2.18658,0.434875,
-2.21558,0.43335,
-2.24304,0.395203,
-2.27203,0.335693,
-2.29492,0.372314,
-2.32544,0.43335,
-2.34833,0.436401,
-2.37427,0.396729,
-2.39563,0.335693,
-2.41852,0.369263,
-2.44598,0.434875,
-2.46124,0.431824,
-2.47955,0.390625,
-2.49634,0.349426,
-2.51465,0.372314,
-2.53296,0.43335,
-2.54364,0.43335,
-2.55737,0.392151,
-2.57111,0.340271,
-2.58942,0.37384,
-2.59857,0.431824,
-2.61688,0.43335,
-2.62604,0.379944,
-2.63824,0.337219,
-2.65045,0.370789,
-2.66266,0.427246,
-2.67487,0.434875,
-2.69165,0.387573,
-2.70996,0.335693,
-2.72827,0.37384,
-2.75269,0.444031,
-2.76947,0.437927,
-2.79694,0.379944,
-2.8183,0.341797,
-2.84119,0.370789,
-2.86713,0.42572,
-2.89001,0.43335,
-2.90375,0.38147,
-2.92816,0.337219,
-2.94952,0.326538,
-2.97089,0.439453,
-2.9953,0.428772,
-3.01971,0.393677,
-3.03802,0.341797,
-3.05939,0.367737,
-3.07922,0.428772,
-3.09296,0.437927,
-3.09906,0.395203,
-3.09906,0.337219,
-3.08228,0.370789,
-3.05634,0.431824,
-3.01208,0.43335,
-2.94952,0.390625,
-2.87018,0.337219,
-2.77557,0.363159,
-2.66876,0.437927,
-2.54822,0.43335,
-2.41852,0.393677,
-2.28119,0.335693,
-2.13928,0.366211,
-1.98975,0.434875,
-1.84021,0.428772,
-1.68152,0.392151,
-1.52435,0.335693,
-1.37482,0.363159,
-1.21918,0.43335,
-1.06049,0.43335,
-0.907898,0.392151,
-0.759888,0.335693,
-0.614929,0.358582,
-0.471497,0.43335,
-0.331116,0.427246,
-0.202942,0.389099,
-0.0808716,0.335693,
0.038147,0.361633,
0.146484,0.434875,
0.247192,0.434875,
0.332642,0.389099,
0.415039,0.328064,
0.489807,0.358582,
0.550842,0.42572,
0.605774,0.434875,
0.65155,0.404358,
0.68512,0.334167,
0.712585,0.360107,
0.733948,0.434875,
0.746155,0.419617,
0.747681,0.372314,
0.747681,0.335693,
0.738525,0.358582,
0.724792,0.43335,
0.704956,0.43335,
0.682068,0.390625,
0.65918,0.337219,
0.627136,0.35553,
0.590515,0.43335,
0.547791,0.431824,
0.508118,0.393677,
0.460815,0.335693,
0.418091,0.357056,
0.364685,0.43335,
0.312805,0.43335,
0.257874,0.392151,
0.19989,0.335693,
0.135803,0.357056,
0.0732422,0.434875,
0.0106812,0.428772,
-0.0579834,0.386047,
-0.126648,0.335693,
-0.198364,0.357056,
-0.268555,0.427246,
-0.338745,0.436401,
-0.40741,0.384521,
-0.473022,0.334167,
-0.535583,0.354004,
-0.590515,0.431824,
-0.637817,0.43335,
-0.682068,0.393677,
-0.726318,0.334167,
-0.759888,0.354004,
-0.785828,0.434875,
-0.810242,0.436401,
-0.830078,0.392151,
-0.842285,0.334167,
-0.849915,0.350952,
-0.857544,0.431824,
-0.854492,0.439453,
-0.852966,0.393677,
-0.848389,0.335693,
-0.842285,0.352478,
-0.830078,0.436401,
-0.814819,0.436401,
-0.796509,0.393677,
-0.779724,0.334167,
-0.753784,0.349426,
-0.733948,0.43335,
-0.709534,0.442505,
-0.686646,0.387573,
-0.671387,0.335693,
-0.648499,0.343323,
-0.634766,0.434875,
-0.617981,0.439453,
-0.595093,0.392151,
-0.57373,0.337219,
-0.556946,0.354004,
-0.540161,0.431824,
-0.524902,0.436401,
-0.511169,0.389099,
-0.508118,0.332642,
-0.50354,0.357056,
-0.498962,0.428772,
-0.494385,0.439453,
-0.498962,0.375366,
-0.508118,0.335693,
-0.517273,0.354004,
-0.534058,0.424194,
-0.552368,0.437927,
-0.570679,0.393677,
-0.595093,0.332642,
-0.617981,0.349426,
-0.645447,0.42572,
-0.671387,0.436401,
-0.700378,0.37384,
-0.732422,0.332642,
-0.764465,0.350952,
-0.801086,0.428772,
-0.840759,0.439453,
-0.875854,0.392151,
-0.912476,0.334167,
-0.953674,0.350952,
-0.996399,0.422668,
-1.04065,0.483704,
-1.08337,0.408936,
-1.1322,0.338745,
-1.17798,0.350952,
-1.22528,0.421143,
-1.27106,0.440979,
-1.32294,0.393677,
-1.37939,0.32196,
-1.42822,0.349426,
-1.4801,0.427246,
-1.53046,0.440979,
-1.58081,0.389099,
-1.63116,0.341797,
-1.67999,0.357056,
-1.73035,0.422668,
-1.77917,0.440979,
-1.828,0.390625,
-1.87531,0.335693,
-1.9165,0.349426,
-1.96381,0.418091,
-2.00958,0.444031,
-2.05231,0.392151,
-2.08893,0.334167,
-2.1225,0.352478,
-2.16217,0.424194,
-2.19727,0.440979,
-2.22321,0.436401,
-2.25677,0.332642,
-2.29492,0.3479,
-2.32544,0.421143,
-2.36053,0.444031,
-2.388,0.390625,
-2.41852,0.32959,
-2.45209,0.350952,
-2.4826,0.418091,
-2.50702,0.439453,
-2.53296,0.38147,
-2.56042,0.335693,
-2.59094,0.350952,
-2.61688,0.421143,
-2.64435,0.442505,
-2.66876,0.390625,
-2.6947,0.340271,
-2.71301,0.357056,
-2.73132,0.418091,
-2.74963,0.447083,
-2.76642,0.390625,
-2.7832,0.335693,
-2.80609,0.363159,
-2.82288,0.422668,
-2.83813,0.445557,
-2.85645,0.392151,
-2.86865,0.340271,
-2.88544,0.350952,
-2.90222,0.419617,
-2.91595,0.447083,
-2.93121,0.382996,
-2.94495,0.311279,
-2.95868,0.350952,
-2.96936,0.408936,
-2.98462,0.45166,
-3.00293,0.390625,
-3.01971,0.346375,
-3.0426,0.357056,
-3.06702,0.393677,
-3.09296,0.505066,
-3.11584,0.393677,
-3.14178,0.3479,
-3.16162,0.352478,
-3.18756,0.410461,
-3.2074,0.447083,
-3.23486,0.393677,
-3.25623,0.344849,
-3.28674,0.357056,
-3.31268,0.410461,
-3.34167,0.450134,
-3.36151,0.393677,
-3.38898,0.344849,
-3.41949,0.352478,
-3.44543,0.419617,
-3.4668,0.453186,
-3.48969,0.393677,
-3.50494,0.350952,
-3.52173,0.352478,
-3.52631,0.408936,
-3.52325,0.448608,
-3.50342,0.392151,
-3.46832,0.35553,
-3.42102,0.357056,
-3.35083,0.401306,
-3.26233,0.456238,
-3.1601,0.395203,
-3.04718,0.3479,
-2.92511,0.35553,
-2.7832,0.405884,
-2.63977,0.45166,
-2.48718,0.354004,
-2.33002,0.3479,
-2.17743,0.360107,
-2.02026,0.402832,
-1.86005,0.454712,
-1.70441,0.393677,
-1.55029,0.352478,
-1.39618,0.360107,
-1.24664,0.405884,
-1.09711,0.450134,
-0.956726,0.39978,
-0.820923,0.350952,
-0.698853,0.363159,
-0.579834,0.404358,
-0.468445,0.45166,
-0.364685,0.393677,
-0.271606,0.354004,
-0.187683,0.361633,
-0.109863,0.405884,
-0.038147,0.453186,
0.0259399,0.392151,
0.0808716,0.354004,
0.123596,0.363159,
0.158691,0.393677,
0.189209,0.453186,
0.212097,0.396729,
0.22583,0.35553,
0.234985,0.361633,
0.231934,0.395203,
0.22583,0.445557,
0.213623,0.395203,
0.193787,0.357056,
0.163269,0.366211,
0.140381,0.405884,
0.109863,0.450134,
0.0762939,0.395203,
0.0411987,0.357056,
-0.00305176,0.370789,
-0.0457764,0.386047,
-0.0976563,0.45166,
-0.151062,0.392151,
-0.205994,0.358582,
-0.262451,0.366211,
-0.326538,0.408936,
-0.390625,0.450134,
-0.45929,0.396729,
-0.531006,0.358582,
-0.605774,0.372314,
-0.679016,0.405884,
-0.753784,0.447083,
-0.837708,0.405884,
-0.91095,0.372314,
-0.98877,0.360107,
-1.05896,0.408936,
-1.12915,0.448608,
-1.18713,0.396729,
-1.24512,0.360107,
-1.297,0.372314,
-1.33667,0.404358,
-1.37329,0.448608,
-1.40533,0.396729,
-1.42517,0.360107,
-1.44806,0.372314,
-1.46484,0.402832,
-1.4679,0.450134,
-1.46942,0.395203,
-1.46637,0.366211,
-1.46179,0.375366,
-1.44958,0.404358,
-1.43127,0.447083,
-1.41602,0.401306,
-1.39313,0.360107,
-1.37177,0.369263,
-1.33972,0.440979,
-1.31683,0.448608,
-1.29395,0.396729,
-1.26648,0.363159,
-1.24207,0.376892,
-1.21918,0.395203,
-1.19171,0.442505,
-1.17188,0.392151,
-1.14899,0.361633,
-1.12915,0.375366,
-1.11084,0.395203,
-1.08948,0.444031,
-1.07117,0.393677,
-1.06201,0.375366,
-1.04828,0.379944,
-1.03912,0.360107,
-1.02692,0.444031,
-1.02081,0.393677,
-1.02081,0.361633,
-1.02081,0.379944,
-1.02386,0.401306,
-1.03455,0.448608,
-1.04523,0.401306,
-1.06201,0.367737,
-1.08032,0.379944,
-1.09711,0.402832,
-1.12,0.444031,
-1.14594,0.382996,
-1.17188,0.376892,
-1.19781,0.38147,
-1.22986,0.39978,
-1.2619,0.445557,
-1.29395,0.402832,
-1.32904,0.370789,
-1.36566,0.379944,
-1.40076,0.39978,
-1.43738,0.45166,
-1.4801,0.402832,
-1.51978,0.370789,
-1.55792,0.38147,
-1.59912,0.396729,
-1.64337,0.447083,
-1.68304,0.401306,
-1.72577,0.366211,
-1.76849,0.382996,
-1.80511,0.396729,
-1.84631,0.445557,
-1.88751,0.402832,
-1.93329,0.363159,
-1.98212,0.384521,
-2.02332,0.396729,
-2.06757,0.448608,
-2.10876,0.404358,
-2.14691,0.366211,
-2.19116,0.387573,
-2.23694,0.401306,
-2.27966,0.444031,
-2.31628,0.404358,
-2.35748,0.367737,
-2.39868,0.382996,
-2.43835,0.401306,
-2.47498,0.448608,
-2.51923,0.404358,
-2.55585,0.367737,
-2.59247,0.390625,
-2.63367,0.39978,
-2.67029,0.445557,
-2.70233,0.402832,
-2.742,0.367737,
-2.77557,0.38147,
-2.80457,0.402832,
-2.83356,0.448608,
-2.8595,0.402832,
-2.88544,0.366211,
-2.9068,0.376892,
-2.93579,0.39978,
-2.96173,0.445557,
-2.98615,0.404358,
-3.00293,0.363159,
-3.02277,0.375366,
-3.04565,0.401306,
-3.06396,0.450134,
-3.08533,0.40741,
-3.10211,0.370789,
-3.125,0.387573,
-3.14331,0.39978,
-3.1662,0.427246,
-3.18298,0.40741,
-3.20435,0.367737,
-3.22571,0.379944,
-3.24554,0.405884,
-3.26843,0.440979,
-3.28522,0.396729,
-3.31116,0.363159,
-3.32947,0.378418,
-3.3432,0.395203,
-3.35846,0.445557,
-3.37524,0.408936,
-3.38898,0.370789,
-3.40576,0.361633,
-3.42255,0.405884,
-3.43933,0.445557,
-3.45306,0.410461,
-3.46985,0.366211,
-3.49274,0.375366,
-3.508,0.396729,
-3.52631,0.442505,
-3.55377,0.411987,
-3.56903,0.37384,
-3.59192,0.375366,
-3.61633,0.395203,
-3.63922,0.440979,
-3.66058,0.418091,
-3.68652,0.369263,
-3.70483,0.37384,
-3.72772,0.405884,
-3.74298,0.444031,
-3.75824,0.419617,
-3.75824,0.367737,
-3.76129,0.372314,
-3.74451,0.401306,
-3.72009,0.448608,
-3.68195,0.422668,
-3.61481,0.367737,
-3.53394,0.369263,
-3.43628,0.393677,
-3.32794,0.440979,
-3.20282,0.419617,
-3.07159,0.369263,
-2.93274,0.354004,
-2.78625,0.402832,
-2.63367,0.440979,
-2.48413,0.421143,
-2.33154,0.35553,
-2.18506,0.367737,
-2.034,0.401306,
-1.88446,0.439453,
-1.73798,0.42572,
-1.59454,0.369263,
-1.45416,0.372314,
-1.31531,0.418091,
-1.18561,0.440979,
-1.06049,0.424194,
-0.946045,0.370789,
-0.837708,0.360107,
-0.735474,0.395203,
-0.643921,0.440979,
-0.55542,0.427246,
-0.476074,0.369263,
-0.405884,0.366211,
-0.3479,0.401306,
-0.294495,0.444031,
-0.248718,0.427246,
-0.212097,0.367737,
-0.184631,0.363159,
-0.160217,0.395203,
-0.149536,0.439453,
-0.140381,0.427246,
-0.143433,0.386047,
-0.152588,0.361633,
-0.166321,0.401306,
-0.184631,0.437927,
-0.212097,0.427246,
-0.242615,0.367737,
-0.273132,0.360107,
-0.30365,0.396729,
-0.3479,0.437927,
-0.393677,0.42572,
-0.444031,0.366211,
-0.495911,0.360107,
-0.547791,0.39978,
-0.604248,0.436401,
-0.657654,0.42572,
-0.721741,0.361633,
-0.788879,0.360107,
-0.857544,0.395203,
-0.924683,0.434875,
-0.999451,0.428772,
-1.07117,0.376892,
-1.14746,0.35553,
-1.22833,0.39978,
-1.3031,0.439453,
-1.37787,0.42572,
-1.44806,0.360107,
-1.51215,0.358582,
-1.57471,0.401306,
-1.62811,0.436401,
-1.67847,0.431824,
-1.72577,0.361633,
-1.76239,0.357056,
-1.79443,0.390625,
-1.81885,0.436401,
-1.84021,0.428772,
-1.85089,0.363159,
-1.86005,0.354004,
-1.85547,0.39978,
-1.85089,0.437927,
-1.84021,0.428772,
-1.828,0.358582,
-1.80664,0.361633,
-1.78375,0.39978,
-1.75934,0.437927,
-1.73187,0.428772,
-1.70441,0.35553,
-1.67694,0.358582,
-1.64795,0.404358,
-1.61438,0.444031,
-1.58844,0.431824,
-1.55792,0.357056,
-1.53046,0.352478,
-1.50909,0.392151,
-1.48926,0.434875,
-1.46942,0.431824,
-1.45111,0.35553,
-1.43127,0.3479,
-1.41907,0.396729,
-1.40839,0.436401,
-1.39923,0.428772,
-1.39313,0.35553,
-1.39313,0.352478,
-1.3916,0.401306,
-1.39465,0.439453,
-1.40076,0.434875,
-1.40533,0.352478,
-1.41754,0.350952,
-1.43585,0.401306,
-1.45111,0.428772,
-1.4679,0.434875,
-1.48773,0.354004,
-1.50757,0.350952,
-1.53351,0.395203,
-1.55487,0.434875,
-1.57928,0.431824,
-1.60828,0.354004,
-1.63727,0.350952,
-1.66779,0.395203,
-1.69983,0.43335,
-1.7334,0.434875,
-1.77155,0.357056,
-1.81274,0.349426,
-1.84937,0.395203,
-1.88751,0.436401,
-1.93176,0.436401,
-1.97601,0.357056,
-2.01569,0.349426,
-2.05841,0.37384,
-2.10266,0.442505,
-2.13776,0.434875,
-2.17896,0.358582,
-2.22321,0.346375,
-2.26593,0.401306,
-2.31323,0.427246,
-2.35901,0.43335,
-2.40021,0.352478,
-2.44293,0.344849,
-2.48718,0.393677,
-2.52533,0.43335,
-2.56653,0.43335,
-2.60468,0.350952,
-2.6413,0.344849,
-2.68555,0.390625,
-2.72217,0.431824,
-2.76031,0.428772,
-2.79694,0.357056,
-2.83203,0.346375,
-2.86713,0.393677,
-2.89764,0.437927,
-2.92969,0.422668,
-2.9541,0.354004,
-2.98157,0.349426,
-3.01056,0.392151,
-3.03497,0.427246,
-3.05786,0.431824,
-3.07922,0.360107,
-3.10364,0.337219,
-3.12653,0.390625,
-3.14941,0.43335,
-3.17383,0.431824,
-3.19366,0.358582,
-3.21503,0.338745,
-3.23792,0.395203,
-3.2486,0.431824,
-3.26538,0.428772,
-3.28064,0.357056,
-3.29895,0.343323,
-3.31421,0.390625,
-3.32947,0.43335,
-3.3432,0.453186,
-3.36151,0.352478,
-3.37982,0.341797,
-3.39813,0.389099,
-3.41492,0.42572,
-3.42865,0.43335,
-3.44849,0.352478,
-3.46375,0.341797,
-3.48511,0.387573,
-3.49884,0.431824,
-3.51715,0.43335,
-3.54004,0.352478,
-3.56293,0.341797,
-3.59039,0.386047,
-3.61328,0.427246,
-3.63464,0.428772,
-3.66211,0.358582,
-3.67737,0.341797,
-3.69873,0.387573,
-3.70941,0.43335,
-3.73077,0.428772,
-3.74603,0.369263,
-3.76587,0.346375,
-3.78723,0.392151,
-3.80402,0.436401,
-3.8208,0.431824,
-3.83453,0.354004,
-3.84064,0.341797,
-3.83606,0.384521,
-3.82843,0.428772,
-3.80402,0.427246,
-3.76587,0.350952,
-3.71094,0.341797,
-3.63922,0.387573,
-3.54614,0.428772,
-3.44086,0.428772,
-3.32184,0.350952,
-3.19214,0.338745,
-3.05023,0.387573,
-2.90527,0.431824,
-2.74963,0.431824,
-2.59094,0.350952,
-2.43225,0.340271,
-2.26593,0.384521,
-2.10571,0.427246,
-1.93939,0.436401,
-1.77307,0.343323,
-1.61285,0.338745,
-1.46179,0.389099,
-1.3031,0.431824,
-1.16119,0.424194,
-1.01776,0.337219,
-0.878906,0.337219,
-0.752258,0.379944,
-0.631714,0.431824,
-0.520325,0.42572,
-0.408936,0.350952,
-0.317383,0.332642,
-0.228882,0.382996,
-0.149536,0.40741,
-0.0823975,0.422668,
-0.0198364,0.352478,
0.0305176,0.343323,
0.0732422,0.386047,
0.108337,0.428772,
0.132751,0.424194,
0.154114,0.361633,
0.161743,0.338745,
0.164795,0.386047,
0.161743,0.434875,
0.15564,0.427246,
0.138855,0.35553,
0.119019,0.338745,
0.0946045,0.384521,
0.0701904,0.43335,
0.0350952,0.42572,
0,0.350952,
-0.0396729,0.338745,
-0.0854492,0.387573,
-0.126648,0.431824,
-0.175476,0.428772,
-0.228882,0.350952,
-0.288391,0.340271,
-0.349426,0.384521,
-0.40741,0.428772,
-0.465393,0.424194,
-0.527954,0.352478,
-0.596619,0.335693,
-0.663757,0.387573,
-0.730896,0.434875,
-0.801086,0.42572,
-0.872803,0.350952,
-0.944519,0.335693,
-1.00708,0.386047,
-1.06354,0.434875,
-1.12,0.424194,
-1.17493,0.350952,
-1.22375,0.332642,
-1.26495,0.384521,
-1.3092,0.431824,
-1.3443,0.43335,
-1.36871,0.354004,
-1.39313,0.338745,
-1.41144,0.390625,
-1.42059,0.427246,
-1.4267,0.427246,
-1.43585,0.35553,
-1.43127,0.320435,
-1.43127,0.387573,
-1.41602,0.43335,
-1.40533,0.424194,
-1.39313,0.350952,
-1.37787,0.340271,
-1.35651,0.390625,
-1.33362,0.411987,
-1.31073,0.427246,
-1.29089,0.354004,
-1.27106,0.340271,
-1.24817,0.386047,
-1.22375,0.431824,
-1.19781,0.421143,
-1.17645,0.352478,
-1.15814,0.340271,
-1.13678,0.389099,
-1.12152,0.42572,
-1.09711,0.419617,
-1.08337,0.358582,
-1.07422,0.340271,
-1.06201,0.389099,
-1.05743,0.42572,
-1.0498,0.422668,
-1.04828,0.354004,
-1.05133,0.341797,
-1.05438,0.390625,
-1.06201,0.427246,
-1.06964,0.416565,
-1.08337,0.35553,
-1.10168,0.337219,
-1.11542,0.37384,
-1.13068,0.419617,
-1.15509,0.418091,
-1.17798,0.35553,
-1.21155,0.341797,
-1.24207,0.389099,
-1.27869,0.431824,
-1.31531,0.418091,
-1.35193,0.366211,
-1.39008,0.344849,
-1.4328,0.387573,
-1.47552,0.43335,
-1.51215,0.416565,
-1.5564,0.357056,
-1.60522,0.344849,
-1.64795,0.387573,
-1.6922,0.411987,
-1.7395,0.418091,
-1.78223,0.358582,
-1.82953,0.338745,
-1.87225,0.387573,
-1.91193,0.427246,
-1.95618,0.413513,
-1.9989,0.357056,
-2.04315,0.338745,
-2.08435,0.392151,
-2.1286,0.434875,
-2.1759,0.413513,
-2.21405,0.352478,
-2.2583,0.338745,
-2.2995,0.387573,
-2.34222,0.431824,
-2.38037,0.408936,
-2.42767,0.357056,
-2.47192,0.349426,
-2.51312,0.392151,
-2.55432,0.434875,
-2.59552,0.40741,
-2.63367,0.357056,
-2.67181,0.341797,
-2.71301,0.390625,
-2.74658,0.431824,
-2.77863,0.410461,
-2.80762,0.358582,
-2.83508,0.340271,
-2.86407,0.390625,
-2.89154,0.42572,
-2.91595,0.408936,
-2.94342,0.35553,
-2.97089,0.341797,
-2.99072,0.392151,
-3.01208,0.431824,
-3.03192,0.40741,
-3.05481,0.354004,
-3.07617,0.338745,
-3.0899,0.390625,
-3.11279,0.431824,
-3.13263,0.40741,
-3.14941,0.358582,
-3.16925,0.341797,
-3.18756,0.392151,
-3.20282,0.428772,
-3.21503,0.411987,
-3.23029,0.35553,
-3.25165,0.344849,
-3.26996,0.389099,
-3.28522,0.43335,
-3.29742,0.408936,
-3.31879,0.358582,
-3.33099,0.3479,
-3.35236,0.392151,
-3.36761,0.43335,
-3.38745,0.428772,
-3.40271,0.358582,
-3.42407,0.3479,
-3.44849,0.386047,
-3.46222,0.43335,
-3.48358,0.404358,
-3.50037,0.360107,
-3.5202,0.341797,
-3.54614,0.389099,
-3.56598,0.436401,
-3.59192,0.413513,
-3.61938,0.358582,
-3.64075,0.346375,
-3.66516,0.395203,
-3.6911,0.421143,
-3.70941,0.410461,
-3.72772,0.357056,
-3.74146,0.341797,
-3.75824,0.392151,
-3.76129,0.436401,
-3.75824,0.410461,
-3.74298,0.361633,
-3.72314,0.341797,
-3.685,0.392151,
-3.62701,0.434875,
-3.5553,0.405884,
-3.46069,0.360107,
-3.35999,0.343323,
-3.24554,0.389099,
-3.11737,0.43335,
-2.98462,0.405884,
-2.83966,0.360107,
-2.69318,0.349426,
-2.53906,0.384521,
-2.38647,0.440979,
-2.23083,0.40741,
-2.06757,0.358582,
-1.90887,0.3479,
-1.74866,0.396729,
-1.59454,0.442505,
-1.44653,0.404358,
-1.30615,0.363159,
-1.17188,0.349426,
-1.03912,0.393677,
-0.912476,0.440979,
-0.794983,0.40741,
-0.68512,0.354004,
-0.587463,0.349426,
-0.495911,0.38147,
-0.415039,0.437927,
-0.337219,0.405884,
-0.270081,0.35553,
-0.219727,0.366211,
-0.167847,0.389099,
-0.126648,0.440979,
-0.0915527,0.404358,
-0.0686646,0.357056,
-0.0518799,0.3479,
-0.0427246,0.393677,
-0.0442505,0.437927,
-0.0549316,0.410461,
-0.0686646,0.357056,
-0.0900269,0.3479,
-0.112915,0.395203,
-0.135803,0.437927,
-0.167847,0.405884,
-0.205994,0.357056,
-0.248718,0.358582,
-0.289917,0.389099,
-0.334167,0.439453,
-0.384521,0.39978,
-0.43335,0.354004,
-0.485229,0.350952,
-0.546265,0.39978,
-0.6073,0.437927,
-0.674438,0.419617,
-0.747681,0.35553,
-0.817871,0.350952,
-0.900269,0.393677,
-0.975037,0.442505,
-1.0498,0.410461,
-1.1322,0.357056,
-1.2085,0.3479,
-1.28174,0.401306,
-1.35956,0.43335,
-1.42822,0.408936,
-1.49994,0.357056,
-1.56555,0.354004,
-1.62354,0.393677,
-1.67389,0.445557,
-1.71814,0.413513,
-1.76239,0.358582,
-1.79138,0.349426,
-1.81885,0.401306,
-1.84174,0.445557,
-1.85089,0.415039,
-1.85547,0.35553,
-1.86462,0.352478,
-1.8631,0.390625,
-1.85547,0.437927,
-1.84479,0.413513,
-1.83105,0.357056,
-1.81427,0.35553,
-1.79596,0.396729,
-1.77155,0.448608,
-1.75171,0.40741,
-1.73035,0.352478,
-1.70898,0.352478,
-1.68152,0.393677,
-1.65863,0.445557,
-1.63269,0.411987,
-1.60675,0.349426,
-1.58997,0.341797,
-1.56708,0.396729,
-1.54572,0.444031,
-1.52893,0.413513,
-1.5152,0.349426,
-1.50146,0.338745,
-1.49231,0.39978,
-1.49078,0.447083,
-1.48163,0.413513,
-1.48315,0.352478,
-1.4801,0.358582,
-1.47705,0.401306,
-1.4801,0.427246,
-1.48163,0.413513,
-1.49078,0.350952,
-1.49994,0.35553,
-1.51062,0.393677,
-1.52893,0.448608,
-1.54419,0.419617,
-1.5686,0.35553,
-1.58844,0.358582,
-1.61743,0.39978,
-1.63879,0.448608,
-1.66473,0.419617,
-1.69525,0.35553,
-1.72729,0.35553,
-1.76392,0.396729,
-1.79443,0.448608,
-1.82953,0.421143,
-1.87225,0.358582,
-1.91193,0.370789,
-1.9516,0.392151,
-1.99585,0.450134,
-2.03705,0.416565,
-2.0813,0.35553,
-2.12402,0.357056,
-2.16522,0.401306,
-2.21252,0.447083,
-2.25525,0.404358,
-2.30103,0.352478,
-2.34833,0.357056,
-2.39105,0.39978,
-2.43683,0.448608,
-2.4826,0.416565,
-2.52838,0.350952,
-2.57111,0.358582,
-2.61841,0.396729,
-2.65961,0.448608,
-2.69928,0.419617,
-2.74506,0.349426,
-2.78168,0.354004,
-2.8244,0.39978,
-2.8595,0.462341,
-2.89764,0.422668,
-2.93884,0.366211,
-2.98157,0.369263,
-3.01514,0.39978,
-3.04718,0.43335,
-3.08075,0.419617,
-3.11432,0.350952,
-3.14636,0.361633,
-3.18298,0.396729,
-3.2135,0.450134,
-3.24097,0.422668,
-3.27148,0.350952,
-3.30505,0.360107,
-3.32794,0.39978,
-3.35693,0.453186,
-3.38287,0.422668,
-3.41187,0.354004,
-3.44086,0.366211,
-3.46069,0.395203,
-3.48511,0.447083,
-3.50494,0.42572,
-3.53241,0.352478,
-3.54919,0.361633,
-3.57056,0.401306,
-3.59497,0.45166,
-3.61633,0.42572,
-3.63159,0.354004,
-3.65448,0.361633,
-3.66821,0.393677,
-3.685,0.453186,
-3.69568,0.427246,
-3.71704,0.358582,
-3.73383,0.370789,
-3.75366,0.396729,
-3.76129,0.453186,
-3.77808,0.427246,
-3.79181,0.335693,
-3.80554,0.360107,
-3.82233,0.396729,
-3.84064,0.450134,
-3.85742,0.424194,
-3.87268,0.352478,
-3.89404,0.372314,
-3.9093,0.401306,
-3.92456,0.45166,
-3.93829,0.427246,
-3.95508,0.360107,
-3.97034,0.360107,
-3.99628,0.404358,
-4.01306,0.45166,
-4.03595,0.42572,
-4.05426,0.352478,
-4.0741,0.354004,
-4.09546,0.401306,
-4.10767,0.448608,
-4.12903,0.428772,
-4.14429,0.366211,
-4.17023,0.35553,
-4.19617,0.390625,
-4.22363,0.456238,
-4.24652,0.428772,
-4.26483,0.35553,
-4.28619,0.358582,
-4.30298,0.396729,
-4.30756,0.454712,
-4.3045,0.427246,
-4.28467,0.352478,
-4.25415,0.352478,
-4.19617,0.393677,
-4.11987,0.457764,
-4.02832,0.42572,
-3.91388,0.35553,
-3.78876,0.35553,
-3.64838,0.396729,
-3.49731,0.453186,
-3.3432,0.43335,
-3.17688,0.35553,
-3.00751,0.350952,
-2.84576,0.39978,
-2.67792,0.450134,
-2.5116,0.434875,
-2.34528,0.354004,
-2.18506,0.350952,
-2.03094,0.395203,
-1.87378,0.454712,
-1.72577,0.436401,
-1.58844,0.354004,
-1.44958,0.354004,
-1.32446,0.395203,
-1.20697,0.456238,
-1.09558,0.436401,
-0.991821,0.354004,
-0.898743,0.3479,
-0.810242,0.396729,
-0.735474,0.454712,
-0.668335,0.436401,
-0.610352,0.360107,
-0.553894,0.372314,
-0.512695,0.384521,
-0.483704,0.454712,
-0.45929,0.436401,
-0.440979,0.35553,
-0.436401,0.349426,
-0.434875,0.405884,
-0.436401,0.45929,
-0.442505,0.43335,
-0.460815,0.350952,
-0.486755,0.346375,
-0.518799,0.404358,
-0.546265,0.456238,
-0.587463,0.437927,
-0.630188,0.35553,
-0.675964,0.352478,
-0.730896,0.395203,
-0.784302,0.454712,
-0.839233,0.442505,
-0.891113,0.354004,
-0.953674,0.3479,
-1.01624,0.39978,
-1.08185,0.453186,
-1.14899,0.442505,
-1.2207,0.354004,
-1.29395,0.3479,
-1.37787,0.39978,
-1.46027,0.456238,
-1.54266,0.442505,
-1.62201,0.358582,
-1.70288,0.350952,
-1.78375,0.396729,
-1.8631,0.440979,
-1.93024,0.445557,
-2.00043,0.35553,
-2.06604,0.350952,
-2.12097,0.404358,
-2.1698,0.462341,
-2.21558,0.442505,
-2.24915,0.360107,
-2.27661,0.3479,
-2.29645,0.411987,
-2.31018,0.45929,
-2.31628,0.444031,
-2.31781,0.360107,
-2.31628,0.349426,
-2.30713,0.396729,
-2.29034,0.456238,
-2.27203,0.444031,
-2.24915,0.361633,
-2.22168,0.332642,
-2.19727,0.396729,
-2.16827,0.456238,
-2.13623,0.442505,
-2.10114,0.363159,
-2.06909,0.350952,
-2.03552,0.401306,
-2.00348,0.453186,
-1.97144,0.440979,
-1.93634,0.363159,
-1.90887,0.3479,
-1.87988,0.401306,
-1.85394,0.453186,
-1.82953,0.445557,
-1.81122,0.360107,
-1.78986,0.349426,
-1.77917,0.396729,
-1.76849,0.453186,
-1.76544,0.442505,
-1.76086,0.367737,
-1.76086,0.346375,
-1.75781,0.396729,
-1.76544,0.454712,
-1.76544,0.444031,
-1.7746,0.372314,
-1.78528,0.349426,
-1.79901,0.39978,
-1.81427,0.450134,
-1.83105,0.440979,
-1.84479,0.369263,
-1.86768,0.350952,
-1.89056,0.401306,
-1.9165,0.448608,
-1.94092,0.442505,
-1.97296,0.369263,
-2.00806,0.309753,
-2.04468,0.390625,
-2.0752,0.45166,
-2.11182,0.444031,
-2.14844,0.370789,
-2.18658,0.349426,
-2.22778,0.395203,
-2.26746,0.422668,
-2.30713,0.439453,
-2.34528,0.375366,
-2.38342,0.346375,
-2.4231,0.401306,
-2.46124,0.447083,
-2.50092,0.445557,
-2.54059,0.370789,
-2.58331,0.346375,
-2.62299,0.395203,
-2.65808,0.45166,
-2.69775,0.442505,
-2.73743,0.37384,
-2.77863,0.346375,
-2.82288,0.401306,
-2.86102,0.508118,
-2.89764,0.442505,
-2.93884,0.376892,
-2.97394,0.343323,
-3.01208,0.395203,
-3.05176,0.445557,
-3.08685,0.442505,
-3.1189,0.376892,
-3.14789,0.341797,
-3.17841,0.404358,
-3.2074,0.444031,
-3.23944,0.445557,
-3.26996,0.375366,
-3.29895,0.344849,
-3.33099,0.401306,
-3.35693,0.448608,
-3.38898,0.427246,
-3.41949,0.376892,
-3.44238,0.343323,
-3.4668,0.396729,
-3.49579,0.444031,
-3.51715,0.439453,
-3.53699,0.376892,
-3.56293,0.341797,
-3.58276,0.396729,
-3.59955,0.440979,
-3.61786,0.437927,
-3.63159,0.379944,
-3.6499,0.343323,
-3.66974,0.396729,
-3.68958,0.440979,
-3.70483,0.437927,
-3.71857,0.376892,
-3.73077,0.3479,
-3.75061,0.405884,
-3.76282,0.447083,
-3.78113,0.442505,
-3.79944,0.379944,
-3.81927,0.350952,
-3.83911,0.405884,
-3.862,0.450134,
-3.88031,0.436401,
-3.9032,0.378418,
-3.92609,0.338745,
-3.94897,0.402832,
-3.97034,0.440979,
-3.99017,0.440979,
-4.01306,0.384521,
-4.04053,0.340271,
-4.06647,0.396729,
-4.08936,0.440979,
-4.10919,0.437927,
-4.13361,0.38147,
-4.14886,0.340271,
-4.17328,0.395203,
-4.19006,0.437927,
-4.2099,0.437927,
-4.22516,0.384521,
-4.245,0.337219,
-4.25873,0.393677,
-4.26941,0.439453,
-4.27704,0.440979,
-4.27856,0.378418,
-4.27551,0.340271,
-4.25262,0.395203,
-4.22363,0.436401,
-4.1687,0.447083,
-4.10309,0.38147,
-4.01764,0.340271,
-3.91541,0.405884,
-3.79791,0.437927,
-3.67279,0.495911,
-3.53394,0.379944,
-3.39355,0.344849,
-3.24707,0.393677,
-3.08838,0.445557,
-2.93274,0.43335,
-2.771,0.392151,
-2.61993,0.358582,
-2.46124,0.358582,
-2.30713,0.424194,
-2.15607,0.439453,
-2.01111,0.387573,
-1.8692,0.344849,
-1.72729,0.390625,
-1.59454,0.431824,
-1.4679,0.418091,
-1.34583,0.384521,
-1.23596,0.32959,
-1.13983,0.393677,
