-4.11072,0.611877,
-4.10309,0.636292,
-4.08325,0.621033,
-4.04968,0.604248,
-4.00543,0.558472,
-3.94745,0.614929,
-3.86963,0.636292,
-3.78113,0.619507,
-3.685,0.604248,
-3.57208,0.563049,
-3.45154,0.610352,
-3.32184,0.642395,
-3.18604,0.624084,
-3.03802,0.602722,
-2.89154,0.558472,
-2.74048,0.611877,
-2.58789,0.634766,
-2.4353,0.624084,
-2.29034,0.608826,
-2.14691,0.553894,
-2.00043,0.679016,
-1.86157,0.611877,
-1.73035,0.619507,
-1.60065,0.605774,
-1.47705,0.563049,
-1.36108,0.614929,
-1.25122,0.640869,
-1.15204,0.59967,
-1.05743,0.6073,
-0.971985,0.563049,
-0.895691,0.616455,
-0.823975,0.627136,
-0.770569,0.624084,
-0.718689,0.604248,
-0.67749,0.563049,
-0.634766,0.614929,
-0.604248,0.636292,
-0.587463,0.621033,
-0.567627,0.601196,
-0.559998,0.561523,
-0.556946,0.611877,
-0.549316,0.634766,
-0.553894,0.621033,
-0.561523,0.604248,
-0.576782,0.566101,
-0.590515,0.611877,
-0.613403,0.63324,
-0.634766,0.619507,
-0.663757,0.59967,
-0.694275,0.563049,
-0.727844,0.611877,
-0.769043,0.634766,
-0.808716,0.619507,
-0.846863,0.59967,
-0.892639,0.553894,
-0.941467,0.610352,
-0.98877,0.636292,
-1.04218,0.622559,
-1.08795,0.601196,
-1.12915,0.561523,
-1.17645,0.601196,
-1.22681,0.634766,
-1.27563,0.604248,
-1.32446,0.605774,
-1.37024,0.566101,
-1.41907,0.608826,
-1.46942,0.634766,
-1.5152,0.624084,
-1.56403,0.602722,
-1.60828,0.561523,
-1.6571,0.610352,
-1.69983,0.634766,
-1.73492,0.619507,
-1.76849,0.602722,
-1.79443,0.561523,
-1.8158,0.616455,
-1.83258,0.631714,
-1.84479,0.617981,
-1.86157,0.601196,
-1.8692,0.561523,
-1.87836,0.610352,
-1.88293,0.636292,
-1.88446,0.621033,
-1.88141,0.604248,
-1.88141,0.566101,
-1.87225,0.608826,
-1.86615,0.636292,
-1.85394,0.62561,
-1.84784,0.604248,
-1.84021,0.52948,
-1.82953,0.582886,
-1.81732,0.637817,
-1.80664,0.622559,
-1.78986,0.605774,
-1.77765,0.566101,
-1.76392,0.610352,
-1.75171,0.602722,
-1.74408,0.624084,
-1.73492,0.590515,
-1.73035,0.566101,
-1.72119,0.602722,
-1.71661,0.639343,
-1.71051,0.624084,
-1.70746,0.602722,
-1.70135,0.569153,
-1.70441,0.611877,
-1.70135,0.63324,
-1.70593,0.619507,
-1.71204,0.6073,
-1.72119,0.561523,
-1.73645,0.614929,
-1.74866,0.643921,
-1.76239,0.624084,
-1.7746,0.588989,
-1.79138,0.561523,
-1.81274,0.59967,
-1.83258,0.631714,
-1.85394,0.619507,
-1.87683,0.59967,
-1.90277,0.563049,
-1.92719,0.610352,
-1.94244,0.63324,
-1.97144,0.621033,
-1.99585,0.588989,
-2.02332,0.563049,
-2.04926,0.608826,
-2.0752,0.643921,
-2.10876,0.622559,
-2.13318,0.595093,
-2.15912,0.567627,
-2.18964,0.611877,
-2.22015,0.640869,
-2.2522,0.6073,
-2.27966,0.616455,
-2.30865,0.527954,
-2.34222,0.585938,
-2.36969,0.637817,
-2.39716,0.624084,
-2.42462,0.605774,
-2.45514,0.569153,
-2.48413,0.6073,
-2.51465,0.601196,
-2.54669,0.624084,
-2.57568,0.602722,
-2.60315,0.563049,
-2.63214,0.610352,
-2.66418,0.63324,
-2.6947,0.614929,
-2.72675,0.563049,
-2.76031,0.569153,
-2.78778,0.605774,
-2.82135,0.627136,
-2.85187,0.621033,
-2.88086,0.602722,
-2.91443,0.567627,
-2.948,0.59967,
-2.97699,0.634766,
-3.00293,0.622559,
-3.0304,0.598145,
-3.05328,0.563049,
-3.0838,0.619507,
-3.10822,0.628662,
-3.13263,0.619507,
-3.15399,0.601196,
-3.17993,0.563049,
-3.20892,0.605774,
-3.23334,0.631714,
-3.25165,0.622559,
-3.27911,0.595093,
-3.302,0.563049,
-3.32184,0.598145,
-3.34473,0.628662,
-3.37067,0.621033,
-3.39661,0.590515,
-3.42255,0.566101,
-3.44543,0.59967,
-3.46985,0.634766,
-3.48969,0.627136,
-3.5202,0.595093,
-3.54462,0.561523,
-3.56445,0.604248,
-3.58582,0.624084,
-3.60718,0.627136,
-3.63312,0.59967,
-3.6499,0.566101,
-3.66974,0.582886,
-3.69263,0.631714,
-3.70941,0.624084,
-3.73077,0.59967,
-3.74603,0.567627,
-3.76282,0.593567,
-3.78113,0.645447,
-3.79333,0.624084,
-3.80554,0.662231,
-3.81012,0.544739,
-3.8147,0.6073,
-3.80707,0.63324,
-3.78876,0.63324,
-3.76282,0.593567,
-3.71857,0.566101,
-3.65753,0.587463,
-3.58429,0.582886,
-3.49426,0.622559,
-3.39355,0.601196,
-3.27911,0.566101,
-3.15857,0.605774,
-3.02124,0.627136,
-2.88086,0.621033,
-2.742,0.595093,
-2.59705,0.558472,
-2.43988,0.602722,
-2.28424,0.628662,
-2.13013,0.62561,
-1.97449,0.6073,
-1.8219,0.558472,
-1.66931,0.59967,
-1.52435,0.63324,
-1.38092,0.628662,
-1.24512,0.601196,
-1.11237,0.566101,
-0.98877,0.593567,
-0.875854,0.627136,
-0.764465,0.627136,
-0.662231,0.595093,
-0.569153,0.559998,
-0.4776,0.59967,
-0.401306,0.627136,
-0.328064,0.627136,
-0.262451,0.59967,
-0.204468,0.567627,
-0.160217,0.558472,
-0.120544,0.627136,
-0.0930786,0.628662,
-0.0717163,0.605774,
-0.0595093,0.567627,
-0.050354,0.595093,
-0.050354,0.628662,
-0.0579834,0.637817,
-0.0717163,0.598145,
-0.0900269,0.563049,
-0.115967,0.590515,
-0.141907,0.619507,
-0.178528,0.627136,
-0.205994,0.601196,
-0.248718,0.567627,
-0.288391,0.595093,
-0.335693,0.628662,
-0.386047,0.622559,
-0.439453,0.595093,
-0.489807,0.567627,
-0.547791,0.588989,
-0.608826,0.627136,
-0.671387,0.631714,
-0.732422,0.593567,
-0.802612,0.563049,
-0.871277,0.592041,
-0.93689,0.621033,
-1.0025,0.627136,
-1.06812,0.559998,
-1.12762,0.566101,
-1.19019,0.592041,
-1.24664,0.634766,
-1.3031,0.621033,
-1.35651,0.604248,
-1.41144,0.588989,
-1.45416,0.645447,
-1.49689,0.621033,
-1.53503,0.628662,
-1.56708,0.590515,
-1.5976,0.561523,
-1.62354,0.587463,
-1.64795,0.628662,
-1.66321,0.631714,
-1.67084,0.593567,
-1.68152,0.563049,
-1.68152,0.587463,
-1.6922,0.628662,
-1.69525,0.62561,
-1.69525,0.593567,
-1.69373,0.566101,
-1.68915,0.588989,
-1.68152,0.63324,
-1.67236,0.63324,
-1.66168,0.592041,
-1.64948,0.572205,
-1.64185,0.587463,
-1.63269,0.62561,
-1.61133,0.636292,
-1.59912,0.595093,
-1.58539,0.563049,
-1.57471,0.587463,
-1.56097,0.62561,
-1.54572,0.637817,
-1.53809,0.598145,
-1.5274,0.540161,
-1.52588,0.585938,
-1.51825,0.628662,
-1.51062,0.63324,
-1.51062,0.595093,
-1.51062,0.558472,
-1.51062,0.587463,
-1.5152,0.631714,
-1.5213,0.637817,
-1.52283,0.590515,
-1.53198,0.563049,
-1.54114,0.587463,
-1.55487,0.631714,
-1.5686,0.63324,
-1.58081,0.601196,
-1.59454,0.566101,
-1.60828,0.585938,
-1.62811,0.627136,
-1.64948,0.636292,
-1.67694,0.598145,
-1.6983,0.563049,
-1.72729,0.584412,
-1.74866,0.631714,
-1.77917,0.634766,
-1.80969,0.592041,
-1.83868,0.561523,
-1.86615,0.584412,
-1.89362,0.616455,
-1.92108,0.637817,
-1.94855,0.579834,
-1.97601,0.570679,
-2.00806,0.579834,
-2.03552,0.637817,
-2.06451,0.636292,
-2.09656,0.570679,
-2.13318,0.567627,
-2.17285,0.537109,
-2.20337,0.631714,
-2.23999,0.63324,
-2.27509,0.592041,
-2.31476,0.563049,
-2.35291,0.58136,
-2.39258,0.627136,
-2.43073,0.634766,
-2.46582,0.598145,
-2.49939,0.561523,
-2.53754,0.58136,
-2.57568,0.627136,
-2.60315,0.639343,
-2.63367,0.59967,
-2.66571,0.569153,
-2.69775,0.614929,
-2.7298,0.628662,
-2.75879,0.637817,
-2.78931,0.598145,
-2.8183,0.566101,
-2.84882,0.58136,
-2.87476,0.624084,
-2.9007,0.718689,
-2.92053,0.595093,
-2.95563,0.566101,
-2.98157,0.579834,
-3.00446,0.627136,
-3.02734,0.650024,
-3.05023,0.59967,
-3.07465,0.563049,
-3.09296,0.576782,
-3.11584,0.62561,
-3.13721,0.639343,
-3.15094,0.598145,
-3.16925,0.559998,
-3.18756,0.570679,
-3.21198,0.602722,
-3.23334,0.63324,
-3.25165,0.59967,
-3.27301,0.567627,
-3.2959,0.584412,
-3.31879,0.611877,
-3.3432,0.637817,
-3.37067,0.590515,
-3.3905,0.563049,
-3.41034,0.582886,
-3.4317,0.63324,
-3.45459,0.640869,
-3.47595,0.598145,
-3.49426,0.552368,
-3.51563,0.559998,
-3.53699,0.63324,
-3.5614,0.640869,
-3.58582,0.592041,
-3.6087,0.518799,
-3.63007,0.582886,
-3.65906,0.636292,
-3.68652,0.636292,
-3.71552,0.590515,
-3.73688,0.559998,
-3.75519,0.579834,
-3.7735,0.624084,
-3.79028,0.642395,
-3.79333,0.608826,
-3.80249,0.563049,
-3.79944,0.58136,
-3.79333,0.62561,
-3.77197,0.636292,
-3.73993,0.593567,
-3.68958,0.566101,
-3.63159,0.579834,
-3.55988,0.62561,
-3.46832,0.642395,
-3.36456,0.590515,
-3.25623,0.559998,
-3.13568,0.576782,
-3.00598,0.640869,
-2.87018,0.650024,
-2.7298,0.595093,
-2.58636,0.575256,
-2.43835,0.58136,
-2.29187,0.628662,
-2.13928,0.639343,
-1.98975,0.601196,
-1.83868,0.561523,
-1.6922,0.579834,
-1.54266,0.62561,
-1.39923,0.634766,
-1.26648,0.588989,
-1.13831,0.547791,
-1.01624,0.575256,
-0.901794,0.628662,
-0.793457,0.639343,
-0.691223,0.592041,
-0.605774,0.566101,
-0.523376,0.578308,
-0.454712,0.627136,
-0.389099,0.636292,
-0.328064,0.590515,
-0.285339,0.559998,
-0.247192,0.575256,
-0.212097,0.627136,
-0.190735,0.636292,
-0.170898,0.587463,
-0.161743,0.559998,
-0.161743,0.575256,
-0.158691,0.62561,
-0.169373,0.639343,
-0.184631,0.588989,
-0.205994,0.558472,
-0.231934,0.578308,
-0.262451,0.627136,
-0.296021,0.643921,
-0.331116,0.590515,
-0.370789,0.569153,
-0.411987,0.538635,
-0.454712,0.604248,
-0.500488,0.634766,
-0.553894,0.592041,
-0.610352,0.569153,
-0.665283,0.57373,
-0.721741,0.62561,
-0.78125,0.639343,
-0.843811,0.590515,
-0.91095,0.569153,
-0.979614,0.570679,
-1.0437,0.627136,
-1.10779,0.636292,
-1.17188,0.592041,
-1.23291,0.566101,
-1.29242,0.558472,
-1.3504,0.628662,
-1.40076,0.639343,
-1.45569,0.588989,
-1.50452,0.569153,
-1.55182,0.563049,
-1.58844,0.62561,
-1.62506,0.63324,
-1.65558,0.592041,
-1.68762,0.572205,
-1.70593,0.576782,
-1.72577,0.639343,
-1.73798,0.643921,
-1.75171,0.556946,
-1.76392,0.566101,
-1.76849,0.578308,
-1.77307,0.628662,
-1.77155,0.639343,
-1.76849,0.590515,
-1.75934,0.566101,
-1.75171,0.57373,
-1.74255,0.628662,
-1.73035,0.637817,
-1.71509,0.590515,
-1.70135,0.563049,
-1.67999,0.572205,
-1.66168,0.628662,
-1.64032,0.640869,
-1.62354,0.590515,
-1.60828,0.563049,
-1.59607,0.572205,
-1.57928,0.637817,
-1.56555,0.640869,
-1.5564,0.593567,
-1.54114,0.566101,
-1.53198,0.547791,
-1.5213,0.63324,
-1.50909,0.63324,
-1.50604,0.59967,
-1.49994,0.563049,
-1.50146,0.57373,
-1.50299,0.639343,
-1.50452,0.637817,
-1.5152,0.65918,
-1.52435,0.512695,
-1.53656,0.567627,
-1.55029,0.634766,
-1.56097,0.637817,
-1.57471,0.588989,
-1.59454,0.576782,
-1.61743,0.593567,
-1.63574,0.63324,
-1.65863,0.636292,
-1.68304,0.588989,
-1.70898,0.561523,
-1.7395,0.572205,
-1.76849,0.627136,
-1.79901,0.637817,
-1.82953,0.657654,
-1.86157,0.567627,
-1.89667,0.575256,
-1.92871,0.63324,
-1.9577,0.643921,
-1.98822,0.590515,
-2.01721,0.563049,
-2.04315,0.582886,
-2.0813,0.694275,
-2.11334,0.636292,
-2.14844,0.590515,
-2.18201,0.566101,
-2.22015,0.572205,
-2.25067,0.634766,
-2.28424,0.639343,
-2.31628,0.592041,
-2.34985,0.570679,
-2.38495,0.572205,
-2.41852,0.63324,
-2.45056,0.648499,
-2.48566,0.576782,
-2.52075,0.547791,
-2.55737,0.570679,
-2.58942,0.637817,
-2.61841,0.648499,
-2.65045,0.595093,
-2.67944,0.566101,
-2.71301,0.57373,
-2.74658,0.613403,
-2.78015,0.611877,
-2.81219,0.598145,
-2.84424,0.569153,
-2.8717,0.572205,
-2.90222,0.637817,
-2.92664,0.640869,
-2.95258,0.563049,
-2.98309,0.570679,
-3.00598,0.575256,
-3.03497,0.639343,
-3.05939,0.643921,
-3.08685,0.593567,
-3.11584,0.566101,
-3.14026,0.575256,
-3.1601,0.637817,
-3.17841,0.642395,
-3.20129,0.593567,
-3.22113,0.563049,
-3.24249,0.57373,
-3.26233,0.642395,
-3.28369,0.642395,
-3.30505,0.592041,
-3.32947,0.553894,
-3.35083,0.57373,
-3.36456,0.637817,
-3.3844,0.639343,
-3.40576,0.601196,
-3.42865,0.563049,
-3.44696,0.575256,
-3.46375,0.640869,
-3.48816,0.643921,
-3.50342,0.598145,
-3.52631,0.567627,
-3.54767,0.572205,
-3.56445,0.637817,
-3.59344,0.639343,
-3.61786,0.592041,
-3.63922,0.566101,
-3.66974,0.567627,
-3.69263,0.637817,
-3.71094,0.634766,
-3.73383,0.590515,
-3.75671,0.563049,
-3.77808,0.561523,
-3.79791,0.637817,
-3.81775,0.636292,
-3.83606,0.592041,
-3.85742,0.57373,
-3.87573,0.590515,
-3.89099,0.636292,
-3.89862,0.642395,
-3.89709,0.59967,
-3.88641,0.572205,
-3.862,0.547791,
-3.83148,0.645447,
-3.77808,0.62561,
-3.72009,0.598145,
-3.6438,0.567627,
-3.55835,0.57373,
-3.45306,0.636292,
-3.33405,0.627136,
-3.21045,0.590515,
-3.0777,0.556946,
-2.93732,0.569153,
-2.79236,0.637817,
-2.64282,0.642395,
-2.48871,0.592041,
-2.33917,0.570679,
-2.18658,0.57373,
-2.03552,0.637817,
-1.88446,0.642395,
-1.74103,0.593567,
-1.6037,0.567627,
-1.4679,0.570679,
-1.33667,0.637817,
-1.21002,0.642395,
-1.091,0.593567,
-0.98114,0.569153,
-0.878906,0.570679,
-0.793457,0.636292,
-0.708008,0.642395,
-0.636292,0.592041,
-0.567627,0.57373,
-0.511169,0.572205,
-0.45929,0.634766,
-0.418091,0.642395,
-0.384521,0.593567,
-0.354004,0.567627,
-0.337219,0.566101,
-0.323486,0.622559,
-0.317383,0.642395,
-0.323486,0.593567,
-0.331116,0.566101,
-0.338745,0.570679,
-0.350952,0.639343,
-0.37384,0.645447,
-0.39978,0.587463,
-0.430298,0.57373,
-0.463867,0.582886,
-0.50354,0.634766,
-0.544739,0.645447,
-0.588989,0.593567,
-0.637817,0.62561,
-0.686646,0.563049,
-0.740051,0.640869,
-0.790405,0.642395,
-0.846863,0.605774,
-0.906372,0.567627,
-0.968933,0.552368,
-1.02997,0.689697,
-1.09253,0.657654,
-1.15509,0.593567,
-1.21765,0.57373,
-1.28021,0.57373,
-1.3382,0.636292,
-1.39923,0.645447,
-1.45569,0.598145,
-1.51215,0.541687,
-1.56403,0.569153,
-1.61133,0.63324,
-1.6571,0.646973,
-1.6983,0.592041,
-1.7395,0.569153,
-1.77612,0.588989,
-1.80969,0.634766,
-1.84174,0.645447,
-1.8631,0.598145,
-1.88446,0.567627,
-1.89362,0.569153,
-1.9043,0.639343,
-1.90735,0.646973,
-1.90887,0.595093,
-1.90277,0.572205,
-1.90125,0.570679,
-1.89972,0.636292,
-1.88904,0.645447,
-1.88141,0.592041,
-1.87378,0.567627,
-1.86157,0.566101,
-1.85089,0.637817,
-1.84479,0.642395,
-1.83716,0.595093,
-1.828,0.578308,
-1.82037,0.578308,
-1.8158,0.622559,
-1.81122,0.642395,
-1.80206,0.593567,
-1.79291,0.561523,
-1.78375,0.572205,
-1.77765,0.634766,
-1.77155,0.645447,
-1.76544,0.59967,
-1.76239,0.569153,
-1.76086,0.570679,
-1.76086,0.622559,
-1.75476,0.648499,
-1.75018,0.592041,
-1.75171,0.572205,
-1.75476,0.570679,
-1.75781,0.637817,
-1.76239,0.643921,
-1.76849,0.595093,
-1.77917,0.570679,
-1.78986,0.57373,
-1.80511,0.634766,
-1.81885,0.643921,
-1.83258,0.593567,
-1.85242,0.572205,
-1.87073,0.572205,
-1.89056,0.636292,
-1.92108,0.646973,
-1.94855,0.598145,
-1.97449,0.567627,
-2.005,0.572205,
-2.02789,0.636292,
-2.05231,0.643921,
-2.07977,0.598145,
-2.10571,0.572205,
-2.13776,0.572205,
-2.1698,0.640869,
-2.20642,0.648499,
-2.23236,0.598145,
-2.27051,0.567627,
-2.30255,0.572205,
-2.33459,0.639343,
-2.36053,0.645447,
-2.39868,0.595093,
-2.43378,0.570679,
-2.4704,0.572205,
-2.50702,0.634766,
-2.53754,0.646973,
-2.57263,0.601196,
-2.6123,0.572205,
-2.64893,0.570679,
-2.68707,0.617981,
-2.72369,0.648499,
-2.76184,0.590515,
-2.79388,0.572205,
-2.82745,0.569153,
-2.8595,0.63324,
-2.89307,0.648499,
-2.92053,0.595093,
-2.95258,0.624084,
-2.98462,0.575256,
-3.01666,0.637817,
-3.04413,0.642395,
-3.07312,0.59967,
-3.10364,0.578308,
-3.13416,0.570679,
-3.1601,0.604248,
-3.18451,0.646973,
-3.21198,0.59967,
-3.23792,0.563049,
-3.26996,0.575256,
-3.302,0.621033,
-3.32947,0.648499,
-3.35388,0.601196,
-3.3844,0.593567,
-3.41034,0.569153,
-3.43628,0.637817,
-3.46069,0.646973,
-3.48511,0.584412,
-3.50952,0.570679,
-3.53546,0.575256,
-3.5553,0.637817,
-3.57208,0.645447,
-3.59955,0.601196,
-3.61786,0.567627,
-3.6377,0.570679,
-3.66058,0.637817,
-3.685,0.650024,
-3.70789,0.590515,
-3.72772,0.570679,
-3.75214,0.572205,
-3.7735,0.637817,
-3.79181,0.643921,
-3.81165,0.59967,
-3.83606,0.569153,
-3.85742,0.572205,
-3.87726,0.637817,
-3.89709,0.650024,
-3.91388,0.601196,
-3.93066,0.561523,
-3.9505,0.570679,
-3.97034,0.637817,
-3.98407,0.648499,
-3.99933,0.604248,
-4.01306,0.566101,
-4.02832,0.572205,
-4.04053,0.637817,
-4.04968,0.645447,
-4.06189,0.602722,
-4.07104,0.572205,
-4.0741,0.572205,
-4.06799,0.640869,
-4.04816,0.646973,
-4.01917,0.605774,
-3.97797,0.569153,
-3.93219,0.575256,
-3.862,0.637817,
-3.7796,0.650024,
-3.69263,0.587463,
-3.58582,0.559998,
-3.46832,0.569153,
-3.34625,0.637817,
-3.22113,0.646973,
-3.08075,0.602722,
-2.93579,0.566101,
-2.79388,0.569153,
-2.64435,0.634766,
-2.49481,0.675964,
-2.34528,0.6073,
-2.19727,0.569153,
-2.05688,0.572205,
-1.91193,0.643921,
-1.77917,0.645447,
-1.64337,0.592041,
-1.5213,0.569153,
-1.40381,0.575256,
-1.29547,0.636292,
-1.19476,0.650024,
-1.10168,0.602722,
-1.01776,0.569153,
-0.941467,0.569153,
-0.871277,0.624084,
-0.80719,0.650024,
-0.753784,0.598145,
-0.708008,0.563049,
-0.671387,0.570679,
-0.640869,0.640869,
-0.617981,0.65155,
-0.601196,0.602722,
-0.592041,0.628662,
-0.585938,0.570679,
-0.582886,0.636292,
-0.587463,0.648499,
-0.596619,0.6073,
-0.616455,0.567627,
-0.636292,0.572205,
-0.662231,0.639343,
-0.691223,0.646973,
-0.718689,0.604248,
-0.752258,0.572205,
-0.793457,0.570679,
-0.834656,0.640869,
-0.881958,0.654602,
-0.930786,0.605774,
-0.98114,0.62561,
-1.0376,0.570679,
-1.09406,0.640869,
-1.15509,0.648499,
-1.22375,0.604248,
-1.29089,0.570679,
-1.35956,0.572205,
-1.42822,0.640869,
-1.49994,0.648499,
-1.56403,0.579834,
-1.62506,0.567627,
-1.68304,0.57373,
-1.73798,0.640869,
-1.79291,0.65155,
-1.84174,0.602722,
-1.88293,0.569153,
-1.92108,0.576782,
-1.95618,0.639343,
-1.98517,0.645447,
-2.00958,0.601196,
-2.03705,0.567627,
-2.05078,0.57373,
-2.06146,0.640869,
-2.06757,0.650024,
-2.07367,0.604248,
-2.07367,0.569153,
-2.07214,0.569153,
-2.07062,0.639343,
-2.06757,0.650024,
-2.05688,0.605774,
-2.0462,0.567627,
-2.03247,0.572205,
-2.02332,0.637817,
-2.00348,0.610352,
-1.98517,0.604248,
-1.97144,0.578308,
-1.9516,0.570679,
-1.93176,0.636292,
-1.91803,0.662231,
-1.9043,0.621033,
-1.88599,0.544739,
-1.87378,0.575256,
-1.86005,0.637817,
-1.84784,0.657654,
-1.83716,0.602722,
-1.82495,0.567627,
-1.81427,0.569153,
-1.80664,0.653076,
-1.80206,0.65155,
-1.79749,0.605774,
-1.79291,0.567627,
-1.78986,0.576782,
-1.7868,0.642395,
-1.78528,0.65155,
-1.7868,0.604248,
-1.78986,0.552368,
-1.79596,0.572205,
-1.79901,0.636292,
-1.80969,0.65155,
-1.81885,0.604248,
-1.83105,0.569153,
-1.84479,0.570679,
-1.86005,0.636292,
-1.87531,0.636292,
-1.89667,0.595093,
-1.91345,0.567627,
-1.93176,0.57373,
-1.9455,0.639343,
-1.97144,0.650024,
-1.98669,0.6073,
-2.01111,0.55542,
-2.02637,0.585938,
-2.05383,0.640869,
-2.07825,0.650024,
-2.10571,0.604248,
-2.13318,0.569153,
-2.16217,0.572205,
-2.18658,0.653076,
-2.21405,0.65155,
-2.24762,0.65918,
-2.27814,0.579834,
-2.31171,0.569153,
-2.34222,0.637817,
-2.37122,0.65155,
-2.40173,0.605774,
-2.43225,0.570679,
-2.46277,0.563049,
-2.49176,0.688171,
-2.5238,0.616455,
-2.55432,0.604248,
-2.58179,0.566101,
-2.61688,0.575256,
-2.64893,0.634766,
-2.67639,0.648499,
-2.70386,0.6073,
-2.73743,0.617981,
-2.76794,0.57373,
-2.80304,0.639343,
-2.83203,0.646973,
-2.86407,0.604248,
-2.90222,0.563049,
-2.93274,0.572205,
-2.96326,0.639343,
-2.99835,0.650024,
-3.02734,0.608826,
-3.05328,0.566101,
-3.08075,0.575256,
-3.11127,0.640869,
-3.13721,0.650024,
-3.16162,0.604248,
-3.18909,0.566101,
-3.21503,0.575256,
-3.24249,0.640869,
-3.26843,0.648499,
-3.29285,0.6073,
-3.31879,0.567627,
-3.34015,0.585938,
-3.36761,0.643921,
-3.38898,0.65155,
-3.41187,0.605774,
-3.43323,0.556946,
-3.45459,0.640869,
-3.479,0.639343,
-3.49426,0.669861,
-3.51257,0.611877,
-3.52783,0.561523,
-3.54919,0.575256,
-3.56598,0.636292,
-3.58429,0.646973,
-3.59497,0.604248,
-3.61938,0.55542,
-3.63312,0.57373,
-3.64685,0.636292,
-3.66364,0.654602,
-3.67126,0.605774,
-3.67584,0.566101,
-3.67432,0.570679,
-3.66974,0.637817,
-3.65295,0.65155,
-3.63007,0.605774,
-3.59192,0.566101,
-3.54462,0.578308,
-3.48663,0.639343,
-3.41492,0.656128,
-3.32794,0.6073,
-3.22876,0.550842,
-3.12042,0.572205,
-3.00293,0.636292,
-2.86713,0.65155,
-2.73285,0.602722,
-2.58636,0.563049,
-2.43225,0.575256,
-2.28424,0.640869,
-2.13318,0.65155,
-1.97906,0.604248,
-1.828,0.563049,
-1.67999,0.569153,
-1.53503,0.637817,
-1.3855,0.650024,
-1.24817,0.604248,
-1.11542,0.566101,
-0.991821,0.57373,
-0.874329,0.637817,
-0.761414,0.65155,
-0.653076,0.604248,
-0.559998,0.566101,
-0.471497,0.576782,
-0.398254,0.636292,
-0.332642,0.646973,
-0.27771,0.605774,
-0.224304,0.567627,
-0.183105,0.57373,
-0.152588,0.636292,
-0.126648,0.653076,
-0.111389,0.585938,
-0.0976563,0.585938,
-0.0961304,0.572205,
-0.0961304,0.640869,
-0.108337,0.654602,
-0.123596,0.601196,
-0.141907,0.563049,
-0.167847,0.576782,
-0.198364,0.622559,
-0.228882,0.653076,
-0.263977,0.602722,
-0.300598,0.563049,
-0.337219,0.572205,
-0.38147,0.639343,
-0.424194,0.65155,
-0.476074,0.605774,
-0.531006,0.561523,
-0.588989,0.57373,
-0.643921,0.631714,
-0.697327,0.628662,
-0.75531,0.605774,
-0.817871,0.559998,
-0.87738,0.561523,
-0.942993,0.639343,
-1.00098,0.653076,
-1.06354,0.614929,
-1.1261,0.566101,
-1.18408,0.537109,
-1.24207,0.636292,
-1.29547,0.65155,
-1.3443,0.604248,
-1.39008,0.570679,
-1.4267,0.57373,
-1.46332,0.631714,
-1.49841,0.692749,
-1.53351,0.619507,
-1.5625,0.563049,
-1.58539,0.569153,
-1.60828,0.642395,
-1.62506,0.656128,
-1.63727,0.619507,
-1.64185,0.566101,
-1.65405,0.579834,
-1.65405,0.642395,
-1.65558,0.648499,
-1.64795,0.605774,
-1.64795,0.566101,
-1.64185,0.570679,
-1.62811,0.639343,
-1.61896,0.682068,
-1.61285,0.602722,
-1.60217,0.569153,
-1.59454,0.576782,
-1.57623,0.640869,
-1.5625,0.65155,
-1.54266,0.604248,
-1.53198,0.563049,
-1.51825,0.55542,
-1.49994,0.593567,
-1.48621,0.656128,
-1.474,0.605774,
-1.46942,0.572205,
-1.46027,0.579834,
-1.45569,0.640869,
-1.44653,0.650024,
-1.44043,0.605774,
-1.44043,0.570679,
-1.44196,0.575256,
-1.44653,0.645447,
-1.45569,0.646973,
-1.45721,0.604248,
-1.46484,0.563049,
-1.4801,0.561523,
-1.48926,0.642395,
-1.50452,0.653076,
-1.5213,0.608826,
-1.53961,0.558472,
-1.55792,0.584412,
-1.57928,0.637817,
-1.60522,0.653076,
-1.62354,0.602722,
-1.64642,0.558472,
-1.67389,0.57373,
-1.69983,0.640869,
-1.72882,0.650024,
-1.75781,0.6073,
-1.7807,0.559998,
-1.80664,0.575256,
-1.83258,0.640869,
-1.86005,0.653076,
-1.89056,0.605774,
-1.91498,0.566101,
-1.9455,0.549316,
-1.97449,0.640869,
-2.00195,0.654602,
-2.02789,0.6073,
-2.05841,0.563049,
-2.08893,0.575256,
-2.11487,0.639343,
-2.13776,0.648499,
-2.1637,0.605774,
-2.19116,0.563049,
-2.22321,0.57373,
-2.24609,0.639343,
-2.27203,0.65155,
-2.29797,0.6073,
-2.32239,0.561523,
-2.35596,0.576782,
-2.38342,0.639343,
-2.40479,0.653076,
-2.43835,0.605774,
-2.46429,0.566101,
-2.48871,0.572205,
-2.52228,0.642395,
-2.54974,0.648499,
-2.57568,0.595093,
-2.60162,0.563049,
-2.63367,0.575256,
-2.65808,0.640869,
-2.68097,0.660706,
-2.70691,0.610352,
-2.73132,0.566101,
-2.75574,0.587463,
-2.7832,0.636292,
-2.81219,0.653076,
-2.83966,0.608826,
-2.87018,0.569153,
-2.89459,0.576782,
-2.91595,0.639343,
-2.94037,0.650024,
-2.96173,0.604248,
-2.98157,0.561523,
-3.0014,0.576782,
-3.01971,0.654602,
-3.04108,0.657654,
-3.06244,0.6073,
-3.08075,0.566101,
-3.10059,0.576782,
-3.11432,0.640869,
-3.1311,0.650024,
-3.14636,0.604248,
-3.1662,0.566101,
-3.18298,0.57373,
-3.19977,0.637817,
-3.22418,0.65155,
-3.24707,0.608826,
-3.26996,0.563049,
-3.28827,0.566101,
-3.31116,0.639343,
-3.32794,0.646973,
-3.34778,0.608826,
-3.36304,0.563049,
-3.38287,0.576782,
-3.39508,0.640869,
-3.40576,0.656128,
-3.41187,0.605774,
-3.41644,0.563049,
-3.41492,0.575256,
-3.40729,0.637817,
-3.38898,0.653076,
-3.36151,0.608826,
-3.32336,0.566101,
-3.27606,0.587463,
-3.21045,0.634766,
-3.1311,0.65918,
-3.03497,0.605774,
-2.92511,0.561523,
-2.80304,0.57373,
-2.67029,0.640869,
-2.52838,0.640869,
-2.38342,0.59967,
-2.22473,0.561523,
-2.06146,0.576782,
-1.89972,0.637817,
-1.72882,0.65155,
-1.56555,0.6073,
-1.40686,0.561523,
-1.24817,0.567627,
-1.09711,0.639343,
-0.949097,0.654602,
-0.80719,0.602722,
-0.668335,0.559998,
-0.538635,0.575256,
-0.418091,0.642395,
-0.30365,0.648499,
-0.198364,0.602722,
-0.106812,0.563049,
-0.0259399,0.578308,
0.0473022,0.636292,
0.115967,0.65155,
0.172424,0.605774,
0.218201,0.559998,
0.250244,0.57373,
0.280762,0.637817,
0.300598,0.650024,
0.318909,0.605774,
0.325012,0.559998,
0.328064,0.57373,
0.325012,0.639343,
0.309753,0.668335,
0.289917,0.563049,
0.267029,0.567627,
0.238037,0.575256,
0.210571,0.639343,
0.180054,0.65155,
0.144958,0.604248,
0.106812,0.561523,
0.062561,0.578308,
0.0213623,0.634766,
-0.0167847,0.654602,
-0.0579834,0.613403,
-0.105286,0.567627,
-0.154114,0.570679,
-0.204468,0.640869,
-0.257874,0.653076,
-0.314331,0.611877,
-0.366211,0.561523,
-0.419617,0.57373,
-0.471497,0.636292,
-0.526428,0.65155,
-0.57373,0.611877,
-0.622559,0.561523,
-0.663757,0.570679,
-0.708008,0.640869,
-0.747681,0.65155,
-0.796509,0.601196,
-0.836182,0.563049,
-0.875854,0.575256,
-0.912476,0.622559,
-0.941467,0.654602,
-0.973511,0.604248,
-0.996399,0.559998,
-1.02539,0.57373,
-1.04218,0.639343,
-1.05743,0.653076,
-1.07422,0.602722,
-1.08337,0.561523,
-1.08948,0.57373,
-1.091,0.637817,
-1.09406,0.653076,
-1.09406,0.6073,
-1.091,0.559998,
-1.0849,0.57373,
-1.08337,0.645447,
-1.07269,0.650024,
-1.06354,0.601196,
-1.05133,0.563049,
-1.04065,0.576782,
-1.03302,0.639343,
-1.01929,0.653076,
-1.01013,0.604248,
-1.00098,0.558472,
-0.987244,0.567627,
-0.976563,0.631714,
-0.967407,0.650024,
-0.959778,0.642395,
-0.949097,0.561523,
-0.942993,0.576782,
-0.941467,0.637817,
-0.93689,0.645447,
-0.939941,0.611877,
-0.939941,0.567627,
-0.946045,0.575256,
-0.953674,0.639343,
-0.958252,0.65155,
-0.971985,0.608826,
-0.98114,0.558472,
-0.993347,0.576782,
-1.00403,0.636292,
-1.01471,0.657654,
-1.02997,0.605774,
-1.0498,0.559998,
-1.06812,0.582886,
-1.08185,0.636292,
-1.10474,0.653076,
-1.1261,0.602722,
-1.14899,0.559998,
-1.17493,0.578308,
-1.19476,0.637817,
-1.21765,0.656128,
-1.24664,0.605774,
-1.27869,0.561523,
-1.31073,0.578308,
-1.34277,0.636292,
-1.37329,0.65155,
-1.40381,0.587463,
-1.43738,0.566101,
-1.47247,0.576782,
-1.50146,0.639343,
-1.53961,0.65155,
-1.57318,0.604248,
-1.61133,0.561523,
-1.64948,0.575256,
-1.68762,0.634766,
-1.72119,0.656128,
-1.75934,0.602722,
-1.79749,0.559998,
-1.83716,0.57373,
-1.87378,0.637817,
-1.91193,0.656128,
-1.94702,0.604248,
-1.98517,0.563049,
-2.02332,0.57373,
-2.05994,0.634766,
-2.09351,0.656128,
-2.1286,0.604248,
-2.16522,0.561523,
-2.19879,0.572205,
-2.23389,0.634766,
-2.26746,0.650024,
-2.29797,0.604248,
-2.32697,0.559998,
-2.36664,0.578308,
-2.39716,0.636292,
-2.42767,0.648499,
-2.45972,0.605774,
-2.48871,0.567627,
-2.5177,0.575256,
-2.54059,0.637817,
-2.56958,0.650024,
-2.59399,0.604248,
-2.62146,0.546265,
-2.64587,0.58136,
-2.66571,0.636292,
-2.69165,0.656128,
-2.72064,0.6073,
-2.74048,0.558472,
-2.76642,0.576782,
-2.79236,0.62561,
-2.81372,0.653076,
-2.83661,0.593567,
-2.86102,0.617981,
-2.88544,0.576782,
-2.90833,0.636292,
-2.93274,0.65155,
-2.95563,0.610352,
-2.98004,0.561523,
-2.99988,0.575256,
-3.02734,0.637817,
-3.04871,0.654602,
-3.07159,0.602722,
-3.09296,0.57373,
-3.11432,0.576782,
-3.13568,0.634766,
-3.15094,0.65155,
-3.17078,0.601196,
-3.18604,0.561523,
-3.2074,0.57373,
-3.22723,0.639343,
-3.24402,0.653076,
-3.26385,0.6073,
-3.28979,0.559998,
-3.31268,0.57373,
-3.33405,0.639343,
-3.35846,0.65155,
-3.37982,0.614929,
-3.40118,0.566101,
-3.41797,0.578308,
-3.43475,0.634766,
-3.45001,0.654602,
-3.46069,0.605774,
-3.46527,0.553894,
-3.46222,0.578308,
-3.44849,0.63324,
-3.41949,0.648499,
-3.3783,0.605774,
-3.32031,0.547791,
-3.2486,0.576782,
-3.16162,0.636292,
-3.06396,0.650024,
-2.94952,0.604248,
-2.82593,0.561523,
-2.69012,0.578308,
-2.54364,0.636292,
-2.40021,0.65155,
-2.25067,0.601196,
-2.09198,0.566101,
-1.93787,0.584412,
-1.77307,0.636292,
-1.61743,0.654602,
-1.46027,0.601196,
-1.31073,0.57373,
-1.16272,0.58136,
-1.01929,0.637817,
-0.880432,0.654602,
-0.753784,0.602722,
-0.63324,0.561523,
-0.520325,0.575256,
-0.416565,0.636292,
-0.325012,0.65155,
-0.236511,0.602722,
-0.158691,0.544739,
-0.0930786,0.575256,
-0.0366211,0.63324,
0.0137329,0.656128,
0.0564575,0.601196,
0.0854492,0.567627,
0.111389,0.575256,
0.128174,0.634766,
0.143433,0.65155,
0.146484,0.601196,
0.140381,0.559998,
0.134277,0.57373,
0.12207,0.634766,
0.105286,0.654602,
0.0823975,0.602722,
0.0534058,0.561523,
0.0198364,0.578308,
-0.0183105,0.631714,
-0.0549316,0.653076,
-0.0976563,0.604248,
-0.143433,0.563049,
-0.189209,0.570679,
-0.234985,0.634766,
-0.283813,0.654602,
-0.334167,0.601196,
-0.393677,0.55542,
-0.444031,0.572205,
-0.502014,0.636292,
-0.558472,0.654602,
-0.621033,0.59967,
-0.679016,0.566101,
-0.740051,0.605774,
-0.799561,0.627136,
-0.856018,0.653076,
-0.915527,0.602722,
-0.970459,0.559998,
-1.02386,0.575256,
-1.07269,0.628662,
-1.12152,0.657654,
-1.16425,0.614929,
-1.20544,0.570679,
-1.24207,0.576782,
-1.27716,0.63324,
-1.30463,0.65155,
-1.32904,0.598145,
-1.35345,0.559998,
-1.37177,0.563049,
-1.39008,0.646973,
-1.40839,0.654602,
-1.42212,0.601196,
-1.4328,0.559998,
-1.4389,0.576782,
-1.44348,0.636292,
-1.44958,0.653076,
-1.44806,0.601196,
-1.44348,0.563049,
-1.44348,0.57373,
-1.4389,0.631714,
-1.43127,0.654602,
-1.4267,0.604248,
-1.41754,0.563049,
-1.41449,0.579834,
-1.39618,0.627136,
-1.3916,0.654602,
-1.38397,0.59967,
-1.37939,0.563049,
-1.37482,0.593567,
-1.37177,0.63324,
-1.36414,0.656128,
-1.36261,0.602722,
-1.36414,0.558472,
-1.36566,0.578308,
-1.37024,0.63324,
-1.37787,0.65155,
-1.38855,0.598145,
-1.40076,0.559998,
-1.41602,0.624084,
-1.42975,0.636292,
-1.44348,0.65155,
-1.45874,0.601196,
-1.48163,0.563049,
-1.49841,0.559998,
-1.51672,0.628662,
-1.53351,0.654602,
-1.55487,0.593567,
-1.57013,0.558472,
-1.58691,0.578308,
-1.60217,0.631714,
-1.61896,0.660706,
-1.64032,0.6073,
-1.66168,0.559998,
-1.68304,0.578308,
-1.70135,0.628662,
-1.72577,0.654602,
-1.75171,0.601196,
-1.78223,0.566101,
-1.81274,0.575256,
-1.84021,0.627136,
-1.8692,0.65155,
-1.89362,0.59967,
-1.92261,0.566101,
-1.9516,0.578308,
-1.97754,0.63324,
-2.00348,0.650024,
-2.034,0.598145,
-2.06451,0.561523,
-2.09351,0.576782,
-2.11945,0.631714,
-2.14691,0.643921,
-2.17743,0.558472,
-2.2049,0.546265,
-2.23389,0.584412,
-2.26288,0.631714,
-2.28577,0.656128,
-2.31018,0.598145,
-2.33612,0.559998,
-2.36359,0.576782,
-2.38953,0.653076,
-2.41547,0.650024,
-2.44293,0.6073,
-2.46887,0.556946,
-2.49023,0.582886,
-2.5177,0.62561,
-2.54059,0.643921,
-2.56805,0.601196,
-2.59552,0.561523,
-2.62299,0.585938,
-2.6535,0.63324,
-2.68097,0.648499,
-2.70996,0.598145,
-2.742,0.556946,
-2.77557,0.576782,
-2.81067,0.686646,
-2.84424,0.642395,
-2.87628,0.59967,
-2.91443,0.552368,
-2.95868,0.579834,
-2.99683,0.640869,
-3.03345,0.653076,
-3.07465,0.587463,
-3.11584,0.561523,
-3.16162,0.576782,
-3.20129,0.63324,
-3.24097,0.65155,
-3.28064,0.598145,
-3.32184,0.566101,
-3.35846,0.584412,
-3.39813,0.628662,
-3.44086,0.650024,
-3.48053,0.59967,
-3.51563,0.559998,
-3.55377,0.584412,
-3.58734,0.631714,
-3.62549,0.653076,
-3.66058,0.601196,
-3.69415,0.59967,
-3.72925,0.579834,
-3.75824,0.628662,
-3.78876,0.65155,
-3.81165,0.593567,
-3.84064,0.561523,
-3.8681,0.590515,
-3.89557,0.62561,
-3.91693,0.662231,
-3.94592,0.59967,
-3.96729,0.566101,
-3.99017,0.587463,
-4.00391,0.637817,
-4.01154,0.650024,
-4.01306,0.653076,
-4.00391,0.547791,
-3.98712,0.579834,
-3.95508,0.63324,
-3.90167,0.65155,
-3.83759,0.602722,
-3.75366,0.567627,
-3.64838,0.587463,
-3.53088,0.631714,
-3.39355,0.646973,
-3.25012,0.59967,
-3.08838,0.559998,
-2.91595,0.584412,
-2.73132,0.631714,
-2.53601,0.660706,
-2.34375,0.598145,
-2.14539,0.558472,
-1.94244,0.58136,
-1.74103,0.622559,
-1.53503,0.648499,
-1.33667,0.602722,
-1.13678,0.543213,
-0.944519,0.588989,
-0.753784,0.627136,
-0.569153,0.648499,
-0.395203,0.593567,
-0.227356,0.55542,
-0.0747681,0.582886,
0.0808716,0.608826,
0.218201,0.654602,
0.349426,0.595093,
0.466919,0.559998,
0.572205,0.584412,
0.668335,0.631714,
0.758362,0.648499,
0.836182,0.595093,
0.907898,0.559998,
0.967407,0.584412,
1.01166,0.628662,
1.0498,0.645447,
1.08032,0.593567,
1.10168,0.559998,
1.11237,0.582886,
1.11847,0.627136,
1.11542,0.648499,
1.10474,0.595093,
1.08795,0.558472,
1.07574,0.582886,
1.04523,0.62561,
1.01624,0.654602,
0.978088,0.602722,
0.946045,0.559998,
0.906372,0.584412,
0.869751,0.622559,
0.830078,0.653076,
0.78125,0.598145,
0.730896,0.556946,
0.679016,0.592041,
0.624084,0.636292,
0.575256,0.656128,
0.517273,0.59967,
0.460815,0.561523,
0.39978,0.585938,
0.344849,0.640869,
0.292969,0.654602,
0.241089,0.59967,
0.183105,0.559998,
0.131226,0.584412,
0.0808716,0.628662,
0.0320435,0.650024,
-0.0106812,0.598145,
-0.050354,0.563049,
-0.0915527,0.584412,
-0.128174,0.62561,
-0.157166,0.65155,
-0.183105,0.595093,
-0.212097,0.561523,
-0.231934,0.587463,
-0.247192,0.627136,
-0.263977,0.648499,
-0.273132,0.593567,
-0.283813,0.558472,
-0.289917,0.584412,
-0.288391,0.628662,
-0.283813,0.648499,
-0.280762,0.595093,
-0.265503,0.556946,
-0.25177,0.590515,
-0.233459,0.62561,
-0.213623,0.650024,
-0.184631,0.595093,
-0.160217,0.552368,
-0.128174,0.588989,
-0.0991821,0.628662,
-0.0717163,0.643921,
-0.0411987,0.593567,
-0.012207,0.561523,
0.0152588,0.587463,
0.0457764,0.627136,
0.0671387,0.650024,
0.0930786,0.593567,
0.115967,0.569153,
0.141907,0.590515,
0.160217,0.636292,
0.183105,0.672913,
0.195313,0.593567,
0.212097,0.558472,
0.222778,0.585938,
0.233459,0.627136,
0.241089,0.63324,
0.244141,0.593567,
0.242615,0.558472,
0.241089,0.590515,
0.242615,0.627136,
0.242615,0.643921,
0.238037,0.598145,
0.231934,0.559998,
0.213623,0.592041,
0.192261,0.628662,
0.17395,0.646973,
0.151062,0.592041,
0.132751,0.556946,
0.106812,0.592041,
0.0839233,0.624084,
0.0595093,0.645447,
0.0305176,0.593567,
0.00152588,0.558472,
-0.0274658,0.590515,
-0.0564575,0.627136,
-0.0915527,0.643921,
-0.117493,0.598145,
-0.144958,0.561523,
-0.178528,0.590515,
-0.204468,0.62561,
-0.234985,0.645447,
-0.260925,0.592041,
-0.288391,0.561523,
-0.312805,0.588989,
-0.340271,0.627136,
-0.37384,0.648499,
-0.40741,0.593567,
-0.439453,0.561523,
-0.469971,0.590515,
-0.497437,0.62561,
-0.524902,0.645447,
-0.556946,0.595093,
-0.593567,0.556946,
-0.627136,0.590515,
-0.653076,0.628662,
-0.680542,0.642395,
-0.71106,0.592041,
-0.746155,0.559998,
-0.778198,0.592041,
-0.813293,0.628662,
-0.842285,0.642395,
-0.87738,0.595093,
-0.907898,0.553894,
-0.941467,0.593567,
-0.975037,0.631714,
-1.00555,0.648499,
-1.03455,0.595093,
-1.06354,0.57373,
-1.091,0.590515,
-1.11694,0.634766,
-1.15051,0.634766,
-1.1795,0.592041,
-1.2085,0.532532,
-1.23596,0.57373,
-1.26495,0.627136,
-1.29852,0.650024,
-1.32446,0.588989,
-1.36108,0.566101,
-1.3916,0.57373,
-1.42517,0.582886,
-1.45569,0.640869,
-1.48163,0.593567,
-1.51215,0.553894,
-1.54419,0.587463,
-1.57471,0.628662,
-1.60065,0.640869,
-1.62964,0.569153,
-1.6571,0.526428,
-1.68304,0.588989,
-1.71051,0.628662,
-1.73492,0.643921,
-1.76086,0.593567,
-1.78375,0.553894,
-1.80054,0.584412,
-1.80664,0.628662,
-1.80817,0.653076,
-1.80054,0.592041,
-1.77917,0.556946,
-1.74408,0.588989,
-1.69373,0.628662,
-1.62964,0.642395,
-1.55334,0.588989,
-1.46179,0.558472,
-1.36414,0.587463,
-1.24817,0.631714,
-1.12,0.640869,
-0.98877,0.592041,
-0.848389,0.57373,
-0.706482,0.595093,
-0.559998,0.628662,
-0.408936,0.642395,
-0.259399,0.590515,
-0.105286,0.563049,
0.0442505,0.585938,
0.189209,0.63324,
0.332642,0.646973,
0.476074,0.592041,
0.6073,0.561523,
0.738525,0.588989,
0.860596,0.628662,
0.975037,0.628662,
1.08185,0.602722,
1.18408,0.558472,
1.27563,0.584412,
1.35803,0.628662,
1.4328,0.650024,
1.49384,0.595093,
1.54419,0.556946,
1.59149,0.588989,
1.62506,0.631714,
1.651,0.622559,
1.66626,0.588989,
1.67999,0.556946,
1.68152,0.601196,
1.67694,0.636292,
1.66473,0.642395,
1.64642,0.590515,
1.62964,0.558472,
1.6037,0.578308,
1.57776,0.590515,
1.54114,0.624084,
1.50757,0.6073,
1.4679,0.569153,
1.42517,0.593567,
1.38397,0.62561,
1.33667,0.646973,
1.28632,0.601196,
1.23596,0.520325,
1.18408,0.572205,
1.13068,0.639343,
1.07422,0.643921,
1.01624,0.593567,
0.9552,0.553894,
0.895691,0.592041,
0.836182,0.587463,
0.779724,0.643921,
0.718689,0.592041,
0.666809,0.543213,
0.608826,0.592041,
0.558472,0.628662,
0.506592,0.642395,
0.456238,0.637817,
0.410461,0.556946,
0.363159,0.592041,
0.32196,0.62561,
0.280762,0.646973,
0.248718,0.588989,
0.219727,0.552368,
0.196838,0.587463,
0.18158,0.627136,
0.17395,0.643921,
0.166321,0.592041,
0.163269,0.55542,
0.160217,0.588989,
0.160217,0.627136,
0.167847,0.642395,
0.172424,0.587463,
0.180054,0.55542,
0.184631,0.593567,
0.195313,0.627136,
0.204468,0.639343,
0.218201,0.590515,
0.227356,0.556946,
0.231934,0.587463,
0.245667,0.627136,
0.25177,0.643921,
0.259399,0.593567,
0.268555,0.55542,
0.27771,0.592041,
0.288391,0.624084,
0.300598,0.636292,
0.30365,0.595093,
0.311279,0.559998,
0.312805,0.595093,
0.315857,0.624084,
0.312805,0.656128,
0.305176,0.59967,
0.302124,0.553894,
0.299072,0.595093,
0.289917,0.631714,
0.276184,0.637817,
0.265503,0.588989,
0.250244,0.567627,
0.231934,0.592041,
0.216675,0.627136,
0.190735,0.640869,
0.166321,0.57373,
0.151062,0.553894,
0.128174,0.592041,
0.108337,0.602722,
0.0823975,0.642395,
0.0595093,0.592041,
0.0320435,0.552368,
0.00305176,0.588989,
-0.0198364,0.627136,
-0.050354,0.636292,
-0.0854492,0.593567,
-0.115967,0.550842,
-0.15564,0.593567,
-0.195313,0.628662,
-0.238037,0.637817,
-0.274658,0.588989,
-0.314331,0.552368,
-0.358582,0.590515,
-0.398254,0.62561,
-0.439453,0.640869,
-0.485229,0.592041,
-0.531006,0.556946,
-0.58136,0.590515,
-0.631714,0.624084,
-0.679016,0.636292,
-0.72937,0.592041,
-0.778198,0.558472,
-0.828552,0.592041,
-0.878906,0.62561,
-0.927734,0.637817,
-0.975037,0.592041,
-1.02234,0.55542,
-1.07574,0.593567,
-1.12762,0.614929,
-1.17798,0.636292,
-1.22833,0.592041,
-1.28326,0.553894,
-1.33514,0.608826,
-1.39008,0.628662,
-1.44043,0.639343,
-1.49384,0.588989,
-1.54877,0.556946,
-1.59912,0.598145,
-1.64795,0.62561,
-1.68762,0.636292,
-1.73187,0.590515,
-1.77765,0.553894,
-1.82037,0.598145,
-1.85394,0.628662,
-1.89514,0.637817,
-1.93176,0.592041,
-1.96533,0.553894,
-2.00348,0.601196,
-2.0401,0.631714,
-2.07214,0.636292,
-2.10724,0.587463,
-2.14233,0.550842,
-2.17743,0.601196,
-2.20947,0.646973,
-2.24304,0.636292,
-2.27051,0.590515,
-2.30103,0.549316,
-2.33002,0.601196,
-2.36053,0.628662,
-2.388,0.63324,
-2.41547,0.588989,
-2.43988,0.553894,
-2.46582,0.601196,
-2.49176,0.63324,
-2.5177,0.634766,
-2.5528,0.588989,
-2.58026,0.566101,
-2.60315,0.602722,
-2.62451,0.639343,
-2.64893,0.634766,
-2.67334,0.588989,
-2.69165,0.550842,
-2.71149,0.592041,
-2.7298,0.631714,
-2.73743,0.636292,
-2.73895,0.590515,
-2.73895,0.552368,
-2.72675,0.601196,
-2.70233,0.634766,
-2.66571,0.636292,
-2.61993,0.595093,
-2.5589,0.55542,
-2.48413,0.582886,
-2.39716,0.628662,
-2.30255,0.639343,
-2.19727,0.588989,
-2.08435,0.563049,
-1.96838,0.601196,
-1.85089,0.634766,
-1.72424,0.636292,
-1.59454,0.587463,
-1.46179,0.553894,
-1.33209,0.604248,
-1.19781,0.634766,
-1.06964,0.636292,
-0.93689,0.590515,
-0.813293,0.55542,
-0.695801,0.595093,
-0.587463,0.637817,
-0.476074,0.637817,
-0.38147,0.593567,
-0.291443,0.549316,
-0.213623,0.602722,
-0.135803,0.637817,
-0.0671387,0.640869,
-0.012207,0.590515,
0.0427246,0.547791,
0.0854492,0.59967,
0.12207,0.643921,
0.154114,0.648499,
0.177002,0.593567,
0.190735,0.55542,
0.195313,0.59967,
0.195313,0.636292,
0.189209,0.640869,
0.178528,0.584412,
0.167847,0.549316,
0.151062,0.601196,
0.132751,0.634766,
0.115967,0.639343,
0.0961304,0.593567,
0.0671387,0.550842,
0.0411987,0.592041,
0.00762939,0.636292,
-0.0320435,0.608826,
-0.0762939,0.588989,
-0.12207,0.547791,
-0.17395,0.604248,
-0.221252,0.643921,
-0.273132,0.645447,
-0.332642,0.622559,
-0.390625,0.509644,
-0.454712,0.59967,
-0.520325,0.631714,
-0.588989,0.642395,
-0.657654,0.590515,
-0.718689,0.550842,
-0.785828,0.602722,
-0.846863,0.640869,
-0.90332,0.675964,
-0.958252,0.59967,
-1.01318,0.535583,
-1.07117,0.595093,
-1.11542,0.634766,
-1.15967,0.619507,
-1.20544,0.598145,
-1.24054,0.549316,
-1.27869,0.59967,
-1.29852,0.637817,
-1.32294,0.639343,
-1.34583,0.593567,
-1.35193,0.553894,
-1.36719,0.598145,
-1.37787,0.639343,
-1.38702,0.639343,
-1.38855,0.598145,
-1.38855,0.552368,
-1.38855,0.59967,
-1.38855,0.637817,
-1.38092,0.640869,
-1.37329,0.598145,
-1.36719,0.550842,
-1.36108,0.598145,
-1.35193,0.636292,
-1.33972,0.643921,
-1.33514,0.585938,
-1.32904,0.546265,
-1.32446,0.59967,
-1.32446,0.636292,
-1.32446,0.639343,
-1.32599,0.598145,
-1.32141,0.556946,
-1.32599,0.59967,
-1.32751,0.637817,
-1.33362,0.642395,
-1.33972,0.602722,
-1.34735,0.552368,
-1.35498,0.595093,
-1.36871,0.639343,
-1.37939,0.642395,
-1.39008,0.593567,
-1.40381,0.549316,
-1.42212,0.598145,
-1.44196,0.636292,
-1.46332,0.640869,
-1.48315,0.598145,
-1.50604,0.549316,
-1.53809,0.59967,
-1.5625,0.636292,
-1.58844,0.642395,
-1.61133,0.59967,
-1.64642,0.511169,
-1.67847,0.598145,
-1.71356,0.648499,
-1.74561,0.637817,
-1.78528,0.601196,
-1.82495,0.552368,
-1.8631,0.588989,
-1.90125,0.639343,
-1.94244,0.610352,
-1.98669,0.602722,
-2.03705,0.550842,
-2.08435,0.59967,
-2.13013,0.639343,
-2.17743,0.640869,
-2.22321,0.592041,
-2.26746,0.569153,
-2.31323,0.590515,
-2.36359,0.639343,
-2.40631,0.642395,
-2.45514,0.598145,
-2.49939,0.547791,
-2.54669,0.59967,
-2.58942,0.636292,
-2.63519,0.640869,
-2.68555,0.598145,
-2.72675,0.550842,
-2.76947,0.601196,
-2.81219,0.640869,
-2.85034,0.642395,
-2.89459,0.601196,
-2.92969,0.549316,
-2.97394,0.57373,
-3.01514,0.642395,
-3.05176,0.640869,
-3.08838,0.601196,
-3.13263,0.547791,
-3.17383,0.598145,
-3.20587,0.643921,
-3.24097,0.68512,
-3.27148,0.601196,
-3.30505,0.544739,
-3.33862,0.601196,
-3.36761,0.640869,
-3.39966,0.646973,
-3.4317,0.598145,
-3.45764,0.549316,
-3.48663,0.59967,
-3.52173,0.601196,
-3.55072,0.637817,
-3.57971,0.601196,
-3.6087,0.550842,
-3.63617,0.598145,
-3.66211,0.639343,
-3.685,0.643921,
-3.70483,0.601196,
-3.7262,0.55542,
-3.74451,0.598145,
-3.75977,0.645447,
-3.77808,0.640869,
-3.79639,0.59967,
-3.81317,0.553894,
-3.83453,0.59967,
-3.8559,0.643921,
-3.88031,0.640869,
-3.90472,0.598145,
-3.93066,0.55542,
-3.95508,0.601196,
-3.98407,0.639343,
-4.00696,0.642395,
-4.03748,0.598145,
-4.06952,0.550842,
-4.10309,0.598145,
-4.13208,0.645447,
-4.15955,0.642395,
-4.19159,0.601196,
-4.216,0.550842,
-4.24194,0.598145,
-4.26483,0.642395,
-4.28467,0.639343,
-4.30145,0.59967,
-4.31213,0.549316,
-4.31366,0.602722,
-4.31366,0.646973,
-4.30145,0.642395,
-4.28009,0.598145,
-4.2572,0.550842,
-4.21753,0.59967,
-4.17786,0.643921,
-4.12903,0.650024,
-4.06799,0.602722,
-4.00543,0.547791,
-3.94135,0.598145,
-3.87115,0.645447,
-3.79791,0.643921,
-3.72162,0.590515,
-3.63922,0.619507,
-3.55835,0.59967,
-3.47443,0.646973,
-3.3905,0.642395,
-3.30811,0.601196,
-3.23029,0.540161,
-3.15399,0.598145,
-3.08075,0.648499,
-3.01514,0.637817,
-2.9541,0.601196,
-2.89307,0.549316,
-2.84424,0.598145,
-2.79999,0.654602,
-2.75726,0.657654,
-2.72064,0.604248,
-2.68707,0.55542,
-2.66266,0.598145,
-2.64282,0.646973,
-2.63062,0.646973,
-2.61688,0.604248,
-2.60468,0.553894,
-2.60468,0.601196,
-2.60773,0.640869,
-2.61841,0.643921,
-2.62604,0.605774,
-2.64893,0.549316,
-2.66876,0.595093,
-2.6886,0.650024,
-2.71149,0.654602,
-2.73743,0.6073,
-2.771,0.549316,
-2.80762,0.643921,
-2.84271,0.666809,
-2.87628,0.650024,
-2.92053,0.6073,
-2.96173,0.553894,
-3.00446,0.598145,
-3.04871,0.65155,
-3.09753,0.639343,
-3.14636,0.653076,
-3.19519,0.524902,
-3.24554,0.592041,
-3.2959,0.65155,
-3.34625,0.643921,
-3.39966,0.602722,
-3.45459,0.55542,
-3.50494,0.590515,
-3.55682,0.71106,
-3.6087,0.645447,
-3.66364,0.602722,
-3.71704,0.550842,
-3.76587,0.593567,
-3.8147,0.642395,
-3.85895,0.646973,
-3.90167,0.605774,
-3.94745,0.550842,
-3.98407,0.598145,
-4.02527,0.646973,
-4.05884,0.650024,
-4.09241,0.602722,
-4.12445,0.556946,
-4.15192,0.593567,
-4.17786,0.653076,
-4.20074,0.648499,
-4.22058,0.6073,
-4.23737,0.553894,
-4.24957,0.598145,
-4.26483,0.657654,
-4.27246,0.646973,
-4.27704,0.605774,
-4.28009,0.55542,
-4.28314,0.58136,
-4.28009,0.65155,
-4.27551,0.648499,
-4.27551,0.604248,
-4.27551,0.55542,
-4.26941,0.614929,
-4.26025,0.65918,
-4.24957,0.648499,
-4.24042,0.605774,
-4.23584,0.558472,
-4.22668,0.595093,
-4.22516,0.653076,
-4.22058,0.650024,
-4.21753,0.595093,
-4.21753,0.622559,
-4.21753,0.593567,
-4.21448,0.653076,
-4.216,0.646973,
-4.216,0.611877,
-4.21906,0.559998,
-4.22211,0.595093,
-4.22516,0.646973,
-4.23584,0.648499,
-4.24194,0.6073,
-4.24957,0.558472,
-4.25873,0.59967,
-4.26788,0.654602,
-4.27704,0.65155,
-4.2923,0.610352,
-4.30756,0.559998,
-4.32281,0.601196,
-4.33807,0.653076,
-4.35333,0.65155,
-4.37164,0.611877,
-4.38995,0.559998,
-4.41132,0.59967,
-4.422,0.656128,
-4.44489,0.65155,
-4.46625,0.610352,
-4.49219,0.556946,
-4.51813,0.595093,
-4.54254,0.653076,
-4.57001,0.650024,
-4.599,0.608826,
-4.62646,0.558472,
-4.65546,0.598145,
-4.68597,0.654602,
-4.71649,0.653076,
-4.74701,0.611877,
-4.77753,0.561523,
-4.8111,0.59967,
-4.83856,0.65918,
-4.86755,0.65155,
-4.89502,0.611877,
-4.92249,0.556946,
-4.95605,0.601196,
-4.9881,0.657654,
-5.02319,0.65155,
-5.06287,0.613403,
-5.10101,0.559998,
-5.14374,0.595093,
-5.18341,0.654602,
-5.21851,0.650024,
-5.26123,0.610352,
-5.30396,0.561523,
-5.34363,0.59967,
-5.38635,0.656128,
-5.42297,0.65155,
-5.4657,0.610352,
-5.50995,0.559998,
-5.54657,0.59967,
-5.58777,0.636292,
-5.62286,0.654602,
-5.65948,0.613403,
-5.69305,0.570679,
-5.72968,0.588989,
-5.76324,0.65918,
-5.79834,0.654602,
-5.83496,0.608826,
-5.867,0.563049,
-5.9021,0.614929,
-5.93567,0.660706,
-5.96619,0.65155,
-5.99976,0.613403,
-6.0318,0.558472,
-6.06384,0.601196,
-6.08826,0.668335,
-6.1142,0.650024,
-6.14471,0.610352,
-6.17523,0.561523,
-6.2027,0.6073,
-6.23016,0.656128,
-6.25916,0.654602,
-6.28052,0.619507,
-6.30341,0.563049,
-6.32477,0.595093,
-6.34308,0.657654,
-6.36597,0.654602,
-6.3858,0.605774,
-6.40564,0.550842,
-6.42395,0.602722,
-6.44684,0.672913,
-6.46667,0.656128,
-6.48499,0.608826,
-6.50482,0.563049,
-6.5155,0.55542,
-6.52466,0.648499,
-6.53381,0.65155,
-6.52924,0.611877,
-6.52618,0.558472,
-6.51855,0.608826,
-6.50177,0.660706,
-6.48041,0.650024,
-6.45142,0.613403,
-6.41632,0.566101,
-6.37054,0.59967,
-6.32324,0.660706,
-6.27289,0.654602,
-6.2149,0.613403,
-6.15997,0.563049,
-6.09131,0.634766,
-6.03027,0.660706,
-5.96619,0.650024,
-5.9021,0.614929,
-5.84106,0.561523,
-5.7785,0.59967,
-5.72052,0.657654,
-5.66711,0.654602,
-5.60913,0.611877,
-5.55267,0.559998,
-5.50232,0.602722,
-5.45349,0.662231,
-5.41077,0.65155,
-5.37415,0.611877,
-5.3421,0.575256,
-5.31158,0.602722,
-5.28107,0.656128,
-5.25818,0.653076,
-5.23376,0.616455,
-5.21393,0.566101,
-5.19714,0.593567,
-5.18494,0.662231,
-5.17426,0.646973,
-5.16815,0.608826,
-5.16968,0.561523,
-5.16663,0.59967,
-5.16815,0.666809,
-5.1651,0.653076,
-5.16968,0.614929,
-5.17578,0.561523,
-5.18951,0.598145,
-5.20477,0.657654,
-5.21545,0.648499,
-5.22919,0.611877,
-5.24597,0.563049,
-5.26886,0.6073,
-5.28412,0.671387,
-5.30548,0.698853,
-5.32684,0.614929,
-5.35583,0.569153,
-5.38177,0.598145,
-5.41077,0.666809,
-5.43518,0.65155,
-5.45807,0.611877,
-5.49011,0.569153,
-5.52063,0.592041,
-5.5542,0.665283,
-5.58624,0.648499,
-5.61676,0.616455,
-5.65186,0.561523,
-5.6839,0.595093,
-5.71442,0.65918,
-5.74341,0.65155,
-5.76935,0.614929,
-5.79987,0.558472,
-5.82581,0.595093,
-5.85175,0.660706,
-5.87158,0.650024,
-5.88837,0.613403,
-5.90973,0.563049,
-5.92957,0.593567,
-5.94482,0.65918,
-5.95856,0.650024,
-5.96771,0.613403,
-5.98602,0.561523,
-5.9967,0.598145,
-6.00433,0.65918,
-6.00739,0.650024,
-6.00586,0.616455,
-6.00891,0.561523,
-6.01044,0.604248,
-6.01044,0.65918,
-6.01501,0.643921,
-6.01959,0.595093,
-6.02112,0.567627,
-6.02722,0.598145,
-6.02722,0.660706,
-6.03027,0.653076,
-6.0318,0.613403,
-6.03485,0.566101,
-6.0379,0.595093,
-6.04248,0.665283,
-6.04706,0.653076,
-6.05469,0.616455,
-6.06079,0.566101,
-6.06842,0.593567,
-6.07452,0.67749,
-6.08368,0.65155,
-6.09894,0.611877,
-6.10809,0.566101,
-6.12335,0.593567,
-6.14319,0.65918,
-6.15692,0.650024,
-6.1676,0.613403,
-6.18134,0.575256,
-6.19812,0.598145,
-6.21185,0.665283,
-6.22864,0.650024,
-6.24084,0.611877,
-6.25305,0.563049,
-6.26984,0.59967,
-6.28357,0.642395,
-6.2973,0.650024,
-6.31256,0.610352,
-6.32324,0.57373,
-6.34003,0.595093,
-6.35071,0.665283,
-6.36749,0.648499,
-6.37817,0.604248,
-6.38733,0.559998,
-6.40564,0.595093,
-6.41937,0.662231,
-6.43463,0.653076,
-6.44684,0.613403,
-6.46515,0.567627,
-6.47583,0.595093,
-6.48956,0.65918,
-6.50177,0.65155,
-6.5155,0.611877,
-6.52618,0.559998,
-6.54449,0.588989,
-6.5567,0.660706,
-6.57501,0.650024,
-6.59027,0.613403,
-6.60706,0.567627,
-6.62231,0.58136,
-6.63757,0.65918,
-6.65131,0.65155,
-6.66199,0.614929,
-6.68488,0.566101,
-6.70166,0.590515,
-6.71234,0.657654,
-6.72607,0.650024,
-6.73981,0.610352,
-6.75812,0.563049,
-6.78101,0.592041,
-6.79169,0.660706,
-6.80847,0.650024,
-6.82678,0.6073,
-6.83899,0.563049,
-6.8573,0.590515,
-6.87256,0.662231,
-6.88477,0.646973,
-6.8924,0.608826,
-6.90308,0.566101,
-6.91986,0.587463,
-6.93359,0.657654,
-6.95038,0.650024,
-6.96411,0.610352,
-6.97479,0.567627,
-6.99158,0.592041,
-7.01141,0.65918,
-7.02667,0.637817,
-7.04346,0.622559,
-7.05719,0.561523,
-7.07092,0.585938,
-7.09076,0.65918,
-7.1106,0.653076,
-7.13196,0.613403,
-7.14722,0.547791,
-7.16705,0.593567,
-7.18842,0.656128,
-7.2052,0.653076,
-7.21893,0.619507,
-7.2403,0.563049,
-7.25861,0.588989,
-7.27386,0.65918,
-7.29218,0.648499,
-7.30896,0.608826,
-7.32574,0.561523,
-7.33948,0.587463,
-7.34711,0.656128,
-7.35931,0.65155,
-7.36542,0.613403,
-7.36542,0.561523,
-7.36389,0.575256,
-7.35321,0.668335,
-7.3349,0.65155,
-7.31354,0.6073,
-7.2876,0.566101,
-7.25555,0.587463,
-7.21893,0.65918,
-7.17773,0.65155,
-7.13654,0.611877,
-7.09991,0.563049,
-7.05719,0.584412,
-7.00989,0.65918,
-6.96106,0.653076,
-6.91223,0.614929,
-6.86493,0.563049,
-6.82526,0.590515,
-6.78101,0.662231,
-6.73676,0.65155,
-6.70166,0.6073,
-6.66656,0.556946,
-6.633,0.584412,
-6.59943,0.657654,
-6.57349,0.654602,
-6.54449,0.610352,
-6.52466,0.559998,
-6.50787,0.584412,
-6.48956,0.665283,
-6.47736,0.65918,
-6.4682,0.610352,
-6.45752,0.550842,
-6.45905,0.570679,
-6.45294,0.660706,
-6.45447,0.650024,
-6.45447,0.6073,
-6.46057,0.561523,
-6.4682,0.584412,
-6.47278,0.653076,
-6.48041,0.656128,
-6.48956,0.611877,
-6.49719,0.563049,
-6.51245,0.585938,
-6.52466,0.657654,
-6.53992,0.654602,
-6.55365,0.614929,
-6.57349,0.558472,
-6.5918,0.582886,
-6.61316,0.657654,
-6.62994,0.656128,
-6.64825,0.6073,
-6.66504,0.558472,
-6.68488,0.585938,
-6.70929,0.660706,
-6.72302,0.657654,
-6.74133,0.608826,
-6.76117,0.566101,
-6.78253,0.587463,
-6.79779,0.662231,
-6.82068,0.671387,
-6.83289,0.611877,
-6.8512,0.559998,
-6.87103,0.579834,
-6.88324,0.657654,
-6.8985,0.656128,
-6.91223,0.608826,
-6.92139,0.559998,
-6.93359,0.582886,
-6.94122,0.657654,
-6.95343,0.656128,
-6.96106,0.613403,
-6.96716,0.563049,
-6.97327,0.585938,
-6.97327,0.660706,
-6.98242,0.657654,
-6.98395,0.610352,
-6.99005,0.559998,
-6.98853,0.58136,
-6.987,0.674438,
-6.98242,0.654602,
-6.97784,0.611877,
-6.96869,0.559998,
-6.96564,0.579834,
-6.96564,0.657654,
-6.95648,0.65918,
-6.95496,0.611877,
-6.94122,0.559998,
-6.93359,0.58136,
-6.92291,0.65918,
-6.91528,0.657654,
-6.90613,0.611877,
-6.90308,0.558472,
-6.89697,0.578308,
-6.89087,0.653076,
-6.88782,0.668335,
-6.88782,0.6073,
-6.88477,0.563049,
-6.88324,0.578308,
-6.88782,0.65918,
-6.88629,0.666809,
-6.89392,0.608826,
-6.89697,0.559998,
-6.90613,0.585938,
-6.90918,0.65918,
-6.91528,0.654602,
-6.91986,0.614929,
-6.92749,0.549316,
-6.93665,0.570679,
-6.94122,0.65918,
-6.95038,0.657654,
-6.95953,0.611877,
-6.96716,0.559998,
-6.97479,0.579834,
-6.98242,0.656128,
-6.987,0.65918,
-6.99768,0.605774,
-7.00378,0.558472,
-7.01599,0.58136,
-7.02209,0.653076,
-7.03125,0.65918,
-7.03888,0.619507,
-7.04956,0.559998,
-7.06177,0.58136,
-7.07245,0.656128,
-7.08008,0.646973,
-7.09229,0.611877,
-7.10144,0.538635,
-7.1106,0.592041,
-7.12433,0.654602,
-7.13501,0.656128,
-7.14417,0.613403,
-7.15485,0.558472,
-7.16248,0.579834,
-7.17773,0.657654,
-7.19147,0.654602,
-7.2052,0.608826,
-7.22351,0.556946,
-7.2403,0.579834,
-7.25861,0.660706,
-7.27081,0.653076,
-7.28149,0.614929,
-7.2876,0.559998,
-7.30286,0.58136,
-7.31201,0.65155,
-7.32574,0.654602,
-7.3349,0.613403,
-7.35321,0.55542,
-7.36694,0.579834,
-7.37915,0.645447,
-7.38831,0.653076,
-7.40356,0.575256,
-7.41119,0.558472,
-7.4173,0.579834,
-7.4234,0.65155,
-7.43103,0.650024,
-7.43408,0.610352,
-7.44019,0.55542,
-7.45087,0.578308,
-7.4585,0.65155,
-7.46613,0.65155,
-7.4707,0.610352,
-7.47681,0.559998,
-7.48291,0.576782,
-7.48901,0.65155,
-7.49054,0.653076,
-7.49359,0.611877,
-7.49359,0.55542,
-7.49207,0.579834,
-7.49054,0.656128,
-7.49817,0.657654,
-7.49664,0.608826,
-7.50427,0.55542,
-7.51495,0.576782,
-7.53021,0.650024,
-7.54395,0.653076,
-7.55463,0.608826,
-7.56226,0.559998,
-7.57751,0.576782,
-7.58362,0.650024,
-7.59277,0.656128,
-7.6004,0.604248,
-7.60956,0.559998,
-7.61871,0.582886,
-7.62329,0.65155,
-7.62939,0.653076,
-7.63855,0.611877,
-7.64313,0.55542,
-7.65076,0.576782,
-7.65381,0.656128,
-7.65533,0.650024,
-7.65686,0.611877,
-7.64923,0.556946,
-7.64008,0.578308,
-7.62329,0.717163,
-7.60345,0.657654,
-7.58057,0.614929,
-7.54852,0.553894,
-7.51953,0.58136,
-7.48596,0.642395,
-7.44781,0.653076,
-7.40204,0.616455,
-7.36084,0.613403,
-7.32117,0.578308,
-7.27997,0.653076,
-7.23877,0.662231,
-7.1991,0.613403,
-7.16095,0.556946,
-7.1228,0.578308,
-7.08466,0.636292,
-7.04498,0.662231,
-7.01752,0.595093,
-6.98853,0.588989,
-6.96564,0.584412,
-6.94275,0.646973,
-6.92444,0.653076,
-6.90765,0.608826,
-6.89697,0.558472,
-6.88934,0.58136,
-6.88477,0.645447,
-6.87714,0.656128,
-6.87408,0.614929,
-6.87714,0.561523,
-6.87714,0.579834,
-6.87714,0.650024,
-6.87866,0.657654,
-6.88324,0.674438,
-6.89087,0.535583,
-6.90002,0.578308,
-6.90918,0.645447,
-6.91986,0.65918,
-6.92291,0.611877,
-6.93665,0.566101,
-6.9458,0.572205,
-6.95343,0.645447,
-6.96411,0.657654,
-6.97479,0.610352,
-6.98853,0.558472,
-7.00073,0.578308,
-7.01141,0.645447,
-7.02209,0.662231,
-7.02515,0.6073,
-7.03278,0.566101,
-7.04041,0.578308,
-7.04651,0.646973,
-7.06024,0.65918,
-7.07092,0.610352,
-7.08008,0.556946,
-7.09229,0.578308,
-7.10297,0.643921,
-7.1106,0.654602,
-7.12128,0.610352,
-7.13196,0.559998,
-7.14264,0.578308,
-7.15485,0.648499,
-7.16095,0.657654,
-7.17163,0.613403,
-7.17773,0.561523,
-7.17926,0.578308,
-7.18384,0.645447,
-7.18994,0.65918,
-7.19299,0.610352,
-7.19604,0.55542,
-7.19604,0.58136,
-7.19757,0.640869,
-7.1991,0.622559,
-7.19452,0.588989,
-7.19452,0.563049,
-7.19147,0.576782,
-7.19147,0.646973,
-7.18231,0.657654,
-7.17468,0.608826,
-7.16553,0.552368,
-7.15637,0.57373,
-7.14874,0.645447,
-7.14417,0.65918,
-7.13959,0.604248,
-7.13501,0.556946,
-7.13806,0.58136,
-7.13959,0.643921,
-7.13806,0.65918,
-7.13959,0.608826,
-7.14264,0.556946,
-7.14111,0.578308,
-7.14874,0.648499,
-7.15332,0.654602,
-7.1579,0.610352,
-7.1701,0.566101,
-7.17773,0.579834,
-7.18994,0.616455,
-7.20062,0.662231,
-7.2113,0.608826,
-7.22656,0.559998,
-7.23724,0.588989,
-7.2525,0.637817,
-7.26776,0.656128,
-7.28302,0.610352,
-7.30286,0.556946,
-7.31659,0.579834,
-7.33795,0.628662,
-7.35321,0.65918,
-7.37,0.605774,
-7.38983,0.566101,
-7.41119,0.58136,
-7.4234,0.643921,
-7.43713,0.65918,
-7.44476,0.619507,
-7.45697,0.559998,
-7.46918,0.58136,
-7.47681,0.639343,
-7.48901,0.660706,
-7.49664,0.604248,
-7.50427,0.556946,
-7.51495,0.58136,
-7.51801,0.636292,
-7.52258,0.660706,
-7.52411,0.611877,
-7.52563,0.563049,
-7.52716,0.628662,
-7.52716,0.640869,
-7.53326,0.660706,
-7.53021,0.610352,
-7.53174,0.563049,
-7.53326,0.576782,
-7.52716,0.640869,
-7.52411,0.65918,
-7.51648,0.654602,
-7.5119,0.559998,
-7.50732,0.579834,
-7.50122,0.640869,
-7.49664,0.660706,
-7.49054,0.608826,
-7.48596,0.566101,
-7.47986,0.579834,
-7.46918,0.639343,
-7.4585,0.662231,
-7.44934,0.610352,
-7.44324,0.563049,
-7.43713,0.579834,
-7.43408,0.639343,
-7.4234,0.680542,
-7.41882,0.604248,
-7.4173,0.561523,
-7.41425,0.578308,
-7.40814,0.636292,
-7.40204,0.665283,
-7.40051,0.6073,
-7.39594,0.566101,
-7.38983,0.578308,
-7.38831,0.639343,
-7.38373,0.672913,
-7.38068,0.604248,
-7.37915,0.569153,
-7.37915,0.584412,
-7.37305,0.637817,
-7.37305,0.65918,
-7.36542,0.558472,
-7.36237,0.563049,
-7.36084,0.579834,
-7.34863,0.63324,
-7.34406,0.665283,
-7.341,0.605774,
-7.3349,0.563049,
-7.33185,0.578308,
-7.32727,0.639343,
-7.31659,0.660706,
-7.31049,0.605774,
-7.30896,0.561523,
-7.30896,0.579834,
-7.30438,0.637817,
-7.30133,0.662231,
-7.29828,0.605774,
-7.29675,0.561523,
-7.29675,0.579834,
-7.29218,0.637817,
-7.29218,0.668335,
-7.29065,0.604248,
-7.29828,0.559998,
-7.30438,0.575256,
-7.30743,0.63324,
-7.31201,0.662231,
-7.31506,0.611877,
-7.31964,0.566101,
-7.32422,0.579834,
-7.33185,0.622559,
-7.33643,0.666809,
-7.341,0.6073,
-7.34406,0.563049,
-7.35016,0.58136,
-7.35321,0.634766,
-7.35168,0.648499,
-7.35321,0.604248,
-7.35168,0.558472,
-7.34711,0.58136,
-7.33795,0.634766,
-7.31964,0.665283,
-7.30133,0.605774,
-7.27844,0.55542,
-7.25098,0.537109,
-7.21741,0.614929,
-7.18231,0.665283,
-7.15027,0.6073,
-7.11975,0.563049,
-7.09076,0.582886,
-7.06024,0.622559,
-7.02972,0.666809,
-6.99463,0.6073,
-6.95648,0.563049,
-6.92444,0.582886,
-6.89392,0.63324,
-6.86493,0.666809,
-6.83289,0.604248,
-6.81,0.566101,
-6.78711,0.584412,
-6.76422,0.645447,
-6.74744,0.672913,
-6.73065,0.604248,
-6.71997,0.569153,
-6.70929,0.578308,
-6.70013,0.628662,
-6.69403,0.671387,
-6.68793,0.608826,
-6.68793,0.566101,
-6.69098,0.578308,
-6.69403,0.634766,
-6.70013,0.671387,
-6.70776,0.605774,
-6.71234,0.567627,
-6.71692,0.58136,
-6.72607,0.6073,
-6.72607,0.665283,
-6.7337,0.605774,
-6.73676,0.567627,
-6.74133,0.576782,
-6.74591,0.631714,
-6.74896,0.669861,
-6.75354,0.608826,
-6.76117,0.563049,
-6.76727,0.579834,
-6.7688,0.63324,
-6.77185,0.669861,
-6.77795,0.604248,
-6.77643,0.566101,
-6.78101,0.579834,
-6.78558,0.631714,
-6.78406,0.671387,
-6.78711,0.6073,
-6.78558,0.566101,
-6.78406,0.584412,
-6.78864,0.637817,
-6.79016,0.668335,
-6.79169,0.6073,
-6.79321,0.567627,
-6.80389,0.584412,
-6.80084,0.63324,
-6.80389,0.666809,
-6.80237,0.608826,
-6.80389,0.566101,
-6.80542,0.579834,
-6.80542,0.634766,
-6.80084,0.665283,
-6.79779,0.604248,
-6.79016,0.584412,
-6.78101,0.58136,
-6.77795,0.706482,
-6.7688,0.672913,
-6.76117,0.610352,
-6.74744,0.559998,
-6.73981,0.578308,
-6.72302,0.62561,
-6.71082,0.666809,
-6.69708,0.6073,
-6.68488,0.567627,
-6.67267,0.579834,
-6.65436,0.63324,
-6.6391,0.682068,
-6.61469,0.6073,
-6.59943,0.570679,
-6.59027,0.582886,
-6.58264,0.648499,
-6.56891,0.668335,
-6.55365,0.605774,
-6.54449,0.569153,
-6.53076,0.588989,
-6.52161,0.624084,
-6.51245,0.666809,
-6.50177,0.617981,
-6.49719,0.570679,
-6.48804,0.579834,
-6.48041,0.627136,
-6.47278,0.668335,
-6.46057,0.604248,
-6.45447,0.575256,
-6.45294,0.582886,
-6.44684,0.627136,
-6.44226,0.669861,
-6.43921,0.604248,
-6.43311,0.570679,
-6.43158,0.582886,
-6.43311,0.62561,
-6.43005,0.668335,
-6.427,0.622559,
-6.43005,0.563049,
-6.43311,0.582886,
-6.44073,0.628662,
-6.43921,0.668335,
-6.44226,0.605774,
-6.44226,0.570679,
-6.44836,0.584412,
-6.44989,0.62561,
-6.45142,0.666809,
-6.45599,0.6073,
-6.45752,0.570679,
-6.4621,0.584412,
-6.4682,0.631714,
-6.4743,0.666809,
-6.48193,0.610352,
-6.48804,0.570679,
-6.49261,0.585938,
-6.50177,0.631714,
-6.50177,0.669861,
-6.5094,0.605774,
-6.51245,0.572205,
-6.51703,0.585938,
-6.52161,0.624084,
-6.52161,0.666809,
-6.52161,0.602722,
-6.52618,0.572205,
-6.52466,0.595093,
-6.53076,0.639343,
-6.52771,0.665283,
-6.52466,0.6073,
-6.52313,0.569153,
-6.51855,0.584412,
-6.51855,0.62561,
-6.52161,0.653076,
-6.52008,0.621033,
-6.52008,0.572205,
-6.52008,0.585938,
-6.52466,0.62561,
-6.52008,0.671387,
-6.52313,0.608826,
-6.52466,0.582886,
-6.52466,0.584412,
-6.52924,0.62561,
-6.53076,0.665283,
-6.52924,0.613403,
-6.52924,0.570679,
-6.52924,0.58136,
-6.52771,0.627136,
-6.52161,0.669861,
-6.5155,0.608826,
-6.51245,0.569153,
-6.5094,0.585938,
-6.50635,0.622559,
-6.49719,0.680542,
-6.48956,0.6073,
-6.48804,0.572205,
-6.48651,0.578308,
-6.48499,0.628662,
-6.48041,0.671387,
-6.48041,0.610352,
-6.48346,0.570679,
-6.48041,0.585938,
-6.47583,0.62561,
-6.47125,0.671387,
-6.46057,0.595093,
-6.45752,0.575256,
-6.45599,0.593567,
-6.45294,0.622559,
-6.44836,0.67749,
-6.44989,0.608826,
-6.44379,0.543213,
-6.44531,0.590515,
-6.44379,0.621033,
-6.43921,0.672913,
-6.43463,0.605774,
-6.43463,0.572205,
-6.43158,0.601196,
-6.427,0.624084,
-6.42395,0.668335,
-6.41785,0.6073,
-6.41632,0.576782,
-6.41632,0.592041,
-6.41632,0.62561,
-6.41327,0.665283,
-6.41022,0.608826,
-6.41022,0.57373,
-6.40564,0.552368,
-6.39801,0.622559,
-6.39343,0.669861,
-6.3858,0.616455,
-6.37665,0.57373,
-6.36749,0.601196,
-6.34918,0.622559,
-6.33087,0.622559,
-6.30341,0.610352,
-6.27747,0.57373,
-6.24237,0.590515,
-6.2027,0.624084,
-6.1615,0.665283,
-6.11572,0.6073,
-6.07758,0.572205,
-6.03638,0.588989,
-5.99365,0.624084,
-5.95093,0.668335,
-5.90057,0.611877,
-5.85938,0.572205,
-5.81665,0.592041,
-5.77393,0.62561,
-5.7373,0.653076,
-5.70068,0.608826,
-5.66559,0.575256,
-5.63507,0.59967,
-5.60913,0.63324,
-5.58777,0.665283,
-5.56335,0.595093,
-5.54962,0.584412,
-5.53436,0.590515,
-5.52521,0.624084,
-5.5191,0.660706,
-5.51147,0.616455,
-5.5069,0.578308,
-5.5069,0.592041,
-5.50842,0.619507,
-5.513,0.662231,
-5.51758,0.602722,
-5.52673,0.57373,
-5.53741,0.592041,
-5.5481,0.616455,
-5.55573,0.665283,
-5.56488,0.602722,
-5.57556,0.576782,
-5.58624,0.592041,
-5.59845,0.622559,
-5.61523,0.665283,
-5.62744,0.59967,
-5.6427,0.576782,
-5.65186,0.592041,
-5.65948,0.621033,
-5.66864,0.660706,
-5.68237,0.6073,
-5.69611,0.572205,
-5.70526,0.593567,
-5.71899,0.619507,
-5.72968,0.65918,
-5.74036,0.605774,
-5.75256,0.570679,
-5.76477,0.588989,
-5.7785,0.640869,
-5.79071,0.672913,
-5.80292,0.593567,
-5.81207,0.576782,
-5.82275,0.561523,
-5.82733,0.619507,
-5.83649,0.660706,
-5.83954,0.6073,
-5.84717,0.576782,
-5.85022,0.595093,
-5.85022,0.624084,
-5.84869,0.662231,
-5.83801,0.605774,
-5.83649,0.576782,
-5.82733,0.601196,
-5.82275,0.621033,
-5.81207,0.665283,
-5.79681,0.602722,
-5.79224,0.575256,
-5.78156,0.598145,
-5.77393,0.622559,
-5.76019,0.662231,
-5.74799,0.601196,
-5.7373,0.579834,
-5.72815,0.598145,
-5.71136,0.624084,
-5.69305,0.662231,
-5.6839,0.604248,
-5.66559,0.579834,
-5.65643,0.593567,
-5.64728,0.619507,
-5.63202,0.660706,
-5.62134,0.6073,
-5.60608,0.58136,
-5.5954,0.59967,
-5.58624,0.62561,
-5.57251,0.657654,
-5.56335,0.6073,
-5.55115,0.58136,
-5.54504,0.582886,
-5.53741,0.621033,
-5.53284,0.660706,
-5.52979,0.614929,
-5.52826,0.579834,
-5.52826,0.593567,
-5.53131,0.622559,
-5.53741,0.665283,
-5.53741,0.617981,
-5.53894,0.576782,
-5.53284,0.59967,
-5.53741,0.62561,
-5.53131,0.65918,
-5.53131,0.6073,
-5.53131,0.578308,
-5.52826,0.598145,
-5.52826,0.619507,
-5.52979,0.662231,
-5.52521,0.604248,
-5.52216,0.592041,
-5.51605,0.601196,
-5.5069,0.621033,
-5.50385,0.665283,
-5.49316,0.605774,
-5.49011,0.584412,
-5.48859,0.598145,
-5.48553,0.622559,
-5.48401,0.660706,
-5.48401,0.611877,
-5.48401,0.585938,
-5.48401,0.608826,
-5.48706,0.619507,
-5.49011,0.668335,
-5.49164,0.604248,
-5.49622,0.537109,
-5.50232,0.602722,
-5.50842,0.605774,
-5.51147,0.660706,
-5.513,0.605774,
-5.52063,0.584412,
-5.52368,0.601196,
-5.52826,0.617981,
-5.52979,0.660706,
-5.53131,0.605774,
-5.52979,0.585938,
-5.52979,0.602722,
-5.52979,0.619507,
-5.52673,0.65918,
-5.52826,0.608826,
-5.52979,0.563049,
-5.53131,0.601196,
-5.53284,0.617981,
-5.53894,0.660706,
-5.54352,0.608826,
-5.55115,0.587463,
-5.55725,0.601196,
-5.56335,0.611877,
-5.56335,0.660706,
-5.56641,0.611877,
-5.57556,0.58136,
-5.58167,0.602722,
-5.58777,0.619507,
-5.59998,0.665283,
-5.60913,0.631714,
-5.61829,0.584412,
-5.62897,0.595093,
-5.6366,0.624084,
-5.64423,0.660706,
-5.65033,0.610352,
-5.65643,0.579834,
-5.66101,0.613403,
-5.66559,0.617981,
-5.66559,0.657654,
-5.66864,0.610352,
-5.66559,0.584412,
-5.67017,0.604248,
-5.67017,0.617981,
-5.67017,0.660706,
-5.66864,0.613403,
-5.66711,0.582886,
-5.66406,0.657654,
-5.66711,0.619507,
-5.66711,0.662231,
-5.66406,0.611877,
-5.66559,0.579834,
-5.66559,0.604248,
-5.66254,0.621033,
-5.66254,0.660706,
-5.65643,0.608826,
-5.65796,0.588989,
-5.66254,0.582886,
-5.65643,0.619507,
-5.65491,0.662231,
-5.65338,0.614929,
-5.65033,0.592041,
-5.65491,0.604248,
-5.65643,0.622559,
-5.65338,0.665283,
-5.65338,0.611877,
-5.65643,0.585938,
-5.65643,0.602722,
-5.65948,0.621033,
-5.66254,0.65918,
-5.66711,0.595093,
-5.67169,0.585938,
-5.67474,0.604248,
-5.67474,0.624084,
-5.67169,0.662231,
-5.66711,0.610352,
-5.66406,0.588989,
-5.65796,0.602722,
-5.65186,0.619507,
-5.63965,0.660706,
-5.62439,0.613403,
-5.61371,0.584412,
-5.58624,0.604248,
-5.55878,0.622559,
-5.52826,0.662231,
-5.49316,0.613403,
-5.44891,0.585938,
-5.41077,0.604248,
-5.36652,0.616455,
-5.31616,0.672913,
-5.26581,0.628662,
-5.2124,0.585938,
-5.16205,0.605774,
-5.11627,0.621033,
-5.07355,0.657654,
-5.03387,0.610352,
-4.9942,0.587463,
-4.95911,0.605774,
-4.92096,0.631714,
-4.89044,0.653076,
-4.85687,0.614929,
-4.82788,0.579834,
-4.80499,0.617981,
-4.77753,0.593567,
-4.75616,0.671387,
-4.73328,0.610352,
-4.71954,0.590515,
-4.70734,0.634766,
-4.69513,0.578308,
-4.68903,0.660706,
-4.6814,0.614929,
-4.67834,0.585938,
-4.67224,0.588989,
-4.67834,0.622559,
-4.67682,0.660706,
-4.68292,0.614929,
-4.68597,0.587463,
-4.69055,0.604248,
-4.69666,0.624084,
-4.70123,0.662231,
-4.70276,0.613403,
-4.71344,0.59967,
-4.72412,0.6073,
-4.73633,0.621033,
-4.74701,0.660706,
-4.75464,0.614929,
-4.77142,0.585938,
-4.78821,0.604248,
-4.80194,0.619507,
-4.81567,0.660706,
-4.82788,0.614929,
-4.83704,0.590515,
-4.85382,0.6073,
-4.87061,0.617981,
-4.88129,0.662231,
-4.89807,0.613403,
-4.90875,0.588989,
-4.92554,0.605774,
-4.93622,0.595093,
-4.9469,0.660706,
-4.95758,0.613403,
-4.96674,0.588989,
-4.97742,0.608826,
-4.98199,0.622559,
-4.98657,0.65918,
-4.98199,0.598145,
-4.9881,0.605774,
-4.98199,0.604248,
-4.97742,0.621033,
-4.97589,0.65918,
-4.96979,0.621033,
-4.96368,0.592041,
-4.96216,0.608826,
-4.95911,0.636292,
-4.9469,0.660706,
-4.94232,0.617981,
-4.93469,0.588989,
-4.92554,0.6073,
-4.91791,0.617981,
-4.90875,0.665283,
-4.89655,0.593567,
-4.87976,0.587463,
-4.86755,0.604248,
-4.85229,0.622559,
-4.83856,0.662231,
-4.8233,0.614929,
-4.80652,0.590515,
-4.78821,0.6073,
-4.77142,0.621033,
-4.75464,0.662231,
-4.74091,0.6073,
-4.7287,0.588989,
-4.72107,0.604248,
-4.70734,0.619507,
-4.69818,0.662231,
-4.68597,0.617981,
-4.67682,0.592041,
-4.66461,0.608826,
-4.65393,0.617981,
-4.64325,0.662231,
-4.63104,0.614929,
-4.62341,0.585938,
-4.61273,0.610352,
-4.60205,0.621033,
-4.59442,0.65918,
-4.58374,0.614929,
-4.57764,0.592041,
-4.57458,0.6073,
-4.56696,0.63324,
-4.56238,0.666809,
-4.55475,0.614929,
-4.5517,0.590515,
-4.54407,0.604248,
-4.54254,0.617981,
-4.53949,0.665283,
-4.53949,0.627136,
-4.53491,0.585938,
-4.53491,0.604248,
-4.53491,0.624084,
-4.53186,0.666809,
-4.53339,0.619507,
-4.53033,0.588989,
-4.53033,0.605774,
-4.53033,0.619507,
-4.53033,0.65918,
-4.53186,0.613403,
-4.53339,0.585938,
-4.53644,0.604248,
-4.53491,0.622559,
-4.53949,0.665283,
-4.53949,0.617981,
-4.54254,0.587463,
-4.54559,0.604248,
-4.54712,0.624084,
-4.54865,0.660706,
-4.54254,0.617981,
-4.54102,0.588989,
-4.53949,0.608826,
-4.53644,0.602722,
-4.53644,0.621033,
-4.53033,0.610352,
-4.53339,0.602722,
-4.53186,0.613403,
-4.53491,0.617981,
-4.53033,0.668335,
-4.53491,0.611877,
-4.54102,0.588989,
-4.53644,0.575256,
-4.53644,0.62561,
-4.54102,0.665283,
-4.54254,0.617981,
-4.53491,0.588989,
-4.53644,0.605774,
-4.53644,0.622559,
-4.53644,0.67749,
-4.53949,0.619507,
-4.53644,0.587463,
-4.53644,0.604248,
-4.53339,0.622559,
-4.52881,0.65918,
-4.52728,0.622559,
-4.52118,0.587463,
-4.51965,0.604248,
-4.51965,0.619507,
-4.51965,0.668335,
-4.51355,0.621033,
-4.51508,0.587463,
-4.51813,0.602722,
-4.51965,0.62561,
-4.5166,0.662231,
-4.5166,0.622559,
-4.51965,0.588989,
-4.51813,0.605774,
-4.51965,0.62561,
-4.52271,0.656128,
-4.52728,0.622559,
-4.52728,0.590515,
-4.53033,0.604248,
-4.53186,0.624084,
-4.53491,0.665283,
-4.53644,0.627136,
-4.53491,0.590515,
-4.53339,0.6073,
-4.53339,0.624084,
-4.53339,0.665283,
-4.53339,0.62561,
-4.53186,0.575256,
-4.53186,0.595093,
-4.53033,0.622559,
-4.52881,0.665283,
-4.52576,0.622559,
-4.53033,0.592041,
-4.53186,0.605774,
-4.53644,0.619507,
-4.54102,0.674438,
-4.54102,0.627136,
-4.53949,0.592041,
-4.53949,0.604248,
-4.54254,0.631714,
-4.54559,0.666809,
-4.54254,0.627136,
-4.53339,0.57373,
-4.53033,0.601196,
-4.52118,0.62561,
-4.50287,0.662231,
-4.48608,0.631714,
-4.45557,0.592041,
-4.4281,0.604248,
-4.39453,0.62561,
-4.35333,0.665283,
-4.31366,0.631714,
-4.27094,0.595093,
-4.22058,0.556946,
-4.17633,0.602722,
-4.12445,0.662231,
-4.0741,0.63324,
-4.02374,0.595093,
-3.97949,0.601196,
-3.93219,0.627136,
-3.88947,0.660706,
-3.84979,0.631714,
-3.81165,0.593567,
-3.77808,0.602722,
-3.74603,0.622559,
-3.72162,0.665283,
-3.69263,0.631714,
-3.66669,0.588989,
-3.64685,0.602722,
-3.62549,0.628662,
-3.59802,0.660706,
-3.58124,0.63324,
-3.56293,0.587463,
-3.54614,0.602722,
-3.53546,0.62561,
-3.52936,0.668335,
-3.5202,0.634766,
-3.5202,0.595093,
-3.51563,0.59967,
-3.5202,0.627136,
-3.5202,0.662231,
-3.52173,0.637817,
-3.52478,0.595093,
-3.52783,0.59967,
-3.53546,0.624084,
-3.53546,0.660706,
-3.54309,0.637817,
-3.54462,0.593567,
-3.54767,0.59967,
-3.55072,0.624084,
-3.5553,0.660706,
-3.55682,0.636292,
-3.55988,0.592041,
-3.56293,0.59967,
-3.57208,0.627136,
-3.57819,0.662231,
-3.58734,0.636292,
-3.59344,0.590515,
-3.60565,0.601196,
-3.61328,0.628662,
-3.61786,0.660706,
-3.62091,0.642395,
-3.62701,0.611877,
-3.63312,0.595093,
-3.63464,0.624084,
-3.6438,0.662231,
-3.6499,0.645447,
-3.65143,0.595093,
-3.65295,0.595093,
-3.65448,0.627136,
-3.65295,0.666809,
-3.65448,0.643921,
-3.65143,0.595093,
-3.6499,0.601196,
-3.6438,0.617981,
-3.63464,0.657654,
-3.63159,0.642395,
-3.62396,0.593567,
-3.61633,0.595093,
-3.60565,0.62561,
-3.59955,0.657654,
-3.58887,0.643921,
-3.57361,0.604248,
-3.5614,0.595093,
-3.54767,0.627136,
-3.52936,0.660706,
-3.51257,0.640869,
-3.49731,0.592041,
-3.48358,0.593567,
-3.47443,0.631714,
-3.45917,0.65918,
-3.45154,0.643921,
-3.43475,0.593567,
-3.4256,0.595093,
-3.41339,0.624084,
-3.39661,0.657654,
-3.37982,0.637817,
-3.36456,0.592041,
-3.34778,0.592041,
-3.33252,0.617981,
-3.32336,0.660706,
-3.30963,0.628662,
-3.29895,0.59967,
-3.29285,0.590515,
-3.28674,0.628662,
-3.27759,0.666809,
-3.27148,0.646973,
-3.26385,0.65918,
-3.25928,0.604248,
-3.25928,0.634766,
-3.25775,0.656128,
-3.25928,0.643921,
-3.25775,0.588989,
-3.2608,0.598145,
-3.26385,0.639343,
-3.2608,0.656128,
-3.26385,0.643921,
-3.26385,0.593567,
-3.26538,0.593567,
-3.26538,0.628662,
-3.26385,0.660706,
-3.2608,0.642395,
-3.26385,0.587463,
-3.26385,0.592041,
-3.26385,0.627136,
-3.27301,0.657654,
-3.27911,0.650024,
-3.28217,0.608826,
-3.29132,0.59967,
-3.29742,0.628662,
-3.29895,0.662231,
-3.30505,0.639343,
-3.30963,0.588989,
-3.31421,0.593567,
-3.31879,0.631714,
-3.32031,0.65918,
-3.32489,0.645447,
-3.32794,0.592041,
-3.33862,0.593567,
-3.33862,0.628662,
-3.34625,0.657654,
-3.34778,0.642395,
-3.35083,0.593567,
-3.35236,0.592041,
-3.35693,0.628662,
-3.35846,0.654602,
-3.35846,0.643921,
-3.35999,0.593567,
-3.36151,0.588989,
-3.36304,0.627136,
-3.35999,0.657654,
-3.35846,0.642395,
-3.35999,0.593567,
-3.36609,0.595093,
-3.37219,0.627136,
-3.37219,0.657654,
-3.37524,0.642395,
-3.3783,0.592041,
-3.38745,0.592041,
-3.39355,0.627136,
-3.39966,0.657654,
-3.40271,0.643921,
-3.40881,0.592041,
-3.41034,0.593567,
-3.41187,0.627136,
-3.41034,0.654602,
-3.40729,0.645447,
-3.40271,0.590515,
-3.40118,0.593567,
-3.39813,0.63324,
-3.39355,0.631714,
-3.39508,0.643921,
-3.39661,0.590515,
-3.39661,0.601196,
-3.39661,0.624084,
-3.39661,0.671387,
-3.39813,0.645447,
-3.39661,0.540161,
-3.39813,0.593567,
-3.39203,0.631714,
-3.39203,0.656128,
-3.3844,0.645447,
-3.38135,0.587463,
-3.37524,0.584412,
-3.36761,0.63324,
-3.36609,0.65155,
-3.36761,0.645447,
-3.36456,0.588989,
-3.36456,0.590515,
-3.36151,0.62561,
-3.36456,0.656128,
-3.36304,0.645447,
-3.37067,0.559998,
-3.37524,0.590515,
-3.37982,0.631714,
-3.37372,0.653076,
-3.37524,0.643921,
-3.37982,0.588989,
-3.3844,0.588989,
-3.38745,0.627136,
-3.39355,0.653076,
-3.39813,0.640869,
-3.39813,0.588989,
-3.39355,0.587463,
-3.39355,0.628662,
-3.3905,0.654602,
-3.3905,0.645447,
-3.38287,0.657654,
-3.37524,0.592041,
-3.36151,0.637817,
-3.34625,0.657654,
-3.32794,0.642395,
-3.31116,0.590515,
-3.27759,0.588989,
-3.24554,0.627136,
-3.21045,0.611877,
-3.17383,0.645447,
-3.13416,0.588989,
-3.09296,0.598145,
-3.04565,0.631714,
-2.99988,0.654602,
-2.9541,0.650024,
-2.90527,0.582886,
-2.86407,0.613403,
-2.81525,0.627136,
-2.771,0.65155,
-2.72675,0.648499,
-2.69165,0.584412,
-2.65961,0.585938,
-2.62909,0.63324,
-2.59552,0.654602,
-2.57111,0.642395,
-2.55127,0.587463,
-2.52686,0.588989,
-2.5116,0.636292,
-2.49634,0.653076,
-2.4826,0.648499,
-2.46887,0.582886,
-2.45819,0.587463,
-2.44751,0.628662,
-2.43835,0.653076,
-2.43988,0.650024,
-2.43988,0.582886,
-2.43988,0.584412,
-2.43835,0.628662,
-2.44446,0.650024,
-2.44446,0.654602,
-2.44904,0.59967,
-2.45056,0.585938,
-2.45361,0.631714,
-2.46124,0.65155,
-2.4704,0.65155,
-2.48108,0.582886,
-2.48413,0.585938,
-2.49481,0.628662,
-2.50397,0.653076,
-2.50702,0.648499,
-2.5116,0.584412,
-2.52075,0.587463,
-2.52533,0.627136,
-2.53296,0.654602,
-2.54059,0.648499,
-2.54974,0.58136,
-2.5528,0.585938,
-2.56348,0.628662,
-2.565,0.656128,
-2.57568,0.657654,
-2.58636,0.58136,
-2.59399,0.592041,
-2.60162,0.624084,
-2.6062,0.65155,
-2.6123,0.656128,
-2.62299,0.567627,
-2.62909,0.585938,
-2.63214,0.631714,
-2.6413,0.65155,
-2.63977,0.65918,
-2.64435,0.576782,
-2.63977,0.588989,
-2.63519,0.628662,
-2.62909,0.650024,
-2.62604,0.65155,
-2.62146,0.579834,
-2.61841,0.584412,
-2.60925,0.631714,
-2.59705,0.650024,
-2.58942,0.646973,
-2.57721,0.576782,
-2.565,0.582886,
-2.54974,0.627136,
-2.53143,0.650024,
-2.52228,0.653076,
-2.50397,0.576782,
-2.48718,0.588989,
-2.47192,0.628662,
-2.45514,0.656128,
-2.43988,0.650024,
-2.42615,0.576782,
-2.41241,0.582886,
-2.39716,0.627136,
-2.3819,0.65155,
-2.36664,0.653076,
-2.34985,0.575256,
-2.33612,0.585938,
-2.32239,0.63324,
-2.31476,0.650024,
-2.30103,0.646973,
-2.2995,0.578308,
-2.29187,0.58136,
-2.29034,0.631714,
-2.29034,0.648499,
-2.28271,0.646973,
-2.28882,0.58136,
-2.28271,0.588989,
-2.28729,0.631714,
-2.28119,0.657654,
-2.27814,0.65155,
-2.27814,0.57373,
-2.27661,0.584412,
-2.27356,0.62561,
-2.27509,0.650024,
-2.27051,0.650024,
-2.27051,0.576782,
-2.27051,0.58136,
-2.27203,0.627136,
-2.27509,0.653076,
-2.27814,0.650024,
-2.28424,0.576782,
-2.28882,0.584412,
-2.29187,0.62561,
-2.2934,0.65155,
-2.29797,0.650024,
-2.2995,0.575256,
-2.30255,0.590515,
-2.30713,0.627136,
-2.31476,0.654602,
-2.31781,0.668335,
-2.32239,0.58136,
-2.32849,0.58136,
-2.33154,0.627136,
-2.33612,0.648499,
-2.34375,0.65155,
-2.34528,0.579834,
-2.34985,0.578308,
-2.35596,0.627136,
-2.35748,0.648499,
-2.36664,0.65155,
-2.37122,0.58136,
-2.37885,0.582886,
-2.38495,0.624084,
-2.39258,0.653076,
-2.40021,0.648499,
-2.41241,0.576782,
-2.41547,0.58136,
-2.42157,0.624084,
-2.42767,0.648499,
-2.4353,0.65155,
-2.44446,0.576782,
-2.45361,0.578308,
-2.45514,0.624084,
-2.45819,0.645447,
-2.45819,0.65155,
-2.46277,0.579834,
-2.46735,0.58136,
-2.46429,0.622559,
-2.46735,0.648499,
-2.46735,0.65155,
-2.46887,0.572205,
-2.46887,0.576782,
-2.46887,0.614929,
-2.4704,0.645447,
-2.47192,0.648499,
-2.47498,0.578308,
-2.48108,0.579834,
-2.47955,0.621033,
-2.47498,0.65918,
-2.46887,0.700378,
-2.46735,0.578308,
-2.46582,0.575256,
-2.46582,0.62561,
-2.45972,0.65155,
-2.46429,0.653076,
-2.46429,0.58136,
-2.46429,0.575256,
-2.46735,0.622559,
-2.47345,0.650024,
-2.47498,0.648499,
-2.48108,0.578308,
-2.48566,0.579834,
-2.48871,0.624084,
-2.49329,0.646973,
-2.49176,0.650024,
-2.49329,0.579834,
-2.49634,0.576782,
-2.49939,0.619507,
-2.49786,0.645447,
-2.49634,0.650024,
-2.49939,0.579834,
-2.50092,0.578308,
-2.50549,0.621033,
-2.5116,0.650024,
-2.51617,0.65155,
-2.52075,0.578308,
-2.51923,0.579834,
-2.52533,0.619507,
-2.52991,0.648499,
-2.53448,0.679016,
-2.53906,0.579834,
-2.54669,0.579834,
-2.54822,0.622559,
-2.55737,0.646973,
-2.565,0.648499,
-2.56653,0.584412,
-2.57263,0.578308,
-2.57416,0.621033,
-2.57568,0.643921,
-2.58179,0.648499,
-2.58789,0.588989,
-2.59552,0.576782,
-2.59705,0.621033,
-2.6001,0.62561,
-2.60162,0.654602,
-2.60468,0.579834,
-2.60162,0.561523,
-2.59399,0.619507,
-2.58484,0.646973,
-2.56805,0.650024,
-2.54364,0.550842,
-2.5177,0.585938,
-2.49023,0.617981,
-2.45514,0.65155,
-2.41547,0.650024,
-2.37122,0.576782,
-2.32697,0.576782,
-2.27966,0.617981,
-2.23236,0.648499,
-2.18201,0.650024,
-2.13928,0.575256,
-2.09351,0.575256,
-2.05231,0.621033,
-2.01721,0.65155,
-1.98059,0.648499,
-1.94702,0.58136,
-1.91345,0.561523,
-1.88293,0.576782,
-1.85852,0.639343,
-1.82953,0.657654,
-1.81122,0.569153,
-1.79443,0.57373,
-1.77765,0.63324,
-1.76849,0.645447,
-1.75781,0.718689,
-1.74866,0.575256,
-1.74103,0.578308,
-1.73492,0.617981,
-1.73187,0.621033,
-1.72882,0.643921,
-1.72424,0.58136,
-1.72577,0.570679,
-1.73187,0.622559,
-1.73187,0.65918,
-1.73798,0.650024,
-1.7395,0.578308,
-1.74255,0.585938,
-1.74408,0.614929,
-1.74561,0.642395,
-1.74713,0.645447,
-1.75171,0.576782,
-1.76086,0.57373,
-1.77002,0.622559,
-1.7746,0.645447,
-1.78375,0.648499,
-1.79291,0.576782,
-1.79596,0.570679,
-1.80359,0.616455,
-1.80969,0.650024,
-1.81885,0.646973,
-1.83258,0.57373,
-1.84021,0.572205,
-1.85089,0.614929,
-1.86462,0.648499,
-1.8692,0.65155,
-1.88293,0.576782,
-1.89362,0.569153,
-1.90125,0.614929,
-1.90582,0.648499,
-1.91498,0.648499,
-1.92108,0.572205,
-1.92871,0.572205,
-1.93481,0.613403,
-1.93939,0.645447,
-1.93787,0.645447,
-1.94092,0.575256,
-1.94092,0.567627,
-1.94092,0.616455,
-1.9455,0.650024,
-1.9455,0.646973,
-1.94092,0.572205,
-1.94092,0.561523,
-1.93939,0.616455,
-1.92871,0.65918,
-1.92261,0.646973,
-1.91345,0.576782,
-1.90887,0.57373,
-1.90125,0.619507,
-1.88751,0.648499,
-1.87836,0.605774,
-1.86768,0.569153,
-1.85852,0.576782,
-1.84784,0.614929,
-1.83258,0.657654,
-1.82037,0.650024,
-1.81427,0.572205,
-1.80664,0.57373,
-1.80511,0.569153,
-1.79749,0.636292,
-1.79596,0.648499,
-1.78986,0.572205,
-1.78375,0.572205,
-1.77765,0.610352,
-1.7746,0.645447,
-1.77155,0.648499,
-1.76697,0.567627,
-1.77155,0.57373,
-1.77307,0.608826,
-1.77307,0.650024,
-1.7746,0.646973,
-1.77307,0.57373,
-1.77917,0.569153,
-1.78375,0.613403,
-1.78986,0.650024,
-1.78986,0.65918,
-1.79138,0.570679,
-1.79901,0.569153,
-1.80206,0.614929,
-1.80511,0.657654,
-1.80817,0.646973,
-1.80969,0.570679,
-1.81427,0.570679,
-1.8158,0.614929,
-1.82037,0.653076,
-1.82037,0.646973,
-1.82495,0.575256,
-1.82648,0.563049,
-1.828,0.613403,
-1.83105,0.65155,
-1.83563,0.646973,
-1.84174,0.572205,
-1.84631,0.569153,
-1.85242,0.616455,
-1.86615,0.67749,
-1.87378,0.646973,
-1.88293,0.572205,
-1.88904,0.561523,
-1.89972,0.613403,
-1.90735,0.640869,
-1.91498,0.648499,
-1.92261,0.570679,
-1.93024,0.563049,
-1.93939,0.608826,
-1.94397,0.650024,
-1.95007,0.646973,
-1.95618,0.582886,
-1.96533,0.556946,
-1.97754,0.671387,
-1.98517,0.650024,
-1.98822,0.648499,
-1.99738,0.569153,
-2.00653,0.566101,
-2.01416,0.610352,
-2.01569,0.646973,
-2.02179,0.648499,
-2.02789,0.572205,
-2.03857,0.566101,
-2.04315,0.613403,
-2.04773,0.65155,
-2.05231,0.648499,
-2.05841,0.570679,
-2.05841,0.563049,
-2.05994,0.610352,
-2.05994,0.648499,
-2.06451,0.646973,
-2.06757,0.572205,
-2.06909,0.566101,
-2.07367,0.610352,
-2.06909,0.650024,
-2.07214,0.642395,
-2.07825,0.570679,
-2.07825,0.572205,
-2.08435,0.6073,
-2.08435,0.650024,
-2.08588,0.645447,
-2.0874,0.569153,
-2.08893,0.561523,
-2.0874,0.611877,
-2.08893,0.648499,
-2.08588,0.648499,
-2.08282,0.567627,
-2.08282,0.561523,
-2.08282,0.624084,
-2.0813,0.65155,
-2.07977,0.646973,
-2.0813,0.569153,
-2.08588,0.566101,
-2.08893,0.617981,
-2.09656,0.65155,
-2.10114,0.662231,
-2.10571,0.572205,
-2.11182,0.572205,
-2.11334,0.604248,
-2.11639,0.656128,
-2.12097,0.640869,
-2.1225,0.567627,
-2.12708,0.566101,
-2.1286,0.605774,
-2.1347,0.646973,
-2.14233,0.643921,
-2.14844,0.57373,
-2.15302,0.563049,
-2.15912,0.613403,
-2.1637,0.650024,
-2.16522,0.645447,
-2.17133,0.57373,
-2.17743,0.57373,
-2.17743,0.608826,
-2.18353,0.653076,
-2.18658,0.645447,
-2.19116,0.575256,
-2.19421,0.566101,
-2.19879,0.610352,
-2.20337,0.648499,
-2.20642,0.639343,
-2.21252,0.572205,
-2.22168,0.559998,
-2.22168,0.610352,
-2.22321,0.653076,
-2.22626,0.646973,
-2.23083,0.572205,
-2.22931,0.561523,
-2.22931,0.610352,
-2.22473,0.65155,
-2.21558,0.643921,
-2.19879,0.575256,
-2.18353,0.563049,
-2.16522,0.604248,
-2.14233,0.65155,
-2.11792,0.640869,
-2.08893,0.57373,
-2.05383,0.572205,
-2.02026,0.614929,
-1.98517,0.65155,
-1.9516,0.639343,
-1.91498,0.535583,
-1.87531,0.550842,
-1.83716,0.617981,
-1.79596,0.65155,
-1.76239,0.642395,
-1.72272,0.578308,
-1.69067,0.538635,
-1.65863,0.610352,
-1.62506,0.657654,
-1.59607,0.640869,
-1.57013,0.57373,
-1.54572,0.563049,
-1.52893,0.608826,
-1.50757,0.648499,
-1.48773,0.640869,
-1.47095,0.572205,
-1.45874,0.558472,
-1.45111,0.6073,
-1.43433,0.654602,
-1.42517,0.646973,
-1.42059,0.576782,
-1.41602,0.570679,
-1.41296,0.610352,
-1.41907,0.636292,
-1.41754,0.642395,
-1.41754,0.57373,
-1.41907,0.561523,
-1.42365,0.608826,
-1.42975,0.650024,
-1.43127,0.643921,
-1.4389,0.57373,
-1.45111,0.546265,
-1.45721,0.608826,
-1.4679,0.65155,
-1.47247,0.650024,
-1.48621,0.572205,
-1.49231,0.567627,
-1.49994,0.610352,
-1.51672,0.65155,
-1.52893,0.643921,
-1.53656,0.546265,
-1.54266,0.561523,
-1.55487,0.610352,
-1.56708,0.65918,
-1.57623,0.643921,
-1.58997,0.572205,
-1.60217,0.559998,
-1.61438,0.608826,
-1.62811,0.65155,
-1.63574,0.643921,
-1.64795,0.570679,
-1.65558,0.556946,
-1.66626,0.613403,
-1.67236,0.646973,
-1.68152,0.642395,
-1.68762,0.570679,
-1.69373,0.556946,
-1.69525,0.6073,
-1.6983,0.648499,
-1.70288,0.642395,
-1.70593,0.572205,
-1.70898,0.556946,
-1.70746,0.611877,
-1.70288,0.650024,
-1.70135,0.642395,
-1.69983,0.567627,
-1.69983,0.559998,
-1.69678,0.605774,
-1.69373,0.650024,
-1.6861,0.640869,
-1.67847,0.576782,
-1.67389,0.563049,
-1.66779,0.610352,
-1.66016,0.645447,
-1.65405,0.639343,
-1.64337,0.57373,
-1.64185,0.559998,
-1.63269,0.611877,
-1.62048,0.648499,
-1.61285,0.636292,
-1.60522,0.572205,
-1.60217,0.563049,
-1.59607,0.610352,
-1.58844,0.62561,
-1.57928,0.622559,
-1.57623,0.572205,
-1.57623,0.556946,
-1.57013,0.617981,
-1.5686,0.648499,
-1.57166,0.640869,
-1.5686,0.57373,
-1.57166,0.558472,
-1.57318,0.611877,
-1.57318,0.653076,
-1.57623,0.637817,
-1.58386,0.575256,
-1.59454,0.559998,
-1.60065,0.608826,
-1.61285,0.646973,
-1.61896,0.637817,
-1.62354,0.575256,
-1.63116,0.561523,
-1.63727,0.608826,
-1.64185,0.654602,
-1.65405,0.637817,
-1.66321,0.575256,
-1.67236,0.561523,
-1.6861,0.611877,
-1.69525,0.648499,
-1.70746,0.631714,
-1.71204,0.57373,
-1.72119,0.559998,
-1.72577,0.610352,
-1.73645,0.648499,
-1.74255,0.636292,
-1.75018,0.592041,
-1.75781,0.567627,
-1.76544,0.610352,
-1.7746,0.648499,
-1.77917,0.639343,
-1.7868,0.58136,
-1.79596,0.566101,
-1.80664,0.588989,
-1.81274,0.653076,
-1.81885,0.63324,
-1.83258,0.575256,
-1.84479,0.559998,
-1.85242,0.595093,
-1.86005,0.650024,
-1.86462,0.631714,
-1.86615,0.582886,
-1.87378,0.563049,
-1.87988,0.610352,
-1.88293,0.653076,
-1.88599,0.62561,
-1.88904,0.575256,
-1.89667,0.563049,
-1.90125,0.610352,
-1.90735,0.646973,
-1.91193,0.628662,
-1.92261,0.57373,
-1.93024,0.561523,
-1.93939,0.6073,
-1.94855,0.648499,
-1.95465,0.631714,
-1.95923,0.579834,
-1.96838,0.563049,
-1.97601,0.610352,
-1.98517,0.646973,
-1.99585,0.627136,
-2.00348,0.572205,
-2.01416,0.561523,
-2.02789,0.608826,
-2.03094,0.646973,
-2.04163,0.628662,
-2.0462,0.576782,
-2.05078,0.563049,
-2.05536,0.608826,
-2.05841,0.650024,
-2.06451,0.622559,
-2.06909,0.575256,
-2.06757,0.559998,
-2.07214,0.614929,
-2.07214,0.646973,
-2.0752,0.624084,
-2.07825,0.576782,
-2.07977,0.563049,
-2.0813,0.611877,
-2.08435,0.646973,
-2.08435,0.627136,
-2.08893,0.57373,
-2.09045,0.561523,
-2.09503,0.610352,
-2.09503,0.646973,
-2.10266,0.624084,
-2.10876,0.57373,
-2.11029,0.556946,
-2.11029,0.613403,
-2.11792,0.646973,
-2.12097,0.622559,
-2.12555,0.582886,
-2.1347,0.559998,
-2.14233,0.611877,
-2.14844,0.648499,
-2.15454,0.622559,
-2.16064,0.57373,
-2.17133,0.558472,
-2.17438,0.616455,
-2.18201,0.662231,
-2.18506,0.614929,
-2.19421,0.575256,
-2.2049,0.553894,
-2.20795,0.610352,
-2.20642,0.648499,
-2.20642,0.616455,
-2.21252,0.572205,
-2.2171,0.561523,
-2.21863,0.608826,
-2.22321,0.65155,
-2.22778,0.624084,
-2.23083,0.578308,
-2.23846,0.556946,
-2.23694,0.614929,
-2.22626,0.646973,
-2.21558,0.621033,
-2.20337,0.575256,
-2.17743,0.561523,
-2.15302,0.611877,
-2.12708,0.640869,
-2.09656,0.622559,
-2.06146,0.585938,
-2.02789,0.553894,
-1.98669,0.672913,
-1.94702,0.643921,
-1.90582,0.611877,
-1.8631,0.579834,
-1.81885,0.559998,
-1.77917,0.605774,
-1.73798,0.650024,
-1.70288,0.617981,
-1.66626,0.57373,
-1.63269,0.563049,
-1.59912,0.610352,
-1.5686,0.646973,
-1.53809,0.614929,
-1.51978,0.575256,
-1.49689,0.561523,
-1.47705,0.610352,
-1.46179,0.646973,
-1.44348,0.614929,
-1.4328,0.575256,
-1.42059,0.559998,
-1.41144,0.627136,
-1.40686,0.657654,
-1.40076,0.614929,
-1.39465,0.578308,
-1.39771,0.567627,
-1.39923,0.611877,
-1.39618,0.648499,
-1.39618,0.617981,
-1.39771,0.572205,
-1.39771,0.578308,
-1.39771,0.619507,
-1.40076,0.643921,
-1.40228,0.616455,
-1.39923,0.575256,
-1.39618,0.566101,
-1.40076,0.611877,
-1.39923,0.646973,
-1.40228,0.614929,
-1.40839,0.57373,
-1.41602,0.561523,
-1.41907,0.610352,
-1.42212,0.648499,
-1.42517,0.616455,
-1.4328,0.572205,
-1.44348,0.563049,
-1.44806,0.613403,
-1.45569,0.645447,
-1.46179,0.616455,
-1.46942,0.578308,
-1.47705,0.576782,
-1.48621,0.613403,
-1.49078,0.650024,
-1.50452,0.617981,
-1.51215,0.572205,
-1.52283,0.563049,
-1.53046,0.616455,
-1.54266,0.640869,
-1.54877,0.614929,
-1.55487,0.58136,
-1.55487,0.559998,
-1.55945,0.610352,
-1.5625,0.643921,
-1.55792,0.613403,
-1.55487,0.57373,
-1.55029,0.566101,
-1.54572,0.691223,
-1.54266,0.645447,
-1.53503,0.622559,
-1.52893,0.576782,
-1.5213,0.559998,
-1.50757,0.611877,
-1.49994,0.646973,
-1.49078,0.619507,
-1.47705,0.575256,
-1.46637,0.559998,
-1.45416,0.610352,
-1.44653,0.643921,
-1.43433,0.617981,
-1.4267,0.575256,
-1.41144,0.561523,
-1.40839,0.611877,
-1.40076,0.646973,
-1.39465,0.619507,
-1.3855,0.57373,
-1.37787,0.558472,
-1.37024,0.611877,
-1.36871,0.645447,
-1.35956,0.611877,
-1.3504,0.576782,
-1.3443,0.563049,
-1.33972,0.608826,
-1.33209,0.650024,
-1.32599,0.619507,
-1.32294,0.58136,
-1.32294,0.561523,
-1.32446,0.613403,
-1.31989,0.675964,
-1.31836,0.654602,
-1.31836,0.575256,
-1.31836,0.563049,
-1.32141,0.610352,
-1.31989,0.646973,
-1.32294,0.616455,
-1.32141,0.57373,
-1.32599,0.582886,
-1.32446,0.570679,
-1.33209,0.65155,
-1.33667,0.616455,
-1.34583,0.575256,
-1.35345,0.563049,
-1.36414,0.608826,
-1.37024,0.636292,
-1.37329,0.616455,
-1.38397,0.628662,
-1.3916,0.567627,
-1.39771,0.610352,
-1.41144,0.650024,
-1.42059,0.611877,
-1.43127,0.559998,
-1.4389,0.563049,
-1.45416,0.6073,
-1.46332,0.646973,
-1.47095,0.610352,
-1.48163,0.57373,
-1.49841,0.563049,
-1.50909,0.610352,
-1.52893,0.654602,
-1.53961,0.613403,
-1.55792,0.572205,
-1.57013,0.567627,
-1.57928,0.614929,
-1.59302,0.654602,
-1.60217,0.614929,
-1.6098,0.579834,
-1.62201,0.575256,
-1.62964,0.613403,
-1.63727,0.656128,
-1.64337,0.610352,
-1.65253,0.55542,
-1.65558,0.559998,
-1.66168,0.610352,
-1.66779,0.653076,
-1.67236,0.613403,
-1.67389,0.575256,
-1.67847,0.566101,
-1.68762,0.608826,
-1.69525,0.653076,
-1.6983,0.613403,
-1.70746,0.57373,
-1.71051,0.569153,
-1.71814,0.608826,
-1.72577,0.653076,
-1.72882,0.614929,
-1.73187,0.570679,
-1.73645,0.570679,
-1.74408,0.608826,
-1.74866,0.648499,
-1.74866,0.6073,
-1.75476,0.570679,
-1.75629,0.572205,
-1.76239,0.610352,
-1.76697,0.65155,
-1.76697,0.614929,
-1.77155,0.570679,
-1.78223,0.566101,
-1.78986,0.610352,
-1.79749,0.654602,
-1.80511,0.590515,
-1.80359,0.578308,
-1.80969,0.572205,
-1.81427,0.613403,
-1.81732,0.650024,
-1.82037,0.610352,
-1.8219,0.57373,
-1.82953,0.570679,
-1.83411,0.608826,
-1.83563,0.65155,
-1.84326,0.613403,
-1.84479,0.572205,
-1.85089,0.569153,
-1.86005,0.611877,
-1.86157,0.650024,
-1.86462,0.6073,
-1.8692,0.570679,
-1.87531,0.572205,
-1.88293,0.610352,
-1.87988,0.65155,
-1.88293,0.67749,
-1.88751,0.558472,
-1.88751,0.569153,
-1.89514,0.6073,
-1.89819,0.648499,
-1.9043,0.608826,
-1.9104,0.566101,
-1.91345,0.566101,
-1.91498,0.6073,
-1.90887,0.653076,
-1.9104,0.610352,
-1.90735,0.569153,
-1.89972,0.570679,
-1.88599,0.613403,
-1.86768,0.656128,
-1.84326,0.610352,
-1.81732,0.569153,
-1.78986,0.567627,
-1.76239,0.605774,
-1.72119,0.650024,
-1.67847,0.611877,
-1.63269,0.570679,
-1.58844,0.563049,
-1.53961,0.614929,
-1.48926,0.653076,
-1.43433,0.610352,
-1.37787,0.569153,
-1.32751,0.567627,
-1.27869,0.610352,
-1.23291,0.650024,
-1.18866,0.588989,
-1.14441,0.524902,
-1.10321,0.569153,
-1.05591,0.611877,
-1.01318,0.654602,
-0.975037,0.617981,
-0.941467,0.566101,
-0.90332,0.566101,
-0.874329,0.611877,
-0.843811,0.65155,
-0.819397,0.611877,
-0.802612,0.569153,
-0.782776,0.57373,
-0.764465,0.613403,
-0.743103,0.645447,
-0.735474,0.601196,
-0.72937,0.569153,
-0.721741,0.569153,
-0.71106,0.613403,
-0.706482,0.65155,
-0.706482,0.616455,
-0.701904,0.567627,
-0.700378,0.567627,
-0.698853,0.610352,
-0.700378,0.650024,
-0.700378,0.613403,
-0.701904,0.567627,
-0.704956,0.566101,
-0.709534,0.608826,
-0.715637,0.653076,
-0.720215,0.621033,
-0.727844,0.576782,
-0.733948,0.572205,
-0.741577,0.613403,
-0.744629,0.654602,
-0.75531,0.617981,
-0.762939,0.567627,
-0.770569,0.570679,
-0.778198,0.602722,
-0.785828,0.65918,
-0.794983,0.611877,
-0.796509,0.566101,
-0.802612,0.569153,
-0.808716,0.613403,
-0.816345,0.65155,
-0.817871,0.608826,
-0.827026,0.563049,
-0.83313,0.570679,
-0.834656,0.611877,
-0.836182,0.653076,
-0.836182,0.614929,
-0.830078,0.569153,
-0.830078,0.570679,
-0.820923,0.610352,
-0.813293,0.650024,
-0.802612,0.613403,
-0.796509,0.563049,
-0.787354,0.572205,
-0.778198,0.614929,
-0.767517,0.650024,
-0.759888,0.616455,
-0.752258,0.566101,
-0.740051,0.534058,
-0.732422,0.595093,
-0.721741,0.657654,
-0.709534,0.608826,
-0.701904,0.57373,
-0.691223,0.57373,
-0.682068,0.59967,
-0.668335,0.698853,
-0.653076,0.567627,
-0.642395,0.550842,
-0.631714,0.570679,
-0.627136,0.6073,
-0.611877,0.65155,
-0.610352,0.616455,
-0.593567,0.559998,
-0.585938,0.572205,
-0.575256,0.611877,
-0.567627,0.653076,
-0.553894,0.616455,
-0.543213,0.563049,
-0.540161,0.572205,
-0.538635,0.605774,
-0.534058,0.712585,
-0.526428,0.614929,
-0.521851,0.558472,
-0.518799,0.572205,
-0.523376,0.613403,
-0.518799,0.657654,
-0.521851,0.590515,
-0.524902,0.585938,
-0.524902,0.572205,
-0.531006,0.610352,
-0.535583,0.657654,
-0.534058,0.616455,
-0.541687,0.561523,
-0.543213,0.570679,
-0.547791,0.640869,
-0.553894,0.656128,
-0.561523,0.624084,
-0.564575,0.561523,
-0.570679,0.57373,
-0.578308,0.610352,
-0.585938,0.654602,
-0.590515,0.621033,
-0.596619,0.561523,
-0.605774,0.572205,
-0.610352,0.611877,
-0.611877,0.653076,
-0.611877,0.619507,
-0.611877,0.558472,
-0.617981,0.570679,
-0.617981,0.621033,
-0.622559,0.653076,
-0.622559,0.619507,
-0.627136,0.566101,
-0.631714,0.569153,
-0.634766,0.605774,
-0.642395,0.656128,
-0.648499,0.634766,
-0.65155,0.552368,
-0.662231,0.570679,
-0.666809,0.622559,
-0.669861,0.65155,
-0.683594,0.616455,
-0.689697,0.563049,
-0.698853,0.579834,
-0.708008,0.611877,
-0.715637,0.656128,
-0.724792,0.590515,
-0.735474,0.558472,
-0.744629,0.570679,
-0.75531,0.611877,
-0.759888,0.656128,
-0.769043,0.614929,
-0.782776,0.561523,
-0.796509,0.572205,
-0.805664,0.6073,
-0.816345,0.65155,
-0.820923,0.617981,
-0.834656,0.561523,
-0.839233,0.570679,
-0.846863,0.6073,
-0.857544,0.653076,
-0.866699,0.621033,
-0.872803,0.561523,
-0.883484,0.572205,
-0.895691,0.617981,
-0.898743,0.656128,
-0.904846,0.621033,
-0.909424,0.559998,
-0.914001,0.572205,
-0.921631,0.619507,
-0.924683,0.643921,
-0.923157,0.622559,
-0.920105,0.561523,
-0.927734,0.570679,
-0.932312,0.605774,
-0.93689,0.654602,
-0.938416,0.621033,
-0.946045,0.561523,
-0.950623,0.570679,
-0.959778,0.608826,
-0.967407,0.654602,
-0.973511,0.624084,
-0.982666,0.569153,
-0.985718,0.57373,
-0.991821,0.610352,
-0.994873,0.654602,
-1.00403,0.619507,
-1.00861,0.566101,
-1.01471,0.575256,
-1.02081,0.610352,
-1.02386,0.65155,
-1.02692,0.624084,
-1.04065,0.563049,
-1.05591,0.57373,
-1.06354,0.611877,
-1.07574,0.653076,
-1.08643,0.619507,
-1.09558,0.559998,
-1.10474,0.572205,
-1.11389,0.610352,
-1.12305,0.653076,
-1.13068,0.621033,
-1.14594,0.561523,
-1.15356,0.579834,
-1.16425,0.610352,
-1.17188,0.656128,
-1.17493,0.63324,
-1.1795,0.567627,
-1.18256,0.579834,
-1.17798,0.611877,
-1.17645,0.654602,
-1.16272,0.624084,
-1.15204,0.567627,
-1.1322,0.575256,
-1.10626,0.614929,
-1.07269,0.653076,
-1.04065,0.622559,
-1.00098,0.561523,
-0.956726,0.579834,
-0.912476,0.610352,
-0.865173,0.654602,
-0.810242,0.621033,
-0.753784,0.561523,
-0.698853,0.578308,
-0.639343,0.610352,
-0.585938,0.65918,
-0.527954,0.624084,
-0.469971,0.559998,
-0.415039,0.582886,
-0.361633,0.611877,
-0.308228,0.654602,
-0.259399,0.627136,
-0.216675,0.556946,
-0.169373,0.576782,
-0.126648,0.613403,
-0.088501,0.643921,
-0.0473022,0.62561,
-0.0167847,0.559998,
0.0152588,0.579834,
0.0396729,0.593567,
0.0640869,0.653076,
0.0839233,0.621033,
0.105286,0.567627,
0.115967,0.584412,
0.128174,0.6073,
0.132751,0.656128,
0.143433,0.582886,
0.154114,0.558472,
0.154114,0.582886,
0.15564,0.605774,
0.157166,0.653076,
0.167847,0.631714,
0.164795,0.552368,
0.167847,0.578308,
0.166321,0.611877,
0.167847,0.656128,
0.164795,0.62561,
0.164795,0.558472,
0.15564,0.578308,
0.154114,0.613403,
0.149536,0.653076,
0.144958,0.561523,
0.135803,0.561523,
0.126648,0.585938,
0.115967,0.611877,
0.106812,0.656128,
0.0976563,0.627136,
0.0869751,0.558472,
0.0732422,0.584412,
0.0595093,0.6073,
0.0473022,0.657654,
0.0305176,0.628662,
0.0213623,0.559998,
0.00762939,0.576782,
-0.00610352,0.614929,
-0.0183105,0.65918,
-0.0305176,0.643921,
-0.0411987,0.559998,
-0.050354,0.578308,
-0.0549316,0.611877,
-0.0595093,0.654602,
-0.0656128,0.631714,
-0.0686646,0.561523,
-0.0778198,0.567627,
-0.0762939,0.614929,
-0.0747681,0.62561,
-0.0732422,0.63324,
-0.0732422,0.567627,
-0.0671387,0.57373,
-0.0656128,0.614929,
-0.0595093,0.65918,
-0.0518799,0.636292,
-0.0518799,0.559998,
-0.0473022,0.566101,
-0.0427246,0.613403,
-0.0320435,0.654602,
-0.0259399,0.631714,
-0.0152588,0.55542,
-0.00762939,0.572205,
0.00457764,0.593567,
0.0152588,0.654602,
0.0244141,0.628662,
0.0289917,0.559998,
0.0411987,0.576782,
0.0518799,0.610352,
0.0564575,0.65918,
0.0671387,0.645447,
0.0762939,0.556946,
0.0823975,0.57373,
0.0823975,0.613403,
0.0854492,0.656128,
0.0869751,0.636292,
0.0869751,0.556946,
0.0823975,0.576782,
0.0793457,0.613403,
0.0762939,0.656128,
0.0778198,0.628662,
0.0671387,0.558472,
0.0610352,0.57373,
0.0549316,0.610352,
0.0488281,0.657654,
0.0411987,0.63324,
0.0366211,0.561523,
0.0244141,0.569153,
0.0106812,0.613403,
0.00457764,0.657654,
-0.00305176,0.634766,
-0.0137329,0.556946,
-0.0213623,0.579834,
-0.0289917,0.605774,
-0.038147,0.627136,
-0.0457764,0.610352,
-0.0579834,0.556946,
-0.0656128,0.57373,
-0.0762939,0.610352,
-0.088501,0.65918,
-0.102234,0.639343,
-0.115967,0.559998,
-0.125122,0.613403,
-0.141907,0.611877,
-0.15564,0.665283,
-0.167847,0.637817,
-0.183105,0.556946,
-0.198364,0.572205,
-0.218201,0.610352,
-0.231934,0.657654,
-0.248718,0.637817,
-0.262451,0.563049,
-0.280762,0.566101,
-0.291443,0.608826,
-0.302124,0.654602,
-0.314331,0.645447,
-0.325012,0.556946,
-0.332642,0.569153,
-0.346375,0.614929,
-0.357056,0.665283,
-0.370789,0.65155,
-0.379944,0.55542,
-0.389099,0.570679,
-0.402832,0.613403,
-0.421143,0.657654,
-0.430298,0.646973,
-0.445557,0.567627,
-0.465393,0.569153,
-0.476074,0.613403,
-0.494385,0.660706,
-0.506592,0.636292,
-0.520325,0.556946,
-0.526428,0.572205,
-0.537109,0.608826,
-0.553894,0.654602,
-0.567627,0.639343,
-0.579834,0.567627,
-0.593567,0.572205,
-0.608826,0.613403,
-0.614929,0.643921,
-0.624084,0.637817,
-0.63324,0.556946,
-0.639343,0.558472,
-0.650024,0.6073,
-0.657654,0.65918,
-0.665283,0.648499,
-0.672913,0.559998,
-0.683594,0.627136,
-0.692749,0.6073,
-0.704956,0.654602,
-0.709534,0.639343,
-0.714111,0.55542,
-0.726318,0.553894,
-0.735474,0.611877,
-0.743103,0.627136,
-0.752258,0.640869,
-0.764465,0.558472,
-0.775146,0.567627,
-0.784302,0.613403,
-0.799561,0.662231,
-0.805664,0.642395,
-0.817871,0.558472,
-0.831604,0.561523,
-0.843811,0.613403,
-0.852966,0.660706,
-0.865173,0.640869,
-0.87738,0.556946,
-0.889587,0.566101,
-0.904846,0.611877,
-0.917053,0.656128,
-0.921631,0.642395,
-0.933838,0.561523,
-0.941467,0.566101,
-0.952148,0.610352,
-0.968933,0.657654,
-0.982666,0.646973,
-0.991821,0.567627,
-1.00708,0.559998,
-1.01776,0.628662,
-1.03607,0.656128,
-1.04675,0.643921,
-1.06354,0.561523,
-1.07574,0.566101,
-1.0849,0.613403,
-1.09711,0.65918,
-1.10779,0.643921,
-1.11847,0.558472,
-1.1261,0.563049,
-1.12762,0.614929,
-1.12915,0.656128,
-1.1261,0.640869,
-1.11694,0.561523,
-1.10626,0.566101,
-1.08185,0.610352,
-1.05591,0.65918,
-1.02539,0.642395,
-0.990295,0.559998,
-0.952148,0.559998,
-0.909424,0.578308,
-0.862122,0.65918,
-0.805664,0.643921,
-0.752258,0.569153,
-0.700378,0.566101,
-0.642395,0.602722,
-0.585938,0.656128,
-0.526428,0.645447,
-0.463867,0.561523,
-0.405884,0.566101,
-0.349426,0.611877,
-0.291443,0.662231,
-0.233459,0.628662,
-0.180054,0.561523,
-0.126648,0.561523,
-0.0808716,0.617981,
-0.0335693,0.65918,
0.0106812,0.645447,
0.050354,0.559998,
0.0839233,0.563049,
0.119019,0.616455,
0.143433,0.660706,
0.163269,0.645447,
0.177002,0.563049,
0.190735,0.567627,
0.19989,0.611877,
0.216675,0.660706,
0.224304,0.643921,
0.230408,0.563049,
0.230408,0.578308,
0.233459,0.616455,
0.236511,0.657654,
0.234985,0.645447,
0.234985,0.567627,
0.234985,0.570679,
0.230408,0.604248,
0.231934,0.653076,
0.22583,0.646973,
0.221252,0.563049,
0.213623,0.572205,
0.202942,0.621033,
0.193787,0.672913,
0.18158,0.648499,
0.164795,0.566101,
0.144958,0.567627,
0.128174,0.614929,
0.112915,0.671387,
0.0946045,0.646973,
0.0823975,0.582886,
0.0717163,0.57373,
0.0549316,0.610352,
0.0396729,0.657654,
0.0244141,0.650024,
0.0152588,0.567627,
0.00152588,0.563049,
-0.0137329,0.610352,
-0.0213623,0.656128,
-0.0320435,0.65155,
-0.0396729,0.628662,
-0.0473022,0.567627,
-0.0610352,0.616455,
-0.0656128,0.656128,
-0.0717163,0.646973,
-0.0732422,0.566101,
-0.0808716,0.561523,
-0.0823975,0.611877,
-0.0915527,0.636292,
-0.0930786,0.645447,
-0.0946045,0.559998,
-0.0946045,0.566101,
-0.088501,0.617981,
-0.0854492,0.65918,
-0.0808716,0.648499,
-0.0778198,0.559998,
-0.0671387,0.567627,
-0.062561,0.611877,
-0.0549316,0.65918,
-0.0518799,0.648499,
-0.0488281,0.569153,
-0.0411987,0.567627,
-0.0335693,0.6073,
-0.0305176,0.65918,
-0.0228882,0.646973,
-0.0152588,0.567627,
-0.012207,0.561523,
-0.00457764,0.613403,
0.00610352,0.65918,
0.0106812,0.648499,
0.012207,0.570679,
0.0152588,0.567627,
0.0183105,0.613403,
0.0183105,0.660706,
0.0213623,0.648499,
0.0228882,0.570679,
0.0228882,0.566101,
0.0213623,0.610352,
0.0198364,0.640869,
0.0167847,0.645447,
0.0106812,0.575256,
0.00457764,0.566101,
0.00152588,0.610352,
-0.00762939,0.657654,
-0.012207,0.645447,
-0.0198364,0.57373,
-0.0335693,0.563049,
-0.0442505,0.608826,
-0.062561,0.657654,
-0.0732422,0.645447,
-0.0854492,0.57373,
-0.100708,0.559998,
-0.119019,0.611877,
-0.131226,0.657654,
-0.146484,0.643921,
-0.164795,0.572205,
-0.186157,0.561523,
-0.204468,0.614929,
-0.221252,0.657654,
-0.238037,0.648499,
-0.257874,0.578308,
-0.285339,0.563049,
-0.305176,0.616455,
-0.325012,0.654602,
-0.343323,0.646973,
-0.361633,0.572205,
-0.375366,0.558472,
-0.398254,0.616455,
-0.416565,0.656128,
-0.428772,0.646973,
-0.440979,0.57373,
-0.462341,0.559998,
-0.4776,0.614929,
-0.492859,0.654602,
-0.511169,0.650024,
-0.521851,0.576782,
-0.534058,0.559998,
-0.547791,0.610352,
-0.563049,0.657654,
-0.576782,0.645447,
-0.588989,0.572205,
-0.602722,0.558472,
-0.614929,0.613403,
-0.631714,0.654602,
-0.639343,0.648499,
-0.653076,0.576782,
-0.663757,0.558472,
-0.669861,0.602722,
-0.682068,0.662231,
-0.695801,0.645447,
-0.708008,0.576782,
-0.724792,0.556946,
-0.737,0.610352,
-0.752258,0.65918,
-0.762939,0.648499,
-0.770569,0.592041,
-0.778198,0.556946,
-0.790405,0.614929,
-0.802612,0.657654,
-0.814819,0.645447,
-0.827026,0.575256,
-0.840759,0.556946,
-0.857544,0.614929,
-0.869751,0.653076,
-0.87738,0.643921,
-0.891113,0.576782,
-0.907898,0.556946,
-0.921631,0.610352,
-0.93689,0.654602,
-0.949097,0.648499,
-0.958252,0.57373,
-0.967407,0.559998,
-0.976563,0.613403,
-0.987244,0.648499,
-0.996399,0.63324,
-1.00708,0.576782,
-1.01624,0.549316,
-1.02539,0.683594,
-1.03302,0.653076,
-1.04523,0.636292,
-1.05438,0.575256,
-1.07117,0.55542,
-1.0849,0.611877,
-1.09711,0.654602,
-1.11389,0.642395,
-1.12915,0.576782,
-1.13678,0.556946,
-1.14899,0.611877,
-1.15967,0.653076,
-1.17493,0.643921,
-1.18256,0.579834,
-1.19476,0.558472,
-1.21002,0.616455,
-1.22375,0.666809,
-1.23291,0.640869,
-1.25275,0.575256,
-1.26038,0.55542,
-1.27106,0.610352,
-1.28784,0.653076,
-1.29852,0.645447,
-1.30615,0.561523,
-1.31378,0.569153,
-1.31683,0.614929,
-1.31378,0.65918,
-1.30005,0.642395,
-1.29089,0.578308,
-1.26343,0.558472,
-1.23444,0.622559,
-1.19781,0.656128,
-1.15051,0.645447,
-1.10474,0.579834,
-1.05591,0.553894,
-1.00555,0.614929,
-0.947571,0.654602,
-0.891113,0.640869,
-0.827026,0.582886,
-0.765991,0.556946,
-0.700378,0.619507,
-0.636292,0.650024,
-0.572205,0.643921,
-0.511169,0.575256,
-0.453186,0.55542,
-0.393677,0.614929,
-0.338745,0.668335,
-0.27771,0.645447,
-0.22583,0.578308,
-0.178528,0.552368,
-0.131226,0.611877,
-0.088501,0.653076,
-0.0457764,0.640869,
-0.012207,0.575256,
0.0213623,0.553894,
0.0473022,0.621033,
0.0732422,0.65155,
0.0915527,0.640869,
0.114441,0.58136,
0.1297,0.552368,
0.141907,0.616455,
0.154114,0.660706,
0.160217,0.640869,
0.169373,0.582886,
0.175476,0.566101,
0.177002,0.6073,
0.175476,0.63324,
0.167847,0.642395,
0.169373,0.582886,
0.163269,0.55542,
0.15564,0.614929,
0.149536,0.654602,
0.141907,0.639343,
0.132751,0.587463,
0.120544,0.550842,
0.112915,0.613403,
0.10376,0.656128,
0.0930786,0.642395,
0.0854492,0.58136,
0.0701904,0.549316,
0.0564575,0.610352,
0.0427246,0.653076,
0.0213623,0.640869,
0.00762939,0.585938,
-0.0106812,0.553894,
-0.0289917,0.614929,
-0.0457764,0.653076,
-0.0610352,0.642395,
-0.0808716,0.592041,
-0.0991821,0.572205,
-0.115967,0.616455,
-0.126648,0.654602,
-0.135803,0.640869,
-0.154114,0.584412,
-0.167847,0.553894,
-0.178528,0.613403,
-0.187683,0.648499,
-0.192261,0.637817,
-0.204468,0.58136,
-0.213623,0.552368,
-0.216675,0.613403,
-0.222778,0.654602,
-0.222778,0.637817,
-0.22583,0.582886,
-0.22583,0.553894,
-0.228882,0.610352,
-0.227356,0.65155,
-0.227356,0.640869,
-0.228882,0.579834,
-0.22583,0.55542,
-0.227356,0.610352,
-0.218201,0.648499,
-0.210571,0.637817,
-0.201416,0.587463,
-0.193787,0.553894,
-0.187683,0.605774,
-0.180054,0.646973,
-0.170898,0.639343,
-0.164795,0.585938,
-0.163269,0.552368,
-0.158691,0.62561,
-0.157166,0.604248,
-0.15564,0.631714,
-0.154114,0.58136,
-0.158691,0.553894,
-0.166321,0.6073,
-0.167847,0.650024,
-0.175476,0.634766,
-0.183105,0.592041,
-0.193787,0.553894,
-0.198364,0.611877,
-0.201416,0.648499,
-0.216675,0.636292,
-0.222778,0.592041,
-0.228882,0.550842,
-0.242615,0.6073,
-0.250244,0.648499,
-0.260925,0.636292,
-0.270081,0.584412,
-0.283813,0.547791,
-0.296021,0.622559,
-0.306702,0.654602,
-0.325012,0.639343,
-0.3479,0.582886,
-0.364685,0.553894,
-0.379944,0.610352,
-0.393677,0.645447,
-0.408936,0.636292,
-0.427246,0.587463,
-0.440979,0.552368,
-0.463867,0.592041,
-0.476074,0.645447,
-0.488281,0.593567,
-0.505066,0.579834,
-0.526428,0.552368,
-0.541687,0.605774,
-0.559998,0.645447,
-0.572205,0.639343,
-0.593567,0.595093,
-0.608826,0.550842,
-0.62561,0.614929,
-0.640869,0.65155,
-0.65918,0.691223,
-0.672913,0.616455,
-0.689697,0.553894,
-0.704956,0.608826,
-0.721741,0.646973,
-0.738525,0.63324,
-0.761414,0.588989,
-0.779724,0.547791,
-0.804138,0.605774,
-0.817871,0.645447,
-0.834656,0.628662,
-0.852966,0.584412,
-0.871277,0.549316,
-0.88501,0.608826,
-0.904846,0.65155,
-0.917053,0.636292,
-0.933838,0.587463,
-0.947571,0.549316,
-0.964355,0.610352,
-0.982666,0.648499,
-0.994873,0.63324,
-1.01166,0.590515,
-1.02081,0.549316,
-1.02997,0.614929,
-1.0376,0.642395,
-1.05133,0.619507,
-1.06201,0.587463,
-1.0788,0.558472,
-1.08948,0.608826,
-1.09711,0.640869,
-1.11237,0.631714,
-1.12305,0.585938,
-1.13373,0.550842,
-1.14288,0.613403,
-1.15356,0.614929,
-1.16119,0.621033,
-1.17645,0.587463,
-1.18561,0.549316,
-1.19476,0.608826,
-1.20544,0.636292,
-1.21613,0.631714,
-1.22375,0.617981,
-1.23749,0.549316,
-1.24512,0.6073,
-1.25885,0.642395,
-1.26648,0.631714,
-1.28174,0.588989,
-1.29395,0.550842,
-1.31226,0.610352,
-1.32446,0.642395,
-1.3382,0.63324,
-1.35345,0.590515,
-1.36871,0.547791,
-1.3855,0.613403,
-1.39771,0.643921,
-1.40686,0.628662,
-1.41907,0.585938,
-1.43127,0.546265,
-1.44958,0.6073,
-1.45874,0.639343,
-1.47705,0.631714,
-1.49231,0.587463,
-1.50299,0.546265,
-1.51825,0.608826,
-1.52588,0.640869,
-1.54114,0.627136,
-1.54877,0.590515,
-1.55334,0.543213,
-1.55029,0.611877,
-1.53809,0.640869,
-1.5213,0.622559,
-1.49689,0.588989,
-1.46484,0.540161,
-1.43433,0.608826,
-1.39465,0.643921,
-1.35193,0.62561,
-1.30463,0.588989,
-1.25732,0.550842,
-1.19934,0.611877,
-1.13983,0.643921,
-1.08032,0.624084,
-1.01624,0.598145,
-0.947571,0.55542,
-0.881958,0.608826,
-0.810242,0.694275,
-0.740051,0.592041,
-0.672913,0.595093,
-0.605774,0.523376,
-0.546265,0.613403,
-0.479126,0.640869,
-0.418091,0.627136,
-0.360107,0.585938,
-0.305176,0.544739,
-0.256348,0.611877,
-0.212097,0.639343,
-0.166321,0.627136,
-0.131226,0.588989,
-0.0961304,0.547791,
-0.0671387,0.611877,
-0.038147,0.640869,
-0.0183105,0.62561,
0.00610352,0.587463,
0.0259399,0.549316,
0.0427246,0.611877,
0.0534058,0.643921,
0.0610352,0.62561,
0.0701904,0.575256,
0.0747681,0.549316,
0.0793457,0.6073,
0.0823975,0.637817,
0.0823975,0.624084,
0.0793457,0.588989,
0.0747681,0.549316,
0.0701904,0.610352,
0.062561,0.627136,
0.0610352,0.624084,
0.050354,0.585938,
0.0396729,0.544739,
0.0274658,0.613403,
0.0167847,0.639343,
0.00915527,0.614929,
0.00152588,0.569153,
-0.012207,0.550842,
-0.0244141,0.610352,
-0.0427246,0.636292,
-0.0579834,0.622559,
-0.0747681,0.587463,
-0.0930786,0.549316,
-0.112915,0.614929,
-0.1297,0.636292,
-0.146484,0.619507,
-0.15564,0.595093,
-0.17395,0.549316,
-0.183105,0.611877,
-0.195313,0.63324,
-0.205994,0.62561,
-0.216675,0.59967,
-0.22583,0.549316,
-0.236511,0.613403,
-0.248718,0.637817,
-0.254822,0.624084,
-0.262451,0.588989,
-0.267029,0.552368,
-0.270081,0.59967,
-0.27771,0.631714,
-0.27771,0.622559,
-0.285339,0.592041,
-0.285339,0.546265,
-0.283813,0.610352,
-0.280762,0.63324,
-0.270081,0.624084,
-0.267029,0.602722,
-0.262451,0.550842,
-0.259399,0.6073,
-0.254822,0.634766,
-0.253296,0.622559,
-0.244141,0.588989,
-0.238037,0.550842,
-0.230408,0.6073,
-0.224304,0.636292,
-0.216675,0.622559,
-0.219727,0.588989,
-0.213623,0.550842,
-0.212097,0.6073,
-0.212097,0.640869,
-0.210571,0.636292,
-0.205994,0.592041,
-0.209045,0.59967,
-0.204468,0.608826,
-0.205994,0.639343,
-0.205994,0.621033,
-0.210571,0.592041,
-0.213623,0.550842,
-0.219727,0.611877,
-0.218201,0.636292,
-0.221252,0.619507,
-0.22583,0.593567,
-0.22583,0.549316,
-0.234985,0.6073,
-0.238037,0.63324,
-0.245667,0.624084,
-0.259399,0.575256,
-0.267029,0.552368,
-0.280762,0.611877,
-0.294495,0.636292,
-0.30365,0.624084,
-0.315857,0.601196,
-0.32959,0.553894,
-0.350952,0.6073,
-0.367737,0.631714,
-0.384521,0.621033,
-0.398254,0.595093,
-0.415039,0.544739,
-0.437927,0.610352,
-0.457764,0.631714,
-0.474548,0.622559,
-0.491333,0.592041,
-0.511169,0.550842,
-0.52948,0.595093,
-0.547791,0.631714,
-0.564575,0.621033,
-0.578308,0.590515,
-0.592041,0.550842,
-0.6073,0.608826,
-0.621033,0.636292,
-0.637817,0.616455,
-0.657654,0.588989,
-0.674438,0.552368,
-0.686646,0.610352,
-0.70343,0.62561,
-0.718689,0.611877,
-0.740051,0.653076,
-0.758362,0.543213,
-0.772095,0.624084,
-0.787354,0.63324,
-0.805664,0.616455,
-0.822449,0.592041,
-0.836182,0.55542,
-0.85144,0.611877,
-0.875854,0.617981,
-0.888062,0.613403,
-0.906372,0.593567,
-0.917053,0.552368,
-0.927734,0.610352,
-0.946045,0.631714,
-0.959778,0.616455,
-0.973511,0.588989,
-0.993347,0.553894,
-1.01166,0.604248,
-1.03302,0.628662,
-1.05286,0.616455,
-1.07117,0.595093,
-1.08795,0.553894,
-1.10474,0.605774,
-1.11694,0.587463,
-1.13373,0.617981,
-1.14899,0.601196,
-1.15814,0.553894,
-1.1734,0.604248,
-1.18561,0.643921,
-1.19629,0.604248,
-1.21002,0.567627,
-1.2207,0.546265,
-1.23444,0.608826,
-1.24512,0.62561,
-1.26038,0.613403,
-1.27563,0.590515,
-1.28632,0.558472,
-1.297,0.614929,
-1.3092,0.584412,
-1.31683,0.619507,
-1.32599,0.588989,
-1.34735,0.552368,
-1.35803,0.601196,
-1.37177,0.62561,
-1.3855,0.613403,
-1.39618,0.611877,
-1.41754,0.550842,
-1.4328,0.602722,
-1.45264,0.624084,
-1.46637,0.613403,
-1.48773,0.592041,
-1.50299,0.553894,
-1.51978,0.6073,
-1.54114,0.631714,
-1.55792,0.614929,
-1.57318,0.592041,
-1.58844,0.553894,
-1.60065,0.595093,
-1.61133,0.619507,
-1.62659,0.628662,
-1.63879,0.592041,
-1.65253,0.549316,
-1.66779,0.604248,
-1.68152,0.62561,
-1.70135,0.614929,
-1.71814,0.590515,
-1.73035,0.558472,
-1.74561,0.602722,
-1.75781,0.627136,
-1.76849,0.613403,
-1.7807,0.590515,
-1.78986,0.550842,
-1.79596,0.604248,
-1.80054,0.622559,
-1.79901,0.614929,
-1.79291,0.593567,
-1.77917,0.550842,
-1.75934,0.598145,
-1.73035,0.624084,
-1.69373,0.611877,
-1.64948,0.592041,
-1.60675,0.553894,
-1.55182,0.595093,
-1.49078,0.619507,
-1.4267,0.613403,
-1.36261,0.590515,
-1.29547,0.550842,
-1.21918,0.602722,
-1.14441,0.622559,
-1.06812,0.614929,
-0.991821,0.592041,
-0.912476,0.55542,
-0.842285,0.58136,
-0.764465,0.62561,
-0.691223,0.611877,
-0.621033,0.593567,
-0.553894,0.550842,
-0.491333,0.604248,
-0.436401,0.619507,
-0.38147,0.614929,
-0.335693,0.604248,
-0.292969,0.550842,
-0.25177,0.602722,
-0.213623,0.624084,
-0.178528,0.614929,
-0.152588,0.590515,
-0.125122,0.549316,
-0.100708,0.601196,
-0.0839233,0.622559,
-0.062561,0.611877,
-0.0518799,0.585938,
-0.0411987,0.550842,
-0.0289917,0.598145,
-0.0213623,0.621033,
-0.0152588,0.613403,
-0.0106812,0.602722,
-0.0167847,0.55542,
-0.0228882,0.601196,
-0.0305176,0.608826,
-0.0396729,0.613403,
-0.050354,0.587463,
-0.062561,0.550842,
-0.0747681,0.590515,
-0.088501,0.622559,
-0.102234,0.613403,
-0.115967,0.590515,
-0.1297,0.552368,
-0.149536,0.601196,
-0.164795,0.624084,
-0.186157,0.613403,
-0.202942,0.593567,
-0.227356,0.550842,
-0.250244,0.598145,
-0.274658,0.62561,
-0.294495,0.611877,
-0.315857,0.587463,
-0.334167,0.552368,
-0.350952,0.601196,
-0.364685,0.619507,
-0.37384,0.613403,
-0.389099,0.588989,
-0.402832,0.552368,
-0.408936,0.598145,
-0.421143,0.616455,
-0.42572,0.611877,
-0.434875,0.595093,
-0.437927,0.552368,
-0.448608,0.59967,
-0.448608,0.622559,
-0.45166,0.613403,
-0.453186,0.593567,
-0.454712,0.546265,
-0.453186,0.595093,
-0.45166,0.624084,
-0.453186,0.608826,
-0.448608,0.588989,
-0.448608,0.550842,
-0.442505,0.59967,
-0.434875,0.622559,
-0.42572,0.611877,
-0.416565,0.585938,
-0.402832,0.552368,
-0.396729,0.593567,
-0.389099,0.611877,
-0.38147,0.613403,
-0.372314,0.588989,
-0.367737,0.550842,
-0.360107,0.595093,
-0.363159,0.622559,
-0.360107,0.616455,
-0.360107,0.585938,
-0.358582,0.550842,
-0.360107,0.6073,
-0.358582,0.622559,
-0.357056,0.616455,
-0.361633,0.588989,
-0.363159,0.546265,
-0.367737,0.593567,
-0.37384,0.622559,
-0.379944,0.614929,
-0.386047,0.585938,
-0.390625,0.550842,
-0.402832,0.593567,
-0.416565,0.621033,
-0.421143,0.610352,
-0.43335,0.588989,
-0.440979,0.549316,
-0.45166,0.595093,
-0.468445,0.621033,
-0.479126,0.610352,
-0.498962,0.587463,
-0.520325,0.558472,
-0.532532,0.598145,
-0.546265,0.624084,
-0.564575,0.613403,
-0.582886,0.584412,
-0.598145,0.549316,
-0.610352,0.595093,
-0.630188,0.619507,
-0.643921,0.611877,
-0.663757,0.590515,
-0.682068,0.552368,
-0.701904,0.598145,
-0.720215,0.622559,
-0.743103,0.610352,
-0.769043,0.590515,
-0.790405,0.552368,
-0.813293,0.592041,
-0.834656,0.619507,
-0.857544,0.601196,
-0.883484,0.543213,
-0.90332,0.556946,
-0.924683,0.595093,
-0.946045,0.617981,
-0.967407,0.617981,
-0.982666,0.588989,
-1.00861,0.540161,
-1.02692,0.57373,
-1.0437,0.584412,
-1.07117,0.616455,
-1.08795,0.587463,
-1.11084,0.550842,
-1.12762,0.590515,
-1.14899,0.621033,
-1.16577,0.614929,
-1.18561,0.587463,
-1.20697,0.549316,
-1.22528,0.590515,
-1.23596,0.619507,
-1.26038,0.614929,
-1.28021,0.584412,
-1.29852,0.552368,
-1.31378,0.587463,
-1.33209,0.621033,
-1.35498,0.614929,
-1.37482,0.590515,
-1.39313,0.550842,
-1.41296,0.593567,
-1.4328,0.622559,
-1.45264,0.616455,
-1.46942,0.587463,
-1.48621,0.549316,
-1.50146,0.590515,
-1.52435,0.619507,
-1.53961,0.614929,
-1.55487,0.590515,
-1.57166,0.524902,
-1.58386,0.587463,
-1.59912,0.617981,
-1.60828,0.614929,
-1.62964,0.595093,
-1.63727,0.549316,
-1.65405,0.590515,
-1.66168,0.617981,
-1.67847,0.621033,
-1.69067,0.587463,
-1.70441,0.549316,
-1.71814,0.588989,
-1.73645,0.619507,
-1.75171,0.617981,
-1.76086,0.587463,
-1.77002,0.550842,
-1.77917,0.579834,
-1.79596,0.616455,
-1.80511,0.617981,
-1.81122,0.592041,
-1.81885,0.55542,
-1.82953,0.584412,
-1.84479,0.617981,
-1.86005,0.617981,
-1.87225,0.585938,
-1.88446,0.553894,
-1.89819,0.582886,
-1.91193,0.617981,
-1.92719,0.608826,
-1.93634,0.588989,
-1.94855,0.553894,
-1.96533,0.582886,
-1.97906,0.617981,
-1.99127,0.624084,
-2.00653,0.585938,
-2.02026,0.552368,
-2.03247,0.572205,
-2.0462,0.59967,
-2.05994,0.617981,
-2.07367,0.587463,
-2.08893,0.55542,
-2.10419,0.576782,
-2.1225,0.617981,
-2.13623,0.621033,
-2.14844,0.585938,
-2.15912,0.552368,
-2.1759,0.579834,
-2.18658,0.614929,
-2.19879,0.621033,
-2.20795,0.587463,
-2.21558,0.556946,
-2.21558,0.57373,
-2.21558,0.616455,
-2.2049,0.622559,
-2.18964,0.567627,
-2.16827,0.552368,
-2.14233,0.538635,
-2.10266,0.608826,
-2.05994,0.621033,
-2.00958,0.593567,
-1.9577,0.556946,
-1.89362,0.578308,
-1.82648,0.616455,
-1.75781,0.622559,
-1.68304,0.587463,
-1.60675,0.556946,
-1.53046,0.578308,
-1.45721,0.617981,
-1.37787,0.62561,
-1.297,0.587463,
-1.21613,0.552368,
-1.13373,0.572205,
-1.05591,0.617981,
-0.979614,0.624084,
-0.907898,0.582886,
-0.839233,0.552368,
-0.773621,0.575256,
-0.717163,0.619507,
-0.656128,0.627136,
-0.59967,0.587463,
-0.558472,0.550842,
-0.506592,0.578308,
-0.465393,0.622559,
-0.427246,0.624084,
-0.390625,0.58136,
-0.358582,0.549316,
-0.335693,0.575256,
-0.318909,0.616455,
-0.306702,0.624084,
-0.291443,0.584412,
-0.280762,0.552368,
-0.273132,0.57373,
-0.270081,0.634766,
-0.270081,0.627136,
-0.270081,0.58136,
-0.274658,0.55542,
-0.285339,0.572205,
-0.292969,0.616455,
-0.30365,0.631714,
-0.312805,0.59967,
-0.32959,0.55542,
-0.343323,0.572205,
-0.366211,0.621033,
-0.379944,0.624084,
-0.39978,0.58136,
-0.422668,0.552368,
-0.448608,0.563049,
-0.469971,0.627136,
-0.492859,0.631714,
-0.517273,0.585938,
-0.540161,0.538635,
-0.564575,0.57373,
-0.590515,0.624084,
-0.613403,0.605774,
-0.634766,0.585938,
-0.657654,0.553894,
-0.679016,0.569153,
-0.700378,0.617981,
-0.720215,0.62561,
-0.741577,0.585938,
-0.759888,0.550842,
-0.773621,0.559998,
-0.788879,0.619507,
-0.802612,0.622559,
-0.813293,0.585938,
-0.823975,0.553894,
-0.834656,0.572205,
-0.834656,0.621033,
-0.839233,0.622559,
-0.843811,0.584412,
-0.843811,0.553894,
-0.845337,0.576782,
-0.846863,0.617981,
-0.843811,0.604248,
-0.834656,0.587463,
-0.828552,0.55542,
-0.822449,0.570679,
-0.814819,0.621033,
-0.80719,0.62561,
-0.799561,0.584412,
-0.787354,0.55542,
-0.782776,0.567627,
-0.767517,0.622559,
-0.761414,0.616455,
-0.75531,0.584412,
-0.749207,0.524902,
-0.740051,0.572205,
-0.72937,0.614929,
-0.720215,0.63324,
-0.71106,0.576782,
-0.706482,0.553894,
-0.70343,0.595093,
-0.701904,0.671387,
-0.698853,0.617981,
-0.694275,0.579834,
-0.694275,0.553894,
-0.697327,0.569153,
-0.701904,0.622559,
-0.700378,0.6073,
-0.704956,0.569153,
-0.708008,0.553894,
-0.717163,0.567627,
-0.721741,0.621033,
-0.726318,0.624084,
-0.735474,0.582886,
-0.743103,0.553894,
-0.75531,0.567627,
-0.767517,0.616455,
-0.782776,0.627136,
-0.796509,0.587463,
-0.813293,0.55542,
-0.827026,0.563049,
-0.840759,0.614929,
-0.852966,0.624084,
-0.872803,0.58136,
-0.881958,0.553894,
-0.901794,0.569153,
-0.915527,0.616455,
-0.932312,0.634766,
-0.950623,0.58136,
-0.965881,0.55542,
-0.987244,0.575256,
-1.00708,0.627136,
-1.02844,0.627136,
-1.04828,0.588989,
-1.06964,0.561523,
-1.08643,0.569153,
-1.10321,0.622559,
-1.12457,0.628662,
-1.14288,0.585938,
-1.16272,0.559998,
-1.18561,0.575256,
-1.20544,0.608826,
-1.22681,0.62561,
-1.25122,0.582886,
-1.26953,0.569153,
-1.28937,0.567627,
-1.31378,0.639343,
-1.33209,0.62561,
-1.3504,0.572205,
-1.37024,0.553894,
-1.39008,0.567627,
-1.40533,0.621033,
-1.42822,0.608826,
-1.44958,0.561523,
-1.4679,0.553894,
-1.48621,0.559998,
-1.50452,0.631714,
-1.52435,0.628662,
-1.54266,0.578308,
-1.5625,0.572205,
-1.58081,0.558472,
-1.60217,0.588989,
-1.61896,0.624084,
-1.63422,0.582886,
-1.64948,0.55542,
-1.66321,0.567627,
-1.68152,0.637817,
-1.69678,0.65918,
-1.71204,0.593567,
-1.72729,0.511169,
-1.74408,0.55542,
-1.76086,0.63324,
-1.7746,0.627136,
-1.79138,0.58136,
-1.80206,0.558472,
-1.81274,0.567627,
-1.8219,0.627136,
-1.83258,0.631714,
-1.84021,0.584412,
-1.85394,0.556946,
-1.86462,0.563049,
-1.87225,0.621033,
-1.88293,0.628662,
-1.89514,0.585938,
-1.90887,0.566101,
-1.91803,0.566101,
-1.93024,0.627136,
-1.94244,0.631714,
-1.95313,0.582886,
-1.96381,0.556946,
-1.97449,0.563049,
-1.98669,0.63324,
-2.00195,0.627136,
-2.01416,0.576782,
-2.03094,0.541687,
-2.04163,0.544739,
-2.05536,0.588989,
-2.06909,0.628662,
-2.07977,0.582886,
-2.09656,0.558472,
-2.10724,0.569153,
-2.12097,0.62561,
-2.13776,0.631714,
-2.15302,0.585938,
-2.17133,0.553894,
-2.18811,0.559998,
-2.20642,0.631714,
-2.22015,0.631714,
-2.23236,0.584412,
-2.24915,0.559998,
-2.26593,0.567627,
-2.27966,0.627136,
-2.29797,0.631714,
-2.31476,0.595093,
-2.32697,0.558472,
-2.34222,0.558472,
-2.35138,0.631714,
-2.35901,0.617981,
-2.36969,0.582886,
-2.37885,0.540161,
-2.3819,0.569153,
-2.37732,0.624084,
-2.36664,0.639343,
-2.34833,0.604248,
-2.32391,0.552368,
-2.29034,0.628662,
-2.25677,0.62561,
-2.2049,0.63324,
-2.15302,0.585938,
-2.09198,0.559998,
-2.02637,0.576782,
-1.95923,0.628662,
-1.88141,0.63324,
-1.80206,0.650024,
-1.71204,0.559998,
-1.62964,0.563049,
-1.55029,0.62561,
-1.4679,0.631714,
-1.38397,0.579834,
-1.30615,0.559998,
-1.22833,0.566101,
-1.15356,0.628662,
-1.08032,0.63324,
-1.01013,0.585938,
-0.942993,0.558472,
-0.871277,0.570679,
-0.808716,0.640869,
-0.750732,0.636292,
-0.700378,0.585938,
-0.656128,0.558472,
-0.608826,0.563049,
-0.569153,0.627136,
-0.537109,0.631714,
-0.505066,0.585938,
-0.4776,0.550842,
-0.450134,0.570679,
-0.434875,0.634766,
-0.419617,0.631714,
-0.404358,0.585938,
-0.398254,0.558472,
-0.395203,0.569153,
-0.392151,0.628662,
-0.386047,0.628662,
-0.386047,0.587463,
-0.390625,0.558472,
-0.398254,0.561523,
-0.408936,0.627136,
-0.416565,0.636292,
-0.431824,0.585938,
-0.448608,0.561523,
-0.465393,0.566101,
-0.486755,0.627136,
-0.512695,0.634766,
-0.537109,0.582886,
-0.566101,0.559998,
-0.587463,0.566101,
-0.610352,0.631714,
-0.634766,0.634766,
-0.660706,0.585938,
-0.689697,0.55542,
-0.712585,0.559998,
-0.740051,0.63324,
-0.769043,0.636292,
-0.790405,0.584412,
-0.823975,0.538635,
-0.846863,0.558472,
-0.874329,0.62561,
-0.892639,0.646973,
-0.91095,0.587463,
-0.930786,0.558472,
-0.949097,0.563049,
-0.959778,0.62561,
-0.979614,0.63324,
-0.990295,0.593567,
-0.999451,0.514221,
-1.01166,0.566101,
-1.02081,0.62561,
-1.02539,0.631714,
-1.02692,0.590515,
-1.02844,0.566101,
-1.02234,0.57373,
-1.01624,0.631714,
-1.01318,0.628662,
-1.00403,0.6073,
-0.994873,0.558472,
-0.984192,0.563049,
-0.975037,0.628662,
-0.961304,0.63324,
-0.949097,0.587463,
-0.938416,0.561523,
-0.926208,0.559998,
-0.912476,0.627136,
-0.900269,0.63324,
-0.889587,0.592041,
-0.878906,0.563049,
-0.869751,0.567627,
-0.862122,0.62561,
-0.856018,0.637817,
-0.846863,0.585938,
-0.843811,0.569153,
-0.840759,0.559998,
-0.839233,0.627136,
-0.840759,0.636292,
-0.839233,0.590515,
-0.839233,0.558472,
-0.840759,0.561523,
-0.843811,0.628662,
-0.85144,0.636292,
-0.856018,0.590515,
-0.868225,0.559998,
-0.881958,0.563049,
-0.891113,0.619507,
-0.906372,0.636292,
-0.923157,0.588989,
-0.939941,0.558472,
-0.956726,0.558472,
-0.971985,0.624084,
-0.978088,0.701904,
-0.993347,0.57373,
-1.00708,0.569153,
-1.01929,0.566101,
-1.03607,0.631714,
-1.04675,0.634766,
-1.06049,0.592041,
-1.07727,0.563049,
-1.09406,0.559998,
-1.11389,0.621033,
-1.1261,0.637817,
-1.14594,0.587463,
-1.15967,0.556946,
-1.18103,0.561523,
-1.19476,0.628662,
-1.21155,0.639343,
-1.22833,0.593567,
-1.24664,0.556946,
-1.26343,0.563049,
-1.28479,0.631714,
-1.30615,0.634766,
-1.32599,0.585938,
-1.34735,0.559998,
-1.36871,0.559998,
-1.3916,0.624084,
-1.41296,0.639343,
-1.43433,0.592041,
-1.46027,0.563049,
-1.4801,0.556946,
-1.49689,0.602722,
-1.51825,0.608826,
-1.53656,0.588989,
-1.5625,0.559998,
-1.58691,0.559998,
-1.60522,0.627136,
-1.61896,0.639343,
-1.63879,0.569153,
-1.65405,0.556946,
-1.66931,0.561523,
-1.68762,0.627136,
-1.6983,0.639343,
-1.71509,0.590515,
-1.72882,0.558472,
-1.7395,0.566101,
-1.75629,0.631714,
-1.77155,0.639343,
-1.79138,0.592041,
-1.80969,0.558472,
-1.83105,0.559998,
-1.85394,0.628662,
-1.87683,0.642395,
-1.89667,0.588989,
-1.91345,0.556946,
-1.94092,0.566101,
-1.95465,0.624084,
-1.97296,0.653076,
-1.99127,0.595093,
-2.00806,0.556946,
-2.01874,0.563049,
-2.03247,0.627136,
-2.04315,0.640869,
-2.05231,0.592041,
-2.06451,0.544739,
-2.07367,0.567627,
-2.08282,0.619507,
-2.09351,0.640869,
-2.10876,0.598145,
-2.12097,0.550842,
-2.13776,0.559998,
-2.15149,0.631714,
-2.16522,0.640869,
-2.18353,0.593567,
-2.19574,0.552368,
-2.21405,0.559998,
-2.22626,0.628662,
-2.23694,0.639343,
-2.25525,0.590515,
-2.27051,0.55542,
-2.27814,0.569153,
-2.2934,0.627136,
-2.30103,0.639343,
-2.31323,0.617981,
-2.32697,0.553894,
