-1.71509	0.627136	
-1.70441	0.630188	
-1.6922	0.628662	
-1.68304	0.628662	
-1.67389	0.624084	
-1.66626	0.624084	
-1.66016	0.627136	
-1.65405	0.627136	
-1.64642	0.627136	
-1.64032	0.628662	
-1.63269	0.627136	
-1.62964	0.628662	
-1.62659	0.630188	
-1.61896	0.622559	
-1.61743	0.621033	
-1.61591	0.624084	
-1.61438	0.628662	
-1.61133	0.624084	
-1.61133	0.628662	
-1.60828	0.630188	
-1.61133	0.628662	
-1.6098	0.628662	
-1.60675	0.624084	
-1.60675	0.622559	
-1.6098	0.624084	
-1.61438	0.628662	
-1.61285	0.622559	
-1.61591	0.628662	
-1.61743	0.628662	
-1.62048	0.630188	
-1.62201	0.624084	
-1.62506	0.630188	
-1.62964	0.628662	
-1.62964	0.627136	
-1.63269	0.627136	
-1.63727	0.627136	
-1.64032	0.628662	
-1.64642	0.627136	
-1.651	0.628662	
-1.65558	0.628662	
-1.66473	0.627136	
-1.66779	0.628662	
-1.66626	0.628662	
-1.67542	0.627136	
-1.68457	0.628662	
-1.68915	0.627136	
-1.69373	0.624084	
-1.6983	0.627136	
-1.70135	0.627136	
-1.70746	0.630188	
-1.71051	0.628662	
-1.71967	0.628662	
-1.72577	0.628662	
-1.72882	0.628662	
-1.73492	0.624084	
-1.73798	0.628662	
-1.74408	0.630188	
-1.74866	0.627136	
-1.76086	0.628662	
-1.76239	0.628662	
-1.76697	0.628662	
-1.7746	0.627136	
-1.7807	0.628662	
-1.78223	0.628662	
-1.78528	0.628662	
-1.79596	0.627136	
-1.80054	0.628662	
-1.80664	0.628662	
-1.81274	0.630188	
-1.8219	0.630188	
-1.828	0.627136	
-1.82953	0.630188	
-1.84326	0.630188	
-1.84479	0.624084	
-1.85089	0.627136	
-1.86005	0.628662	
-1.86615	0.624084	
-1.87378	0.630188	
-1.87836	0.627136	
-1.88599	0.630188	
-1.89056	0.628662	
-1.89972	0.628662	
-1.90277	0.627136	
-1.90735	0.624084	
-1.91498	0.627136	
-1.92413	0.624084	
-1.92871	0.622559	
-1.93024	0.627136	
-1.93787	0.627136	
-1.9455	0.627136	
-1.94855	0.621033	
-1.95007	0.630188	
-1.95313	0.624084	
-1.95923	0.624084	
-1.96228	0.627136	
-1.96228	0.624084	
-1.96533	0.628662	
-1.96838	0.627136	
-1.96991	0.630188	
-1.97296	0.624084	
-1.97449	0.628662	
-1.97296	0.627136	
-1.97601	0.630188	
-1.97449	0.627136	
-1.97449	0.631714	
-1.97754	0.628662	
-1.97601	0.627136	
-1.97296	0.627136	
-1.97449	0.630188	
-1.96838	0.627136	
-1.96838	0.628662	
-1.96686	0.628662	
-1.96686	0.627136	
-1.96381	0.628662	
-1.96075	0.630188	
-1.95923	0.628662	
-1.9577	0.630188	
-1.9516	0.627136	
-1.9516	0.630188	
-1.94855	0.624084	
-1.94244	0.628662	
-1.93939	0.628662	
-1.93634	0.628662	
-1.93481	0.624084	
-1.93329	0.630188	
-1.92566	0.628662	
-1.92413	0.628662	
-1.91803	0.628662	
-1.91956	0.628662	
-1.9165	0.624084	
-1.91345	0.628662	
-1.9104	0.628662	
-1.90735	0.627136	
-1.9043	0.627136	
-1.90125	0.630188	
-1.89819	0.628662	
-1.89819	0.627136	
-1.89819	0.628662	
-1.89514	0.628662	
-1.89056	0.622559	
-1.89362	0.627136	
-1.89056	0.628662	
-1.89056	0.627136	
-1.88751	0.624084	
-1.88751	0.630188	
-1.88904	0.630188	
-1.88751	0.627136	
-1.88904	0.627136	
-1.88599	0.628662	
-1.88904	0.622559	
-1.88751	0.622559	
-1.89056	0.627136	
-1.89056	0.628662	
-1.89209	0.627136	
-1.89514	0.630188	
-1.89514	0.628662	
-1.89209	0.624084	
-1.89362	0.627136	
-1.89514	0.628662	
-1.89667	0.622559	
-1.89819	0.624084	
-1.90125	0.630188	
-1.90582	0.628662	
-1.9104	0.622559	
-1.91193	0.631714	
-1.91193	0.628662	
-1.91803	0.627136	
-1.92108	0.627136	
-1.92261	0.627136	
-1.92719	0.624084	
-1.93024	0.628662	
-1.93329	0.630188	
-1.93634	0.628662	
-1.94092	0.628662	
-1.9455	0.630188	
-1.9516	0.630188	
-1.95618	0.622559	
-1.9577	0.627136	
-1.96533	0.628662	
-1.96991	0.624084	
-1.96991	0.630188	
-1.97601	0.630188	
-1.97906	0.627136	
-1.98822	0.628662	
-1.9928	0.634766	
-1.99585	0.627136	
-2.00348	0.627136	
-2.00653	0.627136	
-2.01111	0.630188	
-2.01721	0.624084	
-2.02179	0.628662	
-2.02637	0.631714	
-2.03247	0.63324	
-2.03857	0.628662	
-2.04163	0.628662	
-2.04926	0.627136	
-2.05383	0.627136	
-2.05841	0.627136	
-2.06451	0.628662	
-2.06909	0.628662	
-2.07367	0.630188	
-2.0813	0.628662	
-2.0874	0.628662	
-2.08893	0.627136	
-2.09351	0.634766	
-2.10266	0.628662	
-2.10724	0.624084	
-2.11334	0.628662	
-2.11639	0.630188	
-2.12402	0.622559	
-2.1286	0.628662	
-2.13318	0.628662	
-2.13928	0.628662	
-2.14539	0.628662	
-2.15149	0.630188	
-2.15454	0.630188	
-2.16064	0.628662	
-2.16827	0.624084	
-2.1698	0.628662	
-2.17438	0.621033	
-2.18353	0.628662	
-2.18811	0.628662	
-2.19269	0.624084	
-2.19727	0.627136	
-2.20337	0.634766	
-2.20795	0.627136	
-2.21558	0.627136	
-2.22015	0.627136	
-2.22473	0.630188	
-2.22931	0.624084	
-2.23694	0.624084	
-2.23999	0.627136	
-2.24609	0.630188	
-2.24915	0.627136	
-2.25677	0.634766	
-2.25983	0.630188	
-2.2644	0.630188	
-2.27203	0.630188	
-2.27356	0.630188	
-2.27661	0.624084	
-2.28424	0.627136	
-2.28729	0.630188	
-2.29187	0.631714	
-2.29797	0.627136	
-2.2995	0.631714	
-2.30713	0.631714	
-2.31018	0.628662	
-2.31323	0.628662	
-2.31781	0.628662	
-2.32239	0.622559	
-2.32697	0.624084	
-2.33002	0.631714	
-2.33612	0.630188	
-2.33917	0.628662	
-2.34222	0.631714	
-2.34528	0.63324	
-2.35138	0.627136	
-2.35596	0.628662	
-2.35748	0.630188	
-2.36053	0.624084	
-2.36969	0.630188	
-2.37274	0.628662	
-2.37732	0.628662	
-2.37885	0.630188	
-2.38647	0.634766	
-2.38647	0.628662	
-2.39105	0.624084	
-2.3941	0.628662	
-2.39868	0.631714	
-2.40631	0.619507	
-2.40784	0.630188	
-2.41089	0.63324	
-2.41394	0.630188	
-2.41852	0.627136	
-2.42004	0.631714	
-2.41852	0.627136	
-2.41852	0.628662	
-2.42004	0.628662	
-2.41852	0.630188	
-2.41852	0.624084	
-2.41852	0.624084	
-2.41241	0.628662	
-2.40631	0.631714	
-2.39868	0.63324	
-2.39105	0.63324	
-2.38495	0.628662	
-2.37122	0.628662	
-2.35748	0.627136	
-2.3407	0.630188	
-2.32391	0.622559	
-2.3056	0.630188	
-2.29187	0.628662	
-2.26593	0.628662	
-2.24609	0.630188	
-2.22321	0.634766	
-2.20642	0.627136	
-2.18048	0.627136	
-2.15759	0.628662	
-2.13165	0.627136	
-2.10724	0.624084	
-2.08435	0.630188	
-2.06299	0.628662	
-2.04163	0.628662	
-2.01721	0.628662	
-1.99738	0.636292	
-1.97601	0.631714	
-1.95465	0.628662	
-1.93481	0.627136	
-1.91803	0.628662	
-1.90125	0.622559	
-1.88293	0.628662	
-1.8631	0.630188	
-1.84631	0.628662	
-1.83563	0.630188	
-1.81427	0.634766	
-1.80359	0.628662	
-1.7868	0.630188	
-1.77612	0.624084	
-1.76392	0.630188	
-1.75171	0.627136	
-1.74103	0.628662	
-1.7334	0.628662	
-1.72577	0.630188	
-1.71204	0.630188	
-1.70593	0.636292	
-1.69983	0.63324	
-1.69373	0.627136	
-1.68762	0.628662	
-1.68304	0.630188	
-1.67542	0.624084	
-1.67236	0.628662	
-1.66931	0.628662	
-1.66321	0.628662	
-1.66016	0.630188	
-1.65863	0.63324	
-1.65863	0.631714	
-1.6571	0.628662	
-1.65405	0.630188	
-1.65558	0.628662	
-1.65558	0.627136	
-1.6571	0.628662	
-1.65558	0.627136	
-1.65863	0.631714	
-1.66168	0.628662	
-1.66168	0.634766	
-1.66626	0.631714	
-1.66626	0.628662	
-1.67084	0.628662	
-1.67389	0.630188	
-1.67694	0.624084	
-1.68152	0.628662	
-1.6861	0.628662	
-1.68915	0.630188	
-1.69525	0.631714	
-1.69983	0.63324	
-1.70288	0.628662	
-1.70898	0.630188	
-1.71356	0.630188	
-1.72272	0.627136	
-1.72577	0.628662	
-1.72882	0.628662	
-1.73492	0.628662	
-1.74255	0.630188	
-1.74866	0.631714	
-1.75476	0.634766	
-1.76544	0.63324	
-1.77002	0.628662	
-1.77612	0.627136	
-1.77765	0.628662	
-1.7868	0.622559	
-1.79291	0.627136	
-1.80359	0.627136	
-1.80817	0.628662	
-1.81427	0.630188	
-1.81885	0.63324	
-1.82953	0.630188	
-1.83716	0.630188	
-1.84479	0.628662	
-1.85242	0.630188	
-1.86005	0.624084	
-1.86615	0.624084	
-1.87378	0.627136	
-1.88293	0.630188	
-1.89056	0.630188	
-1.89972	0.63324	
-1.9043	0.630188	
-1.9165	0.628662	
-1.92566	0.631714	
-1.93176	0.630188	
-1.94092	0.628662	
-1.9516	0.628662	
-1.9577	0.630188	
-1.96686	0.631714	
-1.97754	0.631714	
-1.98669	0.631714	
-1.99585	0.634766	
-2.00195	0.628662	
-2.01263	0.631714	
-2.02179	0.631714	
-2.03247	0.624084	
-2.03857	0.630188	
-2.04773	0.631714	
-2.05688	0.628662	
-2.06451	0.630188	
-2.07214	0.63324	
-2.07672	0.630188	
-2.08588	0.624084	
-2.09198	0.628662	
-2.09808	0.630188	
-2.10571	0.628662	
-2.11029	0.630188	
-2.11182	0.631714	
-2.11945	0.628662	
-2.12402	0.631714	
-2.12402	0.634766	
-2.12708	0.631714	
-2.13165	0.631714	
-2.13318	0.630188	
-2.13623	0.630188	
-2.14081	0.630188	
-2.14233	0.628662	
-2.13928	0.631714	
-2.13318	0.630188	
-2.14081	0.628662	
-2.14081	0.630188	
-2.13928	0.636292	
-2.13623	0.627136	
-2.1347	0.631714	
-2.13165	0.630188	
-2.13013	0.627136	
-2.12708	0.631714	
-2.12555	0.63324	
-2.12097	0.631714	
-2.11945	0.63324	
-2.11792	0.631714	
-2.11029	0.63324	
-2.10724	0.628662	
-2.10266	0.630188	
-2.09351	0.631714	
-2.09198	0.630188	
-2.0874	0.628662	
-2.0813	0.630188	
-2.07825	0.630188	
-2.07672	0.631714	
-2.07062	0.630188	
-2.06757	0.630188	
-2.06299	0.631714	
-2.05536	0.630188	
-2.05231	0.631714	
-2.04773	0.628662	
-2.0462	0.630188	
-2.04163	0.628662	
-2.03857	0.630188	
-2.034	0.63324	
-2.03094	0.63324	
-2.02942	0.630188	
-2.02637	0.631714	
-2.02179	0.631714	
-2.02179	0.630188	
-2.01721	0.630188	
-2.01874	0.627136	
-2.01416	0.630188	
-2.01569	0.630188	
-2.01263	0.630188	
-2.01111	0.630188	
-2.00958	0.631714	
-2.00958	0.628662	
-2.00806	0.631714	
-2.00958	0.630188	
-2.00958	0.628662	
-2.01263	0.628662	
-2.01111	0.631714	
-2.01416	0.631714	
-2.01263	0.630188	
-2.01263	0.630188	
-2.01416	0.631714	
-2.01874	0.63324	
-2.01874	0.63324	
-2.01721	0.630188	
-2.02179	0.627136	
-2.02789	0.624084	
-2.02942	0.631714	
-2.03247	0.631714	
-2.034	0.628662	
-2.034	0.630188	
-2.03857	0.631714	
-2.0401	0.631714	
-2.04468	0.63324	
-2.04468	0.631714	
-2.04926	0.630188	
-2.05383	0.628662	
-2.05688	0.630188	
-2.05994	0.631714	
-2.06757	0.63324	
-2.07062	0.630188	
-2.07367	0.63324	
-2.07672	0.631714	
-2.08435	0.628662	
-2.08893	0.627136	
-2.09198	0.631714	
-2.09656	0.630188	
-2.10266	0.628662	
-2.10876	0.630188	
-2.11182	0.63324	
-2.11792	0.630188	
-2.12402	0.631714	
-2.1286	0.630188	
-2.13623	0.631714	
-2.14386	0.631714	
-2.14996	0.630188	
-2.15302	0.63324	
-2.15912	0.631714	
-2.16522	0.631714	
-2.17285	0.63324	
-2.17743	0.630188	
-2.18353	0.63324	
-2.19116	0.628662	
-2.19574	0.630188	
-2.19879	0.628662	
-2.20947	0.63324	
-2.21252	0.627136	
-2.22168	0.630188	
-2.22778	0.631714	
-2.23083	0.631714	
-2.23389	0.628662	
-2.23846	0.634766	
-2.24915	0.630188	
-2.25525	0.631714	
-2.2583	0.630188	
-2.26288	0.634766	
-2.26898	0.627136	
-2.27203	0.63324	
-2.27966	0.628662	
-2.28729	0.634766	
-2.29187	0.630188	
-2.29645	0.634766	
-2.3056	0.630188	
-2.30713	0.631714	
-2.31171	0.634766	
-2.31628	0.634766	
-2.32086	0.631714	
-2.32391	0.634766	
-2.33307	0.630188	
-2.33459	0.63324	
-2.33917	0.630188	
-2.34528	0.631714	
-2.3468	0.631714	
-2.34985	0.630188	
-2.35901	0.63324	
-2.35901	0.634766	
-2.36511	0.630188	
-2.36969	0.630188	
-2.37427	0.634766	
-2.37885	0.63324	
-2.38342	0.627136	
-2.38495	0.63324	
-2.38953	0.628662	
-2.39563	0.63324	
-2.40173	0.631714	
-2.40936	0.636292	
-2.40784	0.630188	
-2.41547	0.631714	
-2.41699	0.63324	
-2.4231	0.630188	
-2.42462	0.622559	
-2.4292	0.634766	
-2.43225	0.630188	
-2.43225	0.63324	
-2.43835	0.630188	
-2.44446	0.639343	
-2.44751	0.628662	
-2.45056	0.634766	
-2.45361	0.631714	
-2.45514	0.63324	
-2.45667	0.624084	
-2.46277	0.634766	
-2.46277	0.63324	
-2.46124	0.631714	
-2.46582	0.63324	
-2.46277	0.637817	
-2.46124	0.631714	
-2.45972	0.63324	
-2.45514	0.63324	
-2.45361	0.63324	
-2.44598	0.627136	
-2.43835	0.634766	
-2.43073	0.630188	
-2.42157	0.63324	
-2.40631	0.631714	
-2.39563	0.636292	
-2.38037	0.630188	
-2.36206	0.634766	
-2.3468	0.634766	
-2.32544	0.631714	
-2.30408	0.630188	
-2.28729	0.630188	
-2.26593	0.630188	
-2.24609	0.631714	
-2.22168	0.63324	
-2.19879	0.637817	
-2.17743	0.630188	
-2.15302	0.634766	
-2.13013	0.634766	
-2.11334	0.63324	
-2.09198	0.624084	
-2.07214	0.634766	
-2.04773	0.628662	
-2.02942	0.630188	
-2.00958	0.631714	
-1.99432	0.637817	
-1.97144	0.63324	
-1.95465	0.63324	
-1.93939	0.63324	
-1.92261	0.636292	
-1.90735	0.624084	
-1.89362	0.636292	
-1.87988	0.631714	
-1.86157	0.63324	
-1.85089	0.630188	
-1.84174	0.637817	
-1.82953	0.631714	
-1.81732	0.63324	
-1.80969	0.627136	
-1.79901	0.631714	
-1.78833	0.624084	
-1.7807	0.63324	
-1.7746	0.630188	
-1.76849	0.630188	
-1.76392	0.628662	
-1.75476	0.640869	
-1.75171	0.630188	
-1.74408	0.63324	
-1.74103	0.63324	
-1.73798	0.631714	
-1.7334	0.622559	
-1.7334	0.636292	
-1.7334	0.63324	
-1.72729	0.628662	
-1.72882	0.63324	
-1.72729	0.637817	
-1.72729	0.630188	
-1.72882	0.63324	
-1.72729	0.630188	
-1.72729	0.63324	
-1.72729	0.627136	
-1.72882	0.63324	
-1.73035	0.630188	
-1.73035	0.63324	
-1.73645	0.636292	
-1.73645	0.637817	
-1.74255	0.628662	
-1.74255	0.634766	
-1.74866	0.631714	
-1.75018	0.631714	
-1.75171	0.627136	
-1.75476	0.631714	
-1.76239	0.630188	
-1.76697	0.63324	
-1.77307	0.631714	
-1.77765	0.639343	
-1.77612	0.634766	
-1.78528	0.63324	
-1.78986	0.634766	
-1.79596	0.63324	
-1.80206	0.627136	
-1.80664	0.63324	
-1.81122	0.631714	
-1.81885	0.631714	
-1.8219	0.630188	
-1.82648	0.639343	
-1.83563	0.630188	
-1.84174	0.63324	
-1.84937	0.634766	
-1.85699	0.631714	
-1.86005	0.628662	
-1.86768	0.631714	
-1.87531	0.627136	
-1.88293	0.631714	
-1.88904	0.630188	
-1.89819	0.639343	
-1.90125	0.630188	
-1.90735	0.634766	
-1.9165	0.637817	
-1.92719	0.63324	
-1.93329	0.627136	
-1.94244	0.63324	
-1.94855	0.627136	
-1.95618	0.631714	
-1.96533	0.631714	
-1.97601	0.636292	
-1.98669	0.630188	
-1.99432	0.63324	
-2.00043	0.63324	
-2.01263	0.631714	
-2.02484	0.627136	
-2.03094	0.631714	
-2.0401	0.628662	
-2.04773	0.63324	
-2.05231	0.630188	
-2.06451	0.639343	
-2.07367	0.63324	
-2.0813	0.634766	
-2.0874	0.630188	
-2.09198	0.63324	
-2.10266	0.624084	
-2.10724	0.634766	
-2.11487	0.631714	
-2.12097	0.631714	
-2.12555	0.636292	
-2.13013	0.637817	
-2.1347	0.630188	
-2.14233	0.636292	
-2.14539	0.630188	
-2.14996	0.636292	
-2.15149	0.627136	
-2.15302	0.634766	
-2.15759	0.630188	
-2.15912	0.634766	
-2.16217	0.630188	
-2.16064	0.639343	
-2.1637	0.631714	
-2.16217	0.636292	
-2.16064	0.634766	
-2.16064	0.631714	
-2.16217	0.622559	
-2.15912	0.63324	
-2.15759	0.628662	
-2.15454	0.631714	
-2.15149	0.630188	
-2.15302	0.640869	
-2.14844	0.628662	
-2.14386	0.631714	
-2.13623	0.631714	
-2.13165	0.631714	
-2.13013	0.627136	
-2.1286	0.63324	
-2.12402	0.630188	
-2.11945	0.63324	
-2.11639	0.630188	
-2.11029	0.639343	
-2.10876	0.631714	
-2.10266	0.63324	
-2.09656	0.628662	
-2.09045	0.63324	
-2.0874	0.621033	
-2.08435	0.63324	
-2.07977	0.631714	
-2.0752	0.631714	
-2.07367	0.631714	
-2.06757	0.637817	
-2.06604	0.631714	
-2.05994	0.634766	
-2.05688	0.63324	
-2.05231	0.631714	
-2.04926	0.628662	
-2.0462	0.634766	
-2.04315	0.630188	
-2.04315	0.630188	
-2.0401	0.634766	
-2.03552	0.640869	
-2.034	0.630188	
-2.03094	0.636292	
-2.03247	0.631714	
-2.03094	0.63324	
-2.02484	0.627136	
-2.02484	0.636292	
-2.02179	0.630188	
-2.02179	0.63324	
-2.01874	0.631714	
-2.02026	0.636292	
-2.02026	0.631714	
-2.02179	0.634766	
-2.02026	0.63324	
-2.01874	0.634766	
-2.02179	0.627136	
-2.02484	0.63324	
-2.02484	0.630188	
-2.02637	0.63324	
-2.02484	0.63324	
-2.02637	0.637817	
-2.02789	0.631714	
-2.02789	0.637817	
-2.02942	0.63324	
-2.03094	0.631714	
-2.03247	0.624084	
-2.03552	0.63324	
-2.03705	0.630188	
-2.03857	0.634766	
-2.04163	0.63324	
-2.0462	0.639343	
-2.0462	0.63324	
-2.05078	0.634766	
-2.05383	0.634766	
-2.05688	0.63324	
-2.06451	0.628662	
-2.06451	0.634766	
-2.07062	0.631714	
-2.07214	0.631714	
-2.0752	0.63324	
-2.07977	0.637817	
-2.08282	0.631714	
-2.08893	0.636292	
-2.08893	0.634766	
-2.09351	0.63324	
-2.09808	0.631714	
-2.10724	0.634766	
-2.11029	0.630188	
-2.11487	0.63324	
-2.11792	0.63324	
-2.12708	0.637817	
-2.13013	0.634766	
-2.1347	0.637817	
-2.14233	0.634766	
-2.14386	0.630188	
-2.14996	0.631714	
-2.15302	0.63324	
-2.15912	0.631714	
-2.16217	0.631714	
-2.1698	0.63324	
-2.17438	0.634766	
-2.17285	0.63324	
-2.18506	0.639343	
-2.19116	0.631714	
-2.19574	0.63324	
-2.20032	0.634766	
-2.20337	0.634766	
-2.20795	0.630188	
-2.21252	0.63324	
-2.22015	0.634766	
-2.22473	0.634766	
-2.22778	0.63324	
-2.23541	0.634766	
-2.23999	0.634766	
-2.24762	0.631714	
-2.25372	0.630188	
-2.2583	0.631714	
-2.26288	0.628662	
-2.27051	0.631714	
-2.27509	0.634766	
-2.28119	0.631714	
-2.28577	0.631714	
-2.2934	0.639343	
-2.29797	0.63324	
-2.30713	0.634766	
-2.30865	0.63324	
-2.31628	0.63324	
-2.32239	0.630188	
-2.32391	0.631714	
-2.33459	0.631714	
-2.34375	0.63324	
-2.34528	0.63324	
-2.35138	0.634766	
-2.35748	0.63324	
-2.36511	0.63324	
-2.37427	0.63324	
-2.37885	0.634766	
-2.3819	0.630188	
-2.38953	0.63324	
-2.3941	0.63324	
-2.39716	0.63324	
-2.40326	0.634766	
-2.40784	0.636292	
-2.41089	0.63324	
-2.41394	0.63324	
-2.42004	0.634766	
-2.41699	0.63324	
-2.41852	0.627136	
-2.41699	0.63324	
-2.41699	0.63324	
-2.41241	0.630188	
-2.40936	0.634766	
-2.39868	0.636292	
-2.388	0.634766	
-2.38037	0.631714	
-2.36359	0.63324	
-2.34833	0.631714	
-2.33612	0.631714	
-2.31323	0.63324	
-2.29797	0.63324	
-2.27509	0.63324	
-2.25677	0.636292	
-2.23541	0.637817	
-2.211	0.631714	
-2.19116	0.631714	
-2.16217	0.63324	
-2.14539	0.634766	
-2.1225	0.631714	
-2.10114	0.630188	
-2.07825	0.631714	
-2.05841	0.631714	
-2.03094	0.634766	
-2.01263	0.634766	
-1.9928	0.634766	
-1.97296	0.630188	
-1.95618	0.636292	
-1.93787	0.634766	
-1.91803	0.631714	
-1.9043	0.631714	
-1.88446	0.63324	
-1.86768	0.631714	
-1.85699	0.628662	
-1.84174	0.63324	
-1.82343	0.63324	
-1.81122	0.63324	
-1.80206	0.634766	
-1.78986	0.634766	
-1.7807	0.63324	
-1.76849	0.630188	
-1.76239	0.63324	
-1.74561	0.63324	
-1.74255	0.631714	
-1.73187	0.634766	
-1.72577	0.636292	
-1.71661	0.63324	
-1.71204	0.63324	
-1.70746	0.634766	
-1.70135	0.631714	
-1.69983	0.630188	
-1.69525	0.63324	
-1.69067	0.63324	
-1.6861	0.63324	
-1.68457	0.634766	
-1.68457	0.634766	
-1.68152	0.636292	
-1.67694	0.634766	
-1.68152	0.634766	
-1.67847	0.630188	
-1.67847	0.630188	
-1.67847	0.631714	
-1.68304	0.631714	
-1.68457	0.630188	
-1.68457	0.63324	
-1.68152	0.634766	
-1.68762	0.628662	
-1.68915	0.631714	
-1.68915	0.634766	
-1.69525	0.628662	
-1.6983	0.628662	
-1.70288	0.631714	
-1.70288	0.631714	
-1.70746	0.631714	
-1.71204	0.636292	
-1.71204	0.63324	
-1.72424	0.63324	
-1.72424	0.631714	
-1.72729	0.63324	
-1.7334	0.630188	
-1.73492	0.63324	
-1.74255	0.63324	
-1.74866	0.630188	
-1.75476	0.63324	
-1.76086	0.634766	
-1.76544	0.631714	
-1.7746	0.631714	
-1.77612	0.631714	
-1.78223	0.634766	
-1.78986	0.630188	
-1.79596	0.631714	
-1.80206	0.630188	
-1.80511	0.63324	
-1.81274	0.631714	
-1.82037	0.63324	
-1.82495	0.63324	
-1.82953	0.63324	
-1.83868	0.63324	
-1.84937	0.63324	
-1.85242	0.630188	
-1.86005	0.631714	
-1.87378	0.631714	
-1.87378	0.630188	
-1.88141	0.630188	
-1.89056	0.63324	
-1.89667	0.636292	
-1.90582	0.630188	
-1.91498	0.630188	
-1.92108	0.631714	
-1.92719	0.63324	
-1.93787	0.631714	
-1.9455	0.63324	
-1.95465	0.630188	
-1.96228	0.63324	
-1.97144	0.63324	
-1.97601	0.63324	
-1.98212	0.628662	
-1.99127	0.63324	
-1.99432	0.631714	
-2.00348	0.63324	
-2.00653	0.631714	
-2.01874	0.63324	
-2.02179	0.631714	
-2.03094	0.634766	
-2.034	0.636292	
-2.03857	0.63324	
-2.04163	0.63324	
-2.04468	0.63324	
-2.05231	0.63324	
-2.05536	0.630188	
-2.05688	0.63324	
-2.05994	0.63324	
-2.06451	0.628662	
-2.06757	0.63324	
-2.06909	0.63324	
-2.06757	0.634766	
-2.07062	0.634766	
-2.07214	0.637817	
-2.07214	0.63324	
-2.07367	0.634766	
-2.07367	0.63324	
-2.07062	0.634766	
-2.06909	0.628662	
-2.06451	0.63324	
-2.06451	0.636292	
-2.05994	0.634766	
-2.05688	0.631714	
-2.05383	0.639343	
-2.05536	0.631714	
-2.05078	0.634766	
-2.0462	0.630188	
-2.04315	0.63324	
-2.04163	0.630188	
-2.03705	0.634766	
-2.03094	0.634766	
-2.02789	0.634766	
-2.02484	0.634766	
-2.02179	0.637817	
-2.01416	0.63324	
-2.01111	0.634766	
-2.00958	0.630188	
-2.00806	0.634766	
-2.00348	0.628662	
-2.00043	0.63324	
-1.99738	0.634766	
-1.99432	0.634766	
-1.98975	0.631714	
-1.98822	0.637817	
-1.98669	0.628662	
-1.98364	0.634766	
-1.98059	0.631714	
-1.97601	0.634766	
-1.97296	0.628662	
-1.97296	0.634766	
-1.97144	0.634766	
-1.96991	0.634766	
-1.96991	0.631714	
-1.96533	0.637817	
-1.96686	0.631714	
-1.96533	0.634766	
-1.96686	0.631714	
-1.96381	0.636292	
-1.96228	0.630188	
-1.96381	0.63324	
-1.96686	0.634766	
-1.96381	0.636292	
-1.96533	0.628662	
-1.96686	0.636292	
-1.96838	0.63324	
-1.96838	0.631714	
-1.96838	0.630188	
-1.96991	0.63324	
-1.97449	0.628662	
-1.97449	0.630188	
-1.97601	0.63324	
-1.97906	0.631714	
-1.97906	0.634766	
-1.98364	0.639343	
-1.98822	0.631714	
-1.98822	0.63324	
-1.98975	0.631714	
-1.9928	0.634766	
-1.99585	0.627136	
-1.9989	0.631714	
-2.00348	0.63324	
-2.00806	0.636292	
-2.01111	0.630188	
-2.01569	0.637817	
-2.01721	0.630188	
-2.02026	0.63324	
-2.03094	0.63324	
-2.03247	0.63324	
-2.034	0.628662	
-2.03857	0.634766	
-2.04468	0.631714	
-2.04926	0.631714	
-2.05078	0.634766	
-2.05841	0.639343	
-2.06299	0.636292	
-2.06604	0.634766	
-2.07062	0.631714	
-2.07672	0.636292	
-2.08435	0.627136	
-2.08435	0.63324	
-2.09351	0.631714	
-2.09656	0.636292	
-2.10724	0.631714	
-2.10876	0.640869	
-2.11639	0.631714	
-2.1225	0.634766	
-2.12708	0.630188	
-2.13165	0.631714	
-2.13623	0.630188	
-2.14233	0.630188	
-2.14844	0.630188	
-2.15149	0.63324	
-2.15912	0.631714	
-2.16217	0.636292	
-2.16827	0.631714	
-2.17133	0.631714	
-2.17896	0.630188	
-2.18658	0.631714	
-2.18964	0.630188	
-2.19574	0.631714	
-2.19574	0.631714	
-2.20337	0.634766	
-2.211	0.63324	
-2.21252	0.634766	
-2.22015	0.63324	
-2.22473	0.63324	
-2.22931	0.631714	
-2.23236	0.630188	
-2.23846	0.628662	
-2.24609	0.634766	
-2.24762	0.630188	
-2.25525	0.63324	
-2.26288	0.631714	
-2.26593	0.636292	
-2.27356	0.634766	
-2.27814	0.63324	
-2.28577	0.634766	
-2.28882	0.63324	
-2.29797	0.631714	
-2.30255	0.630188	
-2.3056	0.630188	
-2.31171	0.634766	
-2.31934	0.634766	
-2.32086	0.634766	
-2.33002	0.630188	
-2.33612	0.634766	
-2.3407	0.634766	
-2.34222	0.634766	
-2.3468	0.628662	
-2.35443	0.63324	
-2.35596	0.628662	
-2.36053	0.636292	
-2.36206	0.63324	
-2.36511	0.634766	
-2.36511	0.63324	
-2.36816	0.634766	
-2.36511	0.63324	
-2.36359	0.63324	
-2.35748	0.63324	
-2.34985	0.630188	
-2.34528	0.628662	
-2.33307	0.63324	
-2.31934	0.634766	
-2.30865	0.63324	
-2.29187	0.634766	
-2.27814	0.636292	
-2.25372	0.63324	
-2.23846	0.63324	
-2.2171	0.634766	
-2.19269	0.63324	
-2.1698	0.63324	
-2.14844	0.631714	
-2.12708	0.634766	
-2.10724	0.631714	
-2.08435	0.631714	
-2.05994	0.636292	
-2.0401	0.631714	
-2.01721	0.631714	
-1.99585	0.63324	
-1.97449	0.631714	
-1.95618	0.628662	
-1.93481	0.63324	
-1.9165	0.630188	
-1.89819	0.631714	
-1.87683	0.63324	
-1.86157	0.634766	
-1.84326	0.631714	
-1.828	0.63324	
-1.81274	0.636292	
-1.80054	0.63324	
-1.78375	0.631714	
-1.76849	0.631714	
-1.75934	0.631714	
-1.74561	0.627136	
-1.73798	0.631714	
-1.72424	0.636292	
-1.71356	0.631714	
-1.70441	0.63324	
-1.69525	0.637817	
-1.68762	0.631714	
-1.67847	0.630188	
-1.67389	0.636292	
-1.66626	0.631714	
-1.66016	0.627136	
-1.65405	0.631714	
-1.64948	0.634766	
-1.64795	0.63324	
-1.64337	0.630188	
-1.63422	0.637817	
-1.63574	0.634766	
-1.63116	0.627136	
-1.63116	0.631714	
-1.62811	0.634766	
-1.62354	0.627136	
-1.62659	0.63324	
-1.62659	0.631714	
-1.62659	0.631714	
-1.62811	0.630188	
-1.62506	0.637817	
-1.62964	0.63324	
-1.62964	0.630188	
-1.63116	0.634766	
-1.63116	0.63324	
-1.63574	0.628662	
-1.63574	0.630188	
-1.63727	0.634766	
-1.63879	0.63324	
-1.64337	0.630188	
-1.64795	0.639343	
-1.65253	0.636292	
-1.651	0.628662	
-1.65863	0.63324	
-1.66473	0.637817	
-1.66626	0.627136	
-1.67084	0.630188	
-1.67389	0.634766	
-1.68152	0.63324	
-1.68457	0.634766	
-1.68457	0.637817	
-1.6922	0.637817	
-1.69525	0.628662	
-1.70441	0.63324	
-1.70593	0.63324	
-1.70898	0.628662	
-1.71509	0.628662	
-1.72119	0.636292	
-1.72729	0.631714	
-1.73035	0.631714	
-1.73645	0.63324	
-1.74255	0.636292	
-1.74713	0.628662	
-1.75018	0.631714	
-1.75934	0.636292	
-1.76239	0.624084	
-1.77002	0.630188	
-1.77155	0.634766	
-1.77917	0.634766	
-1.7807	0.63324	
-1.79138	0.636292	
-1.79291	0.637817	
-1.79901	0.631714	
-1.80817	0.634766	
-1.81427	0.634766	
-1.82037	0.627136	
-1.82953	0.628662	
-1.83563	0.636292	
-1.84174	0.630188	
-1.84937	0.63324	
-1.85547	0.637817	
-1.8631	0.634766	
-1.8692	0.631714	
-1.87683	0.63324	
-1.88141	0.636292	
-1.88751	0.627136	
-1.89209	0.627136	
-1.90125	0.634766	
-1.90582	0.63324	
-1.91193	0.631714	
-1.91956	0.637817	
-1.92566	0.636292	
-1.92871	0.631714	
-1.93329	0.630188	
-1.93787	0.63324	
-1.93939	0.630188	
-1.9455	0.630188	
-1.9516	0.636292	
-1.95313	0.634766	
-1.95618	0.628662	
-1.95618	0.636292	
-1.96075	0.639343	
-1.96381	0.630188	
-1.96381	0.63324	
-1.96686	0.637817	
-1.96838	0.631714	
-1.96838	0.631714	
-1.97144	0.634766	
-1.96838	0.630188	
-1.97296	0.63324	
-1.97144	0.634766	
-1.96991	0.636292	
-1.96991	0.628662	
-1.96686	0.634766	
-1.97144	0.634766	
-1.96838	0.63324	
-1.96838	0.631714	
-1.96533	0.636292	
-1.96686	0.630188	
-1.96533	0.630188	
-1.96075	0.636292	
-1.9577	0.634766	
-1.95923	0.628662	
-1.95465	0.636292	
-1.95465	0.636292	
-1.9516	0.630188	
-1.94855	0.631714	
-1.9455	0.637817	
-1.94397	0.631714	
-1.94397	0.631714	
-1.93939	0.63324	
-1.93787	0.634766	
-1.93481	0.628662	
-1.93176	0.631714	
-1.92871	0.634766	
-1.92871	0.634766	
-1.92413	0.631714	
-1.92413	0.636292	
-1.92413	0.634766	
-1.92261	0.630188	
-1.92261	0.63324	
-1.92108	0.634766	
-1.91803	0.631714	
-1.9165	0.631714	
-1.91498	0.631714	
-1.91803	0.634766	
-1.91803	0.628662	
-1.91498	0.634766	
-1.9165	0.631714	
-1.91803	0.628662	
-1.91498	0.63324	
-1.9165	0.634766	
-1.9165	0.63324	
-1.91956	0.63324	
-1.91803	0.63324	
-1.91803	0.631714	
-1.9165	0.63324	
-1.91803	0.634766	
-1.92108	0.634766	
-1.92261	0.631714	
-1.92719	0.631714	
-1.92566	0.636292	
-1.92719	0.631714	
-1.92871	0.637817	
-1.93176	0.63324	
-1.93329	0.63324	
-1.93634	0.630188	
-1.93787	0.634766	
-1.93939	0.628662	
-1.94092	0.628662	
-1.94855	0.63324	
-1.94855	0.63324	
-1.95313	0.631714	
-1.95313	0.634766	
-1.95923	0.636292	
-1.95923	0.63324	
-1.96381	0.630188	
-1.96838	0.634766	
-1.97449	0.630188	
-1.97296	0.630188	
-1.97601	0.630188	
-1.98364	0.634766	
-1.98669	0.631714	
-1.9928	0.636292	
-1.99585	0.634766	
-1.9989	0.63324	
-2.00195	0.631714	
-2.00653	0.636292	
-2.01263	0.630188	
-2.00958	0.630188	
-2.01721	0.630188	
-2.02484	0.634766	
-2.02637	0.630188	
-2.03094	0.634766	
-2.03094	0.636292	
-2.0401	0.631714	
-2.04315	0.631714	
-2.04773	0.63324	
-2.05383	0.628662	
-2.05383	0.631714	
-2.06299	0.63324	
-2.06757	0.63324	
-2.06909	0.628662	
-2.0752	0.631714	
-2.07672	0.636292	
-2.08282	0.630188	
-2.0813	0.631714	
-2.09045	0.63324	
-2.09503	0.631714	
-2.10114	0.628662	
-2.10419	0.63324	
-2.10571	0.634766	
-2.11334	0.63324	
-2.11639	0.634766	
-2.12097	0.63324	
-2.12708	0.63324	
-2.13165	0.630188	
-2.13623	0.63324	
-2.14233	0.630188	
-2.14233	0.628662	
-2.14691	0.63324	
-2.15454	0.631714	
-2.15912	0.631714	
-2.16217	0.634766	
-2.16827	0.636292	
-2.17285	0.630188	
-2.18048	0.63324	
-2.18353	0.631714	
-2.18811	0.631714	
-2.19421	0.628662	
-2.19727	0.631714	
-2.20184	0.63324	
-2.20642	0.636292	
-2.20795	0.637817	
-2.21252	0.637817	
-2.21863	0.63324	
-2.22473	0.634766	
-2.22931	0.631714	
-2.23236	0.631714	
-2.23694	0.630188	
-2.23999	0.634766	
-2.24152	0.631714	
-2.24304	0.63324	
-2.24609	0.63324	
-2.24457	0.634766	
-2.24762	0.631714	
-2.24762	0.630188	
-2.24762	0.631714	
-2.23999	0.630188	
-2.23846	0.627136	
-2.23236	0.631714	
-2.22778	0.634766	
-2.22168	0.63324	
-2.20947	0.636292	
-2.19879	0.634766	
-2.18506	0.631714	
-2.17438	0.628662	
-2.15454	0.639343	
-2.14081	0.631714	
-2.12402	0.627136	
-2.10571	0.634766	
-2.08893	0.634766	
-2.06909	0.636292	
-2.04926	0.639343	
-2.034	0.637817	
-2.01111	0.630188	
-1.99127	0.631714	
-1.97449	0.631714	
-1.95313	0.631714	
-1.93481	0.628662	
-1.91803	0.636292	
-1.89819	0.636292	
-1.88141	0.634766	
-1.8631	0.636292	
-1.84631	0.636292	
-1.82953	0.631714	
-1.8158	0.63324	
-1.80054	0.634766	
-1.78528	0.634766	
-1.77002	0.630188	
-1.75781	0.636292	
-1.7395	0.637817	
-1.7334	0.634766	
-1.72272	0.636292	
-1.70898	0.636292	
-1.6983	0.631714	
-1.69067	0.631714	
-1.68152	0.63324	
-1.67389	0.630188	
-1.66473	0.627136	
-1.65863	0.634766	
-1.651	0.634766	
-1.6449	0.634766	
-1.63574	0.634766	
-1.63116	0.636292	
-1.62964	0.630188	
-1.62506	0.627136	
-1.62048	0.63324	
-1.61438	0.630188	
-1.61133	0.628662	
-1.6098	0.63324	
-1.60828	0.63324	
-1.60522	0.63324	
-1.60522	0.63324	
-1.60217	0.637817	
-1.60065	0.631714	
-1.60522	0.630188	
-1.60217	0.630188	
-1.60522	0.630188	
-1.60522	0.631714	
-1.60675	0.63324	
-1.6098	0.63324	
-1.6098	0.636292	
-1.61133	0.634766	
-1.61285	0.636292	
-1.61438	0.631714	
-1.61743	0.628662	
-1.62048	0.630188	
-1.62506	0.63324	
-1.62811	0.630188	
-1.63116	0.634766	
-1.63574	0.63324	
-1.63879	0.63324	
-1.64642	0.636292	
-1.64948	0.637817	
-1.65253	0.63324	
-1.66168	0.631714	
-1.66168	0.630188	
-1.66473	0.631714	
-1.67084	0.631714	
-1.68152	0.636292	
-1.68457	0.634766	
-1.68915	0.634766	
-1.69525	0.637817	
-1.69983	0.634766	
-1.70441	0.634766	
-1.70746	0.631714	
-1.71051	0.63324	
-1.72119	0.631714	
-1.72424	0.630188	
-1.73187	0.63324	
-1.73645	0.636292	
-1.73798	0.634766	
-1.74866	0.63324	
-1.75171	0.639343	
-1.76086	0.631714	
-1.76544	0.63324	
-1.77307	0.631714	
-1.77917	0.63324	
-1.78528	0.631714	
-1.79596	0.634766	
-1.80054	0.634766	
-1.80817	0.634766	
-1.8158	0.636292	
-1.82343	0.639343	
-1.828	0.63324	
-1.83105	0.63324	
-1.84631	0.631714	
-1.84631	0.631714	
-1.85852	0.628662	
-1.8631	0.634766	
-1.86768	0.637817	
-1.87988	0.636292	
-1.88599	0.637817	
-1.89056	0.634766	
-1.89819	0.634766	
-1.90277	0.631714	
-1.90582	0.630188	
-1.91498	0.634766	
-1.92108	0.63324	
-1.92719	0.634766	
-1.93024	0.634766	
-1.93329	0.634766	
-1.93939	0.63324	
-1.94092	0.640869	
-1.9455	0.634766	
-1.95007	0.634766	
-1.95313	0.628662	
-1.95618	0.630188	
-1.96075	0.631714	
-1.96075	0.63324	
-1.96228	0.63324	
-1.96533	0.636292	
-1.96686	0.634766	
-1.96686	0.636292	
-1.96838	0.631714	
-1.96686	0.631714	
-1.96533	0.63324	
-1.96686	0.631714	
-1.96381	0.628662	
-1.96686	0.634766	
-1.96381	0.634766	
-1.96381	0.637817	
-1.96228	0.63324	
-1.9577	0.634766	
-1.96075	0.63324	
-1.95618	0.63324	
-1.95618	0.628662	
-1.9516	0.630188	
-1.95007	0.624084	
-1.94397	0.631714	
-1.94244	0.634766	
-1.93939	0.636292	
-1.93787	0.634766	
-1.93634	0.637817	
-1.93329	0.630188	
-1.92719	0.630188	
-1.92566	0.627136	
-1.92261	0.631714	
-1.92108	0.630188	
-1.91498	0.634766	
-1.91956	0.63324	
-1.91345	0.636292	
-1.90735	0.637817	
-1.9104	0.636292	
-1.9104	0.631714	
-1.9043	0.630188	
-1.90582	0.630188	
-1.90277	0.631714	
-1.90125	0.630188	
-1.89819	0.631714	
-1.89819	0.634766	
-1.89972	0.634766	
-1.89514	0.636292	
-1.89819	0.63324	
-1.89667	0.63324	
-1.89667	0.630188	
-1.90125	0.624084	
-1.89819	0.630188	
-1.89819	0.630188	
-1.89667	0.636292	
-1.89972	0.634766	
-1.89972	0.636292	
-1.89972	0.630188	
-1.89667	0.637817	
-1.90125	0.634766	
-1.89819	0.631714	
-1.90125	0.628662	
-1.90277	0.631714	
-1.90582	0.628662	
-1.90277	0.628662	
-1.90582	0.636292	
-1.91345	0.637817	
-1.90735	0.631714	
-1.91345	0.636292	
-1.91193	0.631714	
-1.91956	0.630188	
-1.91803	0.628662	
-1.92261	0.634766	
-1.92413	0.628662	
-1.92871	0.631714	
-1.92871	0.634766	
-1.93176	0.636292	
-1.93634	0.634766	
-1.93787	0.63324	
-1.94092	0.631714	
-1.94397	0.630188	
-1.9455	0.628662	
-1.94855	0.63324	
-1.95465	0.630188	
-1.95618	0.634766	
-1.96381	0.63324	
-1.96686	0.637817	
-1.96686	0.634766	
-1.97449	0.637817	
-1.97754	0.63324	
-1.98059	0.631714	
-1.98212	0.627136	
-1.99127	0.631714	
-1.9928	0.627136	
-1.99738	0.63324	
-2.00043	0.634766	
-2.005	0.637817	
-2.00806	0.63324	
-2.01263	0.637817	
-2.02179	0.634766	
-2.02179	0.630188	
-2.03094	0.628662	
-2.034	0.631714	
-2.03552	0.624084	
-2.0401	0.631714	
-2.0462	0.63324	
-2.05078	0.634766	
-2.05383	0.63324	
-2.05994	0.63324	
-2.06757	0.631714	
-2.07062	0.630188	
-2.0752	0.631714	
-2.0813	0.630188	
-2.08435	0.627136	
-2.09045	0.634766	
-2.09198	0.63324	
-2.10114	0.634766	
-2.10724	0.636292	
-2.10876	0.634766	
-2.11334	0.631714	
-2.11945	0.630188	
-2.12402	0.628662	
-2.1286	0.634766	
-2.13318	0.628662	
-2.13928	0.63324	
-2.14386	0.63324	
-2.14691	0.636292	
-2.15302	0.63324	
-2.15912	0.63324	
-2.16217	0.634766	
-2.16522	0.630188	
-2.17133	0.63324	
-2.17285	0.63324	
-2.18201	0.631714	
-2.18506	0.63324	
-2.19116	0.634766	
-2.19574	0.634766	
-2.19727	0.634766	
-2.20337	0.634766	
-2.2049	0.63324	
-2.21252	0.631714	
-2.2171	0.631714	
-2.22015	0.631714	
-2.22168	0.628662	
-2.22626	0.631714	
-2.22626	0.636292	
-2.23083	0.634766	
-2.23236	0.63324	
-2.22778	0.634766	
-2.22931	0.63324	
-2.22778	0.630188	
-2.22626	0.627136	
-2.2171	0.631714	
-2.20947	0.631714	
-2.2049	0.630188	
-2.19727	0.634766	
-2.18811	0.639343	
-2.17438	0.636292	
-2.16217	0.634766	
-2.14844	0.63324	
-2.13318	0.63324	
-2.11487	0.630188	
-2.10114	0.631714	
-2.0813	0.630188	
-2.06451	0.631714	
-2.0462	0.634766	
-2.02637	0.636292	
-2.01263	0.63324	
-1.9928	0.631714	
-1.97296	0.631714	
-1.95618	0.631714	
-1.93634	0.627136	
-1.92261	0.630188	
-1.90277	0.627136	
-1.88446	0.628662	
-1.86615	0.63324	
-1.85394	0.637817	
-1.83716	0.634766	
-1.82037	0.636292	
-1.80511	0.637817	
-1.79138	0.631714	
-1.77612	0.630188	
-1.76392	0.630188	
-1.74866	0.631714	
-1.73645	0.631714	
-1.72729	0.631714	
-1.71356	0.636292	
-1.70135	0.634766	
-1.69525	0.63324	
-1.68457	0.634766	
-1.67542	0.630188	
-1.67084	0.627136	
-1.66168	0.631714	
-1.65558	0.631714	
-1.64795	0.624084	
-1.6449	0.631714	
-1.63727	0.636292	
-1.63116	0.631714	
-1.62659	0.631714	
-1.62201	0.63324	
-1.61591	0.630188	
-1.61438	0.628662	
-1.61285	0.630188	
-1.6098	0.631714	
-1.60675	0.630188	
-1.60828	0.631714	
-1.6098	0.636292	
-1.60675	0.631714	
-1.60675	0.634766	
-1.60675	0.634766	
-1.60828	0.630188	
-1.61133	0.631714	
-1.61133	0.63324	
-1.61133	0.628662	
-1.61591	0.631714	
-1.61896	0.63324	
-1.61896	0.63324	
-1.62354	0.63324	
-1.62659	0.636292	
-1.62964	0.63324	
-1.63422	0.63324	
-1.63574	0.630188	
-1.64337	0.631714	
-1.64642	0.628662	
-1.64948	0.631714	
-1.65405	0.631714	
-1.65863	0.631714	
-1.66168	0.631714	
-1.66473	0.63324	
-1.67236	0.63324	
-1.67847	0.63324	
-1.68457	0.630188	
-1.68762	0.634766	
-1.69067	0.63324	
-1.69678	0.628662	
-1.69983	0.631714	
-1.70898	0.63324	
-1.71356	0.630188	
-1.72119	0.631714	
-1.72424	0.634766	
-1.73035	0.630188	
-1.73492	0.631714	
-1.74103	0.630188	
-1.74561	0.630188	
-1.75781	0.628662	
-1.76086	0.636292	
-1.76544	0.634766	
-1.7746	0.63324	
-1.77612	0.634766	
-1.78375	0.634766	
-1.79291	0.631714	
-1.80054	0.631714	
-1.80969	0.631714	
-1.81274	0.63324	
-1.82037	0.630188	
-1.82953	0.631714	
-1.83716	0.631714	
-1.84326	0.630188	
-1.85242	0.631714	
-1.85699	0.63324	
-1.86462	0.630188	
-1.87225	0.63324	
-1.87988	0.63324	
-1.88446	0.631714	
-1.89362	0.630188	
-1.89819	0.63324	
-1.9043	0.63324	
-1.91345	0.63324	
-1.9165	0.634766	
-1.92566	0.634766	
-1.92871	0.63324	
-1.93329	0.634766	
-1.93787	0.63324	
-1.94244	0.630188	
-1.95007	0.631714	
-1.95313	0.636292	
-1.95618	0.627136	
-1.95923	0.630188	
-1.96228	0.63324	
-1.96533	0.634766	
-1.96991	0.63324	
-1.96991	0.637817	
-1.96991	0.630188	
-1.97296	0.628662	
-1.97449	0.631714	
-1.97601	0.631714	
-1.97601	0.631714	
-1.97296	0.631714	
-1.96991	0.631714	
-1.97449	0.63324	
-1.97296	0.631714	
-1.96686	0.637817	
-1.96838	0.631714	
-1.96686	0.628662	
-1.96381	0.631714	
-1.96075	0.63324	
-1.95618	0.630188	
-1.95618	0.630188	
-1.95465	0.631714	
-1.95007	0.636292	
-1.94855	0.628662	
-1.9455	0.63324	
-1.94244	0.631714	
-1.93634	0.63324	
-1.93634	0.630188	
-1.93481	0.63324	
-1.93024	0.630188	
-1.92566	0.63324	
-1.92413	0.631714	
-1.91956	0.63324	
-1.91803	0.631714	
-1.9165	0.636292	
-1.91498	0.631714	
-1.91345	0.630188	
-1.90735	0.627136	
-1.9043	0.631714	
-1.90125	0.628662	
-1.90277	0.631714	
-1.90125	0.63324	
-1.89819	0.636292	
-1.89819	0.63324	
-1.89362	0.636292	
-1.89362	0.630188	
-1.89667	0.630188	
-1.89362	0.631714	
-1.88904	0.630188	
-1.89209	0.624084	
-1.89209	0.63324	
-1.88904	0.631714	
-1.88599	0.63324	
-1.89056	0.63324	
-1.88751	0.636292	
-1.88904	0.631714	
-1.89056	0.631714	
-1.88904	0.631714	
-1.88904	0.63324	
-1.89056	0.622559	
-1.89209	0.634766	
-1.89362	0.634766	
-1.89514	0.634766	
-1.89514	0.631714	
-1.89819	0.637817	
-1.89972	0.63324	
-1.90125	0.631714	
-1.90125	0.630188	
-1.9043	0.63324	
-1.90735	0.624084	
-1.9104	0.634766	
-1.91193	0.630188	
-1.91345	0.634766	
-1.91803	0.630188	
-1.91956	0.639343	
-1.92413	0.630188	
-1.92108	0.630188	
-1.92719	0.627136	
-1.92871	0.634766	
-1.93176	0.622559	
-1.93481	0.63324	
-1.93634	0.63324	
-1.93939	0.634766	
-1.94397	0.631714	
-1.94855	0.639343	
-1.9516	0.630188	
-1.95618	0.631714	
-1.95923	0.630188	
-1.9577	0.634766	
-1.96075	0.621033	
-1.96838	0.63324	
-1.97144	0.63324	
-1.97449	0.636292	
-1.97754	0.631714	
-1.98059	0.640869	
-1.98212	0.628662	
-1.98822	0.630188	
-1.99127	0.628662	
-1.99585	0.63324	
-1.99738	0.624084	
-2.00043	0.631714	
-2.005	0.631714	
-2.00806	0.634766	
-2.01111	0.631714	
-2.01569	0.640869	
-2.01874	0.630188	
-2.02789	0.630188	
-2.03094	0.631714	
-2.03094	0.63324	
-2.03705	0.621033	
-2.04315	0.634766	
-2.0462	0.634766	
-2.04926	0.634766	
-2.05688	0.628662	
-2.05841	0.640869	
-2.06451	0.631714	
-2.06909	0.634766	
-2.07062	0.624084	
-2.07977	0.634766	
-2.08435	0.619507	
-2.0874	0.63324	
-2.09045	0.631714	
-2.10114	0.636292	
-2.10266	0.628662	
-2.10876	0.640869	
-2.11334	0.630188	
-2.12097	0.63324	
-2.12402	0.627136	
-2.1286	0.63324	
-2.13318	0.621033	
-2.14081	0.634766	
-2.14539	0.631714	
-2.14844	0.636292	
-2.15607	0.631714	
-2.15759	0.642395	
-2.1637	0.631714	
-2.16675	0.631714	
-2.17133	0.630188	
-2.17438	0.631714	
-2.17743	0.619507	
-2.18048	0.630188	
-2.18353	0.631714	
-2.18506	0.631714	
-2.18658	0.630188	
-2.18964	0.645447	
-2.19269	0.634766	
-2.18964	0.630188	
-2.19116	0.628662	
-2.18964	0.63324	
-2.18964	0.621033	
-2.18201	0.634766	
-2.17285	0.631714	
-2.1698	0.636292	
-2.15759	0.630188	
-2.14844	0.642395	
-2.13623	0.630188	
-2.12555	0.631714	
-2.10876	0.628662	
-2.09656	0.631714	
-2.08282	0.617981	
-2.06604	0.634766	
-2.04773	0.630188	
-2.03094	0.63324	
-2.01416	0.63324	
-2.00043	0.639343	
-1.97906	0.631714	
-1.96381	0.630188	
-1.93787	0.628662	
-1.92566	0.63324	
-1.91193	0.617981	
-1.89209	0.631714	
-1.87531	0.631714	
-1.86005	0.63324	
-1.84174	0.631714	
-1.82495	0.642395	
-1.81427	0.627136	
-1.80054	0.631714	
-1.7868	0.630188	
-1.77307	0.63324	
-1.75934	0.619507	
-1.74866	0.631714	
-1.7334	0.631714	
-1.72577	0.634766	
-1.71661	0.630188	
-1.70441	0.639343	
-1.69373	0.628662	
-1.68762	0.630188	
-1.67847	0.628662	
-1.66779	0.63324	
-1.66168	0.622559	
-1.65405	0.636292	
-1.64948	0.63324	
-1.64337	0.634766	
-1.63879	0.631714	
-1.63422	0.640869	
-1.62964	0.630188	
-1.62506	0.634766	
-1.62201	0.63324	
-1.61591	0.63324	
-1.61591	0.621033	
-1.61438	0.634766	
-1.61438	0.63324	
-1.61133	0.634766	
-1.61133	0.630188	
-1.60675	0.642395	
-1.60828	0.630188	
-1.60675	0.630188	
-1.60828	0.630188	
-1.6098	0.631714	
-1.61133	0.621033	
-1.61133	0.63324	
-1.61285	0.630188	
-1.61591	0.631714	
-1.61591	0.63324	
-1.61896	0.642395	
-1.61896	0.63324	
-1.61896	0.630188	
-1.62506	0.630188	
-1.62659	0.628662	
-1.62964	0.621033	
-1.63574	0.636292	
-1.63879	0.628662	
-1.6449	0.63324	
-1.64795	0.63324	
-1.64948	0.640869	
-1.65558	0.631714	
-1.6571	0.63324	
-1.66473	0.63324	
-1.66779	0.634766	
-1.67084	0.622559	
-1.67694	0.63324	
-1.67847	0.63324	
-1.6861	0.634766	
-1.6922	0.631714	
-1.69525	0.636292	
-1.70135	0.628662	
-1.70593	0.630188	
-1.71051	0.631714	
-1.71661	0.63324	
-1.72272	0.624084	
-1.73035	0.634766	
-1.73492	0.631714	
-1.74103	0.63324	
-1.74866	0.631714	
-1.75323	0.637817	
-1.76086	0.630188	
-1.77002	0.631714	
-1.77612	0.630188	
-1.78375	0.630188	
-1.78833	0.624084	
-1.79596	0.631714	
-1.80359	0.63324	
-1.81427	0.63324	
-1.8219	0.63324	
-1.828	0.639343	
-1.83716	0.631714	
-1.84326	0.631714	
-1.85089	0.630188	
-1.85699	0.630188	
-1.8631	0.627136	
-1.87378	0.631714	
-1.87836	0.628662	
-1.88293	0.630188	
-1.88904	0.631714	
-1.89819	0.637817	
-1.90125	0.630188	
-1.9104	0.631714	
-1.91345	0.631714	
-1.92108	0.630188	
-1.92261	0.627136	
-1.92719	0.63324	
-1.93024	0.63324	
-1.93481	0.63324	
-1.93939	0.630188	
-1.94244	0.636292	
-1.94855	0.628662	
-1.9455	0.634766	
-1.94855	0.628662	
-1.9516	0.631714	
-1.95007	0.627136	
-1.95465	0.63324	
-1.95465	0.628662	
-1.95313	0.63324	
-1.95313	0.63324	
-1.95313	0.637817	
-1.95007	0.631714	
-1.9516	0.631714	
-1.95007	0.631714	
-1.9455	0.630188	
-1.94397	0.628662	
-1.94092	0.634766	
-1.93939	0.630188	
-1.93787	0.631714	
-1.93329	0.631714	
-1.93176	0.636292	
-1.92719	0.631714	
-1.92566	0.634766	
-1.92413	0.634766	
-1.9165	0.630188	
-1.91345	0.627136	
-1.9104	0.634766	
-1.9104	0.631714	
-1.9043	0.634766	
-1.90125	0.631714	
-1.90125	0.630188	
-1.89362	0.628662	
-1.88904	0.631714	
-1.89209	0.630188	
-1.88751	0.628662	
-1.88293	0.634766	
-1.88293	0.631714	
-1.87683	0.631714	
-1.87531	0.627136	
-1.87683	0.63324	
-1.87378	0.63324	
-1.86615	0.631714	
-1.86615	0.631714	
-1.86005	0.628662	
-1.8631	0.630188	
-1.86005	0.630188	
-1.85547	0.631714	
-1.85699	0.63324	
-1.85699	0.63324	
-1.85547	0.63324	
-1.85394	0.630188	
-1.85547	0.631714	
-1.85394	0.631714	
-1.85242	0.63324	
-1.85089	0.630188	
-1.85242	0.63324	
-1.85394	0.636292	
-1.85242	0.631714	
-1.85242	0.630188	
-1.85547	0.631714	
-1.85547	0.628662	
-1.86005	0.627136	
-1.85699	0.631714	
-1.85699	0.631714	
-1.86005	0.628662	
-1.86005	0.634766	
-1.8631	0.63324	
-1.86462	0.630188	
-1.86462	0.63324	
-1.87225	0.630188	
-1.8692	0.624084	
-1.87531	0.628662	
-1.87531	0.630188	
-1.87836	0.631714	
-1.88293	0.628662	
-1.88141	0.636292	
-1.88446	0.631714	
-1.88599	0.630188	
-1.89056	0.631714	
-1.89209	0.634766	
-1.89667	0.627136	
-1.89819	0.628662	
-1.90125	0.63324	
-1.90582	0.630188	
-1.90582	0.627136	
-1.9104	0.639343	
-1.9165	0.63324	
-1.91956	0.628662	
-1.92108	0.634766	
-1.92413	0.63324	
-1.92871	0.622559	
-1.93481	0.628662	
-1.93481	0.63324	
-1.93787	0.631714	
-1.94244	0.628662	
-1.9455	0.639343	
-1.95313	0.636292	
-1.95465	0.631714	
-1.95923	0.63324	
-1.96228	0.631714	
-1.96686	0.619507	
-1.96991	0.628662	
-1.97601	0.631714	
-1.98059	0.63324	
-1.98669	0.630188	
-1.98975	0.643921	
-1.99585	0.63324	
-1.99738	0.631714	
-1.9989	0.634766	
-2.00653	0.631714	
-2.01111	0.619507	
-2.01416	0.63324	
-2.01874	0.630188	
-2.02637	0.63324	
-2.02789	0.630188	
-2.034	0.640869	
-2.04315	0.63324	
-2.04315	0.63324	
-2.05078	0.630188	
-2.05536	0.634766	
-2.05688	0.619507	
-2.06451	0.630188	
-2.07214	0.634766	
-2.07825	0.634766	
-2.08282	0.630188	
-2.08588	0.642395	
-2.09045	0.63324	
-2.09503	0.631714	
-2.09656	0.63324	
-2.10724	0.636292	
-2.11029	0.621033	
-2.11182	0.624084	
-2.11945	0.63324	
-2.12097	0.63324	
-2.1225	0.628662	
-2.12555	0.642395	
-2.13165	0.631714	
-2.1347	0.631714	
-2.13928	0.631714	
-2.14081	0.634766	
-2.14081	0.617981	
-2.14386	0.631714	
-2.14386	0.631714	
-2.14081	0.630188	
-2.14081	0.628662	
-2.13165	0.642395	
-2.12708	0.631714	
-2.1225	0.630188	
-2.11334	0.628662	
-2.10571	0.63324	
-2.09198	0.621033	
-2.0813	0.628662	
-2.06757	0.630188	
-2.05383	0.631714	
-2.03552	0.628662	
-2.02484	0.639343	
-2.00653	0.634766	
-1.98975	0.630188	
-1.97296	0.63324	
-1.95465	0.63324	
-1.93481	0.621033	
-1.91956	0.630188	
-1.89972	0.631714	
-1.88293	0.631714	
-1.86462	0.628662	
-1.84937	0.640869	
-1.828	0.631714	
-1.81122	0.631714	
-1.79596	0.630188	
-1.77765	0.631714	
-1.76239	0.624084	
-1.74713	0.630188	
-1.73035	0.631714	
-1.71967	0.631714	
-1.70441	0.628662	
-1.6922	0.637817	
-1.67694	0.634766	
-1.66321	0.630188	
-1.65253	0.630188	
-1.6449	0.634766	
-1.63422	0.622559	
-1.62354	0.630188	
-1.61591	0.63324	
-1.60675	0.631714	
-1.59454	0.624084	
-1.58997	0.639343	
-1.58386	0.631714	
-1.57623	0.63324	
-1.57166	0.630188	
-1.56403	0.631714	
-1.55945	0.622559	
-1.55792	0.628662	
-1.55334	0.63324	
-1.55029	0.630188	
-1.54724	0.628662	
-1.54419	0.63324	
-1.54266	0.634766	
-1.54114	0.630188	
-1.53809	0.631714	
-1.53809	0.631714	
-1.53503	0.627136	
-1.53503	0.630188	
-1.53809	0.631714	
-1.53656	0.631714	
-1.53809	0.628662	
-1.54419	0.636292	
-1.54266	0.634766	
-1.54114	0.630188	
-1.53961	0.631714	
-1.54572	0.634766	
-1.54724	0.627136	
-1.55182	0.631714	
-1.55334	0.630188	
-1.55487	0.636292	
-1.56097	0.630188	
-1.5625	0.63324	
-1.5686	0.63324	
-1.57013	0.631714	
-1.57471	0.627136	
-1.57928	0.631714	
-1.58234	0.627136	
-1.58539	0.630188	
-1.58997	0.628662	
-1.59302	0.63324	
-1.5976	0.628662	
-1.60522	0.63324	
-1.6098	0.63324	
-1.61438	0.63324	
-1.61438	0.630188	
-1.61896	0.631714	
-1.62506	0.627136	
-1.62964	0.630188	
-1.63269	0.631714	
-1.63422	0.634766	
-1.6449	0.624084	
-1.64948	0.634766	
-1.65405	0.631714	
-1.66016	0.631714	
-1.66168	0.628662	
-1.66931	0.631714	
-1.67389	0.631714	
-1.68152	0.630188	
-1.68457	0.631714	
-1.6922	0.63324	
-1.6983	0.627136	
-1.70288	0.63324	
-1.71204	0.631714	
-1.71356	0.631714	
-1.71967	0.630188	
-1.72729	0.63324	
-1.7334	0.63324	
-1.74103	0.631714	
-1.74713	0.631714	
-1.75171	0.63324	
-1.75934	0.627136	
-1.76544	0.628662	
-1.7746	0.634766	
-1.77765	0.63324	
-1.78375	0.628662	
-1.79138	0.634766	
-1.79596	0.631714	
-1.80206	0.627136	
-1.80969	0.630188	
-1.81122	0.631714	
-1.81427	0.624084	
-1.81885	0.63324	
-1.82495	0.630188	
-1.82953	0.628662	
-1.82953	0.630188	
-1.83411	0.63324	
-1.83868	0.628662	
-1.83868	0.628662	
-1.84479	0.628662	
-1.84631	0.631714	
-1.84784	0.624084	
-1.84479	0.63324	
-1.84937	0.630188	
-1.84479	0.630188	
-1.84631	0.630188	
-1.84784	0.63324	
-1.84479	0.63324	
-1.84631	0.622559	
-1.84479	0.63324	
-1.84326	0.631714	
-1.84479	0.630188	
-1.84021	0.630188	
-1.83868	0.634766	
-1.83563	0.630188	
-1.83563	0.628662	
-1.83105	0.630188	
-1.83105	0.631714	
-1.82953	0.630188	
-1.82495	0.628662	
-1.82037	0.63324	
-1.8219	0.628662	
-1.81427	0.627136	
-1.81427	0.63324	
-1.81122	0.630188	
-1.81122	0.630188	
-1.80664	0.63324	
-1.80664	0.630188	
-1.80206	0.624084	
-1.80054	0.631714	
-1.79901	0.631714	
-1.79596	0.630188	
-1.79749	0.630188	
-1.79596	0.630188	
-1.78986	0.630188	
-1.7868	0.627136	
-1.7868	0.631714	
-1.78833	0.630188	
-1.78375	0.628662	
-1.78375	0.628662	
-1.78375	0.630188	
-1.78375	0.627136	
-1.7807	0.630188	
-1.78223	0.631714	
-1.7807	0.628662	
-1.7807	0.628662	
-1.77765	0.63324	
-1.77917	0.628662	
-1.77765	0.624084	
-1.77917	0.631714	
-1.78375	0.631714	
-1.78223	0.624084	
-1.77917	0.630188	
-1.7807	0.631714	
-1.78375	0.628662	
-1.78375	0.630188	
-1.78223	0.630188	
-1.78528	0.631714	
-1.78375	0.624084	
-1.78833	0.631714	
-1.78986	0.630188	
-1.78986	0.627136	
-1.78986	0.630188	
-1.79138	0.631714	
-1.79291	0.628662	
-1.79596	0.630188	
-1.79596	0.628662	
-1.79749	0.630188	
-1.80054	0.627136	
-1.80206	0.627136	
-1.80511	0.630188	
-1.80664	0.628662	
-1.80817	0.630188	
-1.8158	0.631714	
-1.8158	0.628662	
-1.81885	0.627136	
-1.82343	0.628662	
-1.82495	0.628662	
-1.82648	0.628662	
-1.82953	0.630188	
-1.83411	0.631714	
-1.83563	0.624084	
-1.84021	0.624084	
-1.84174	0.631714	
-1.84631	0.627136	
-1.84937	0.627136	
-1.85089	0.628662	
-1.85242	0.627136	
-1.85699	0.622559	
-1.85852	0.630188	
-1.86157	0.63324	
-1.86768	0.627136	
-1.87225	0.630188	
-1.87378	0.628662	
-1.87836	0.630188	
-1.88141	0.628662	
-1.88751	0.630188	
-1.89056	0.630188	
-1.89362	0.627136	
-1.89972	0.631714	
-1.89972	0.631714	
-1.90582	0.628662	
-1.90735	0.631714	
-1.9165	0.631714	
-1.9165	0.631714	
-1.92413	0.627136	
-1.92566	0.631714	
-1.93024	0.627136	
-1.93634	0.630188	
-1.93787	0.630188	
-1.94092	0.630188	
-1.9455	0.628662	
-1.95465	0.630188	
-1.95618	0.627136	
-1.96075	0.628662	
-1.96381	0.624084	
-1.96686	0.628662	
-1.97296	0.630188	
-1.97601	0.624084	
-1.98212	0.631714	
-1.98364	0.631714	
-1.98822	0.627136	
-1.9928	0.631714	
-1.99432	0.630188	
-2.00043	0.628662	
-2.005	0.627136	
-2.00806	0.628662	
-2.01569	0.630188	
-2.01721	0.624084	
-2.02026	0.63324	
-2.02789	0.630188	
-2.03094	0.627136	
-2.03705	0.630188	
-2.0401	0.630188	
-2.04315	0.630188	
-2.0462	0.628662	
-2.05231	0.631714	
-2.05231	0.631714	
-2.05841	0.624084	
-2.05994	0.631714	
-2.06757	0.630188	
-2.06909	0.628662	
-2.07214	0.630188	
-2.07062	0.630188	
-2.07367	0.628662	
-2.0752	0.627136	
-2.07214	0.631714	
-2.07062	0.628662	
-2.06299	0.627136	
-2.05841	0.628662	
-2.05383	0.628662	
-2.04468	0.627136	
-2.03857	0.631714	
-2.02637	0.63324	
-2.01416	0.630188	
-2.00348	0.628662	
-1.98975	0.628662	
-1.97601	0.628662	
-1.96228	0.628662	
-1.94397	0.628662	
-1.92719	0.630188	
-1.91193	0.627136	
-1.89209	0.630188	
-1.87836	0.630188	
-1.86005	0.630188	
-1.84021	0.630188	
-1.82648	0.627136	
-1.80664	0.628662	
-1.79138	0.627136	
-1.7746	0.631714	
-1.75781	0.63324	
-1.74103	0.631714	
-1.72424	0.630188	
-1.70898	0.630188	
-1.69373	0.631714	
-1.67694	0.627136	
-1.66321	0.628662	
-1.651	0.628662	
-1.63727	0.624084	
-1.62506	0.630188	
-1.61285	0.627136	
-1.60065	0.628662	
-1.59149	0.631714	
-1.58081	0.628662	
-1.57166	0.630188	
-1.5625	0.624084	
-1.55334	0.631714	
-1.54266	0.628662	
-1.53809	0.627136	
-1.52893	0.630188	
-1.52435	0.628662	
-1.51672	0.627136	
-1.51215	0.630188	
-1.50757	0.631714	
-1.50299	0.628662	
-1.49689	0.627136	
-1.49536	0.628662	
-1.49231	0.630188	
-1.48315	0.627136	
-1.48315	0.627136	
-1.48315	0.628662	
-1.4801	0.628662	
-1.4801	0.628662	
-1.4801	0.630188	
-1.47858	0.624084	
-1.47858	0.624084	
-1.47858	0.628662	
-1.47858	0.630188	
-1.48163	0.628662	
-1.48315	0.630188	
-1.48315	0.627136	
-1.48621	0.624084	
-1.48773	0.628662	
-1.48621	0.630188	
-1.48773	0.628662	
-1.49231	0.630188	
-1.49536	0.630188	
-1.49536	0.627136	
-1.49994	0.627136	
-1.50146	0.628662	
-1.50757	0.624084	
-1.50757	0.628662	
-1.50909	0.624084	
-1.51367	0.631714	
-1.51978	0.630188	
-1.52283	0.628662	
-1.52588	0.627136	
-1.53198	0.624084	
-1.53656	0.624084	
-1.54114	0.624084	
-1.54419	0.627136	
-1.54724	0.627136	
-1.55334	0.627136	
-1.5564	0.631714	
-1.5625	0.627136	
-1.5686	0.628662	
-1.57318	0.628662	
-1.58081	0.627136	
-1.58386	0.624084	
-1.58691	0.630188	
-1.59149	0.630188	
-1.59912	0.628662	
-1.60522	0.627136	
-1.60675	0.627136	
-1.61285	0.628662	
-1.61896	0.624084	
-1.62659	0.631714	
-1.63269	0.627136	
-1.63574	0.624084	
-1.63879	0.630188	
-1.64642	0.627136	
-1.651	0.627136	
-1.65863	0.624084	
-1.66016	0.627136	
-1.66626	0.628662	
-1.67236	0.630188	
-1.67847	0.628662	
-1.68457	0.628662	
-1.68915	0.624084	
-1.69373	0.627136	
-1.69983	0.630188	
-1.70593	0.624084	
-1.71204	0.627136	
-1.71356	0.631714	
-1.71967	0.628662	
-1.72577	0.628662	
-1.72882	0.628662	
-1.73645	0.628662	
-1.73798	0.627136	
-1.7395	0.624084	
-1.74255	0.630188	
-1.74866	0.627136	
-1.75018	0.630188	
-1.75171	0.630188	
-1.75476	0.628662	
-1.75781	0.627136	
-1.75934	0.628662	
-1.76239	0.627136	
-1.76544	0.627136	
-1.76544	0.627136	
-1.76392	0.628662	
-1.76544	0.628662	
-1.76697	0.627136	
-1.76697	0.630188	
-1.76392	0.627136	
-1.76544	0.631714	
-1.76392	0.624084	
-1.76697	0.627136	
-1.76392	0.624084	
-1.76239	0.627136	
-1.75781	0.630188	
-1.75934	0.627136	
-1.75781	0.630188	
-1.75323	0.628662	
-1.75171	0.628662	
-1.75171	0.627136	
-1.74561	0.628662	
-1.74713	0.628662	
-1.74408	0.627136	
-1.74255	0.627136	
-1.73645	0.628662	
-1.73492	0.630188	
-1.7334	0.628662	
-1.73035	0.627136	
-1.72882	0.628662	
-1.72577	0.627136	
-1.72424	0.624084	
-1.72119	0.627136	
-1.72272	0.627136	
-1.71967	0.624084	
-1.71356	0.628662	
-1.71661	0.628662	
-1.71509	0.627136	
-1.71204	0.627136	
-1.71661	0.63324	
-1.70898	0.622559	
-1.70593	0.627136	
-1.70593	0.624084	
-1.70441	0.624084	
-1.70593	0.624084	
-1.70441	0.628662	
-1.70441	0.628662	
-1.70288	0.628662	
-1.70441	0.631714	
-1.70288	0.630188	
-1.70441	0.624084	
-1.70441	0.624084	
-1.70593	0.627136	
-1.70441	0.624084	
-1.70441	0.622559	
-1.70593	0.628662	
-1.70593	0.627136	
-1.70746	0.628662	
-1.70593	0.630188	
-1.71051	0.628662	
-1.70898	0.624084	
-1.70898	0.627136	
-1.71509	0.627136	
-1.71356	0.627136	
-1.71509	0.630188	
-1.71967	0.628662	
-1.72272	0.622559	
-1.72424	0.627136	
-1.72577	0.627136	
-1.72882	0.627136	
-1.73187	0.627136	
-1.73187	0.628662	
-1.73187	0.628662	
-1.73645	0.624084	
-1.7395	0.622559	
-1.74103	0.627136	
-1.74713	0.622559	
-1.74866	0.627136	
-1.75171	0.628662	
-1.75476	0.624084	
-1.75934	0.627136	
-1.76544	0.627136	
-1.76697	0.624084	
-1.77155	0.628662	
-1.7746	0.624084	
-1.7807	0.627136	
-1.77917	0.627136	
-1.7868	0.628662	
-1.79138	0.628662	
-1.79291	0.630188	
-1.80054	0.627136	
-1.80054	0.628662	
-1.80817	0.627136	
-1.81274	0.622559	
-1.81427	0.624084	
-1.82037	0.628662	
-1.8219	0.627136	
-1.82648	0.624084	
-1.828	0.628662	
-1.83563	0.627136	
-1.84174	0.627136	
-1.84326	0.630188	
-1.84784	0.628662	
-1.84937	0.621033	
-1.85699	0.624084	
-1.85699	0.627136	
-1.8631	0.624084	
-1.86768	0.624084	
-1.87225	0.630188	
-1.87683	0.627136	
-1.87836	0.627136	
-1.88446	0.627136	
-1.88446	0.627136	
-1.89056	0.627136	
-1.89362	0.624084	
-1.89667	0.627136	
-1.90125	0.627136	
-1.90582	0.628662	
-1.91193	0.630188	
-1.9165	0.624084	
-1.92108	0.627136	
-1.92261	0.627136	
-1.92719	0.627136	
-1.93329	0.628662	
-1.93481	0.628662	
-1.94244	0.628662	
-1.94244	0.627136	
-1.94855	0.627136	
-1.9516	0.628662	
-1.95618	0.630188	
-1.96228	0.624084	
-1.96381	0.628662	
-1.96838	0.628662	
-1.97449	0.628662	
-1.97601	0.627136	
-1.98059	0.624084	
-1.98669	0.624084	
-1.9928	0.624084	
-1.99585	0.624084	
-1.9989	0.624084	
-2.00653	0.627136	
-2.00958	0.624084	
-2.01263	0.628662	
-2.01569	0.631714	
-2.02026	0.627136	
-2.02026	0.630188	
-2.02484	0.628662	
-2.03094	0.624084	
-2.03094	0.630188	
-2.03247	0.627136	
-2.034	0.630188	
-2.034	0.631714	
-2.03247	0.628662	
-2.03247	0.630188	
-2.02789	0.624084	
-2.02179	0.630188	
-2.01721	0.630188	
-2.01263	0.627136	
-2.005	0.628662	
-1.99585	0.631714	
-1.98669	0.628662	
-1.97449	0.630188	
-1.96533	0.630188	
-1.95007	0.628662	
-1.94092	0.627136	
-1.92413	0.630188	
-1.9104	0.628662	
-1.89514	0.630188	
-1.88293	0.630188	
-1.86615	0.63324	
-1.84937	0.628662	
-1.82953	0.630188	
-1.8158	0.628662	
-1.80054	0.628662	
-1.7807	0.624084	
-1.77002	0.627136	
-1.75476	0.627136	
-1.73645	0.628662	
-1.71967	0.628662	
-1.70441	0.630188	
-1.6922	0.624084	
-1.67542	0.628662	
-1.66473	0.628662	
-1.64642	0.628662	
-1.63574	0.624084	
-1.62201	0.631714	
-1.61133	0.624084	
-1.5976	0.630188	
-1.58844	0.627136	
-1.58081	0.628662	
-1.5686	0.628662	
-1.5564	0.628662	
-1.54877	0.624084	
-1.53961	0.631714	
-1.53198	0.624084	
-1.52588	0.628662	
-1.51825	0.628662	
-1.51367	0.628662	
-1.50757	0.622559	
-1.50146	0.631714	
-1.49689	0.627136	
-1.49231	0.628662	
-1.48621	0.627136	
-1.48468	0.627136	
-1.48163	0.622559	
-1.474	0.628662	
-1.47247	0.624084	
-1.47095	0.624084	
-1.47095	0.624084	
-1.4679	0.628662	
-1.46942	0.622559	
-1.46942	0.627136	
-1.46637	0.624084	
-1.46942	0.627136	
-1.46942	0.622559	
-1.46942	0.627136	
-1.47095	0.622559	
-1.46942	0.628662	
-1.474	0.624084	
-1.47858	0.628662	
-1.47858	0.624084	
-1.4801	0.628662	
-1.48468	0.624084	
-1.49231	0.624084	
-1.49078	0.622559	
-1.49231	0.628662	
-1.49536	0.624084	
-1.49841	0.622559	
-1.50299	0.621033	
-1.50757	0.624084	
-1.50757	0.624084	
-1.51215	0.622559	
-1.5152	0.624084	
-1.5213	0.628662	
-1.5213	0.622559	
-1.52588	0.624084	
-1.53046	0.622559	
-1.53656	0.624084	
-1.53961	0.622559	
-1.54266	0.624084	
-1.54572	0.622559	
-1.55182	0.627136	
-1.55487	0.627136	
-1.55792	0.624084	
-1.56403	0.628662	
-1.57013	0.624084	
-1.57318	0.624084	
-1.57623	0.627136	
-1.58234	0.621033	
-1.58539	0.627136	
-1.58997	0.624084	
-1.59302	0.627136	
-1.5976	0.622559	
-1.60065	0.627136	
-1.6098	0.624084	
-1.61133	0.621033	
-1.61896	0.619507	
-1.62354	0.627136	
-1.62811	0.621033	
-1.63422	0.624084	
-1.63879	0.622559	
-1.64337	0.627136	
-1.64948	0.624084	
-1.6571	0.627136	
-1.66321	0.628662	
-1.66626	0.624084	
-1.67236	0.624084	
-1.67847	0.628662	
-1.68304	0.624084	
-1.68915	0.624084	
-1.69373	0.622559	
-1.6983	0.627136	
-1.69983	0.624084	
-1.70441	0.624084	
-1.71051	0.628662	
-1.70898	0.624084	
-1.71967	0.624084	
-1.71967	0.627136	
-1.72424	0.624084	
-1.72424	0.622559	
-1.73035	0.622559	
-1.73187	0.627136	
-1.73035	0.627136	
-1.73645	0.624084	
-1.73798	0.624084	
-1.73798	0.622559	
-1.74103	0.621033	
-1.74103	0.624084	
-1.74103	0.624084	
-1.74103	0.621033	
-1.74255	0.627136	
-1.74103	0.627136	
-1.7395	0.622559	
-1.74255	0.627136	
-1.74103	0.627136	
-1.7395	0.624084	
-1.73798	0.627136	
-1.74103	0.624084	
-1.74103	0.622559	
-1.73645	0.622559	
-1.73798	0.622559	
-1.73187	0.621033	
-1.73187	0.624084	
-1.73187	0.624084	
-1.72577	0.627136	
-1.72729	0.624084	
-1.72424	0.622559	
-1.72119	0.624084	
-1.72272	0.624084	
-1.71967	0.621033	
-1.71661	0.624084	
-1.71967	0.622559	
-1.71204	0.627136	
-1.71204	0.627136	
-1.71051	0.627136	
-1.70898	0.621033	
-1.70898	0.621033	
-1.70288	0.624084	
-1.70288	0.619507	
-1.70135	0.622559	
-1.70135	0.624084	
-1.69983	0.622559	
-1.69678	0.621033	
-1.69678	0.622559	
-1.69678	0.630188	
-1.69525	0.622559	
-1.69373	0.627136	
-1.6983	0.627136	
-1.69525	0.621033	
-1.69678	0.621033	
-1.69525	0.627136	
-1.6983	0.622559	
-1.6983	0.622559	
-1.69678	0.622559	
-1.69983	0.628662	
-1.70135	0.622559	
-1.70135	0.624084	
-1.70288	0.627136	
-1.70441	0.621033	
-1.70593	0.621033	
-1.70593	0.627136	
-1.70898	0.622559	
-1.71051	0.622559	
-1.71051	0.627136	
-1.71204	0.630188	
-1.71661	0.622559	
-1.71356	0.628662	
-1.71967	0.624084	
-1.72424	0.621033	
-1.72272	0.622559	
-1.72882	0.621033	
-1.72577	0.621033	
-1.73187	0.622559	
-1.73187	0.624084	
-1.73492	0.628662	
-1.7395	0.622559	
-1.74255	0.627136	
-1.74255	0.624084	
-1.74561	0.624084	
-1.75171	0.614929	
-1.75171	0.621033	
-1.75323	0.622559	
-1.75934	0.621033	
-1.76086	0.627136	
-1.76697	0.634766	
-1.76697	0.622559	
-1.77307	0.628662	
-1.77307	0.624084	
-1.77917	0.617981	
-1.77917	0.619507	
-1.78833	0.619507	
-1.78833	0.621033	
-1.79138	0.622559	
-1.79596	0.628662	
-1.79901	0.631714	
-1.80206	0.627136	
-1.80511	0.628662	
-1.81274	0.624084	
-1.81427	0.622559	
-1.81885	0.616455	
-1.82343	0.627136	
-1.828	0.621033	
-1.82953	0.622559	
-1.83411	0.624084	
-1.84021	0.630188	
-1.84021	0.627136	
-1.84631	0.628662	
-1.85089	0.624084	
-1.85394	0.619507	
-1.85699	0.616455	
-1.86157	0.622559	
-1.86615	0.621033	
-1.8692	0.622559	
-1.87836	0.628662	
-1.87988	0.634766	
-1.88293	0.624084	
-1.88904	0.627136	
-1.89056	0.624084	
-1.89362	0.627136	
-1.89819	0.616455	
-1.90277	0.622559	
-1.90582	0.627136	
-1.9104	0.622559	
-1.91345	0.627136	
-1.91498	0.631714	
-1.92413	0.622559	
-1.92566	0.624084	
-1.92566	0.624084	
-1.93024	0.624084	
-1.93634	0.613403	
-1.93939	0.624084	
-1.94244	0.619507	
-1.9455	0.624084	
-1.9516	0.627136	
-1.95618	0.634766	
-1.96075	0.627136	
-1.96381	0.631714	
-1.96686	0.627136	
-1.97144	0.622559	
-1.97296	0.616455	
-1.97754	0.619507	
-1.98212	0.622559	
-1.98212	0.622559	
-1.9928	0.624084	
-1.99585	0.63324	
-1.99738	0.624084	
-2.00195	0.628662	
-2.005	0.624084	
-2.00806	0.624084	
-2.00958	0.616455	
-2.01569	0.628662	
-2.01721	0.619507	
-2.02484	0.624084	
-2.02484	0.627136	
-2.02942	0.630188	
-2.03247	0.627136	
-2.034	0.628662	
-2.03857	0.630188	
-2.04468	0.622559	
-2.04315	0.613403	
-2.0462	0.622559	
-2.04926	0.621033	
-2.04926	0.624084	
-2.05231	0.624084	
-2.05078	0.630188	
-2.05078	0.627136	
-2.05078	0.628662	
-2.05078	0.621033	
-2.04773	0.619507	
-2.0401	0.616455	
-2.03705	0.621033	
-2.03094	0.619507	
-2.02179	0.624084	
-2.01569	0.622559	
-2.00653	0.628662	
-1.99738	0.627136	
-1.98364	0.628662	
-1.96838	0.622559	
-1.95618	0.622559	
-1.94244	0.617981	
-1.92566	0.622559	
-1.91345	0.619507	
-1.89667	0.622559	
-1.87836	0.622559	
-1.86157	0.622559	
-1.84631	0.624084	
-1.828	0.628662	
-1.81122	0.621033	
-1.79901	0.622559	
-1.77765	0.624084	
-1.76239	0.624084	
-1.74561	0.614929	
-1.73035	0.622559	
-1.71356	0.622559	
-1.69983	0.621033	
-1.68915	0.624084	
-1.66931	0.624084	
-1.6571	0.621033	
-1.64337	0.619507	
-1.63116	0.622559	
-1.61896	0.619507	
-1.60522	0.619507	
-1.59149	0.622559	
-1.58386	0.621033	
-1.57166	0.624084	
-1.55945	0.627136	
-1.55334	0.627136	
-1.54572	0.624084	
-1.53809	0.624084	
-1.53351	0.624084	
-1.5213	0.621033	
-1.51672	0.616455	
-1.50757	0.624084	
-1.50452	0.622559	
-1.49841	0.617981	
-1.49384	0.622559	
-1.48773	0.631714	
-1.48621	0.622559	
-1.48163	0.624084	
-1.47858	0.627136	
-1.47705	0.619507	
-1.47552	0.617981	
-1.47095	0.622559	
-1.47247	0.622559	
-1.47095	0.616455	
-1.46942	0.621033	
-1.47095	0.628662	
-1.46942	0.622559	
-1.47095	0.622559	
-1.47095	0.628662	
-1.47095	0.619507	
-1.474	0.619507	
-1.474	0.627136	
-1.47552	0.624084	
-1.47552	0.617981	
-1.48163	0.627136	
-1.48315	0.628662	
-1.48163	0.622559	
-1.48468	0.624084	
-1.48773	0.630188	
-1.49536	0.622559	
-1.49078	0.619507	
-1.49841	0.621033	
-1.49994	0.624084	
-1.50604	0.617981	
-1.50757	0.624084	
-1.50909	0.628662	
-1.5152	0.627136	
-1.51672	0.624084	
-1.52588	0.630188	
-1.52893	0.622559	
-1.53198	0.619507	
-1.53809	0.624084	
-1.53961	0.619507	
-1.54572	0.616455	
-1.55029	0.624084	
-1.55487	0.624084	
-1.5564	0.627136	
-1.56403	0.624084	
-1.57013	0.628662	
-1.57013	0.622559	
-1.57776	0.619507	
-1.57928	0.622559	
-1.58386	0.621033	
-1.58691	0.619507	
-1.59607	0.624084	
-1.59607	0.628662	
-1.60522	0.622559	
-1.60828	0.622559	
-1.61285	0.630188	
-1.61743	0.621033	
-1.62048	0.619507	
-1.62506	0.627136	
-1.62964	0.622559	
-1.63574	0.617981	
-1.64337	0.622559	
-1.64642	0.628662	
-1.651	0.622559	
-1.65863	0.621033	
-1.66321	0.628662	
-1.66931	0.624084	
-1.67236	0.619507	
-1.68304	0.622559	
-1.6861	0.624084	
-1.68915	0.616455	
-1.69678	0.622559	
-1.70135	0.624084	
-1.70441	0.622559	
-1.70898	0.621033	
-1.71356	0.628662	
-1.71661	0.622559	
-1.72119	0.616455	
-1.72729	0.622559	
-1.72882	0.622559	
-1.73187	0.617981	
-1.7334	0.622559	
-1.73492	0.624084	
-1.7395	0.622559	
-1.7395	0.622559	
-1.74408	0.627136	
-1.74255	0.624084	
-1.74408	0.616455	
-1.74561	0.621033	
-1.74408	0.621033	
-1.74408	0.617981	
-1.74866	0.622559	
-1.74713	0.627136	
-1.74561	0.622559	
-1.74408	0.624084	
-1.74408	0.624084	
-1.74103	0.622559	
-1.74408	0.617981	
-1.7395	0.621033	
-1.73798	0.621033	
-1.7395	0.619507	
-1.73645	0.624084	
-1.73492	0.622559	
-1.73035	0.622559	
-1.73187	0.617981	
-1.72882	0.621033	
-1.72577	0.622559	
-1.72577	0.619507	
-1.72272	0.622559	
-1.72119	0.621033	
-1.71967	0.622559	
-1.71509	0.622559	
-1.71509	0.624084	
-1.71204	0.621033	
-1.71051	0.622559	
-1.71356	0.627136	
-1.70593	0.622559	
-1.70441	0.616455	
-1.70441	0.622559	
-1.70441	0.624084	
-1.70288	0.624084	
-1.70288	0.624084	
-1.69983	0.622559	
-1.69983	0.622559	
-1.69983	0.627136	
-1.70135	0.619507	
-1.6983	0.621033	
-1.6983	0.619507	
-1.69983	0.621033	
-1.69525	0.621033	
-1.69983	0.617981	
-1.69525	0.622559	
-1.69525	0.619507	
-1.69678	0.622559	
-1.69678	0.622559	
-1.70135	0.621033	
-1.70135	0.621033	
-1.70135	0.621033	
-1.70441	0.619507	
-1.70288	0.621033	
-1.70288	0.619507	
-1.70593	0.622559	
-1.71051	0.622559	
-1.71204	0.619507	
-1.71356	0.622559	
-1.71356	0.619507	
-1.71509	0.621033	
-1.71661	0.619507	
-1.72119	0.621033	
-1.72119	0.617981	
-1.72424	0.622559	
-1.72729	0.622559	
-1.73035	0.617981	
-1.73492	0.621033	
-1.73492	0.622559	
-1.73798	0.622559	
-1.7395	0.621033	
-1.74408	0.619507	
-1.74713	0.622559	
-1.75171	0.617981	
-1.75171	0.617981	
-1.75934	0.621033	
-1.76086	0.622559	
-1.76544	0.619507	
-1.76697	0.621033	
-1.77155	0.621033	
-1.77765	0.619507	
-1.7807	0.621033	
-1.7807	0.619507	
-1.7868	0.617981	
-1.79138	0.621033	
-1.79138	0.624084	
-1.80054	0.619507	
-1.80054	0.621033	
-1.80664	0.621033	
-1.80969	0.617981	
-1.81274	0.616455	
-1.81885	0.617981	
-1.81885	0.619507	
-1.82343	0.617981	
-1.828	0.619507	
-1.83105	0.621033	
-1.83868	0.617981	
-1.83716	0.621033	
-1.84326	0.622559	
-1.84937	0.617981	
-1.84784	0.619507	
-1.85547	0.621033	
-1.85547	0.621033	
-1.86157	0.621033	
-1.86157	0.621033	
-1.8692	0.621033	
-1.87225	0.617981	
-1.87378	0.619507	
-1.88141	0.621033	
-1.88293	0.617981	
-1.88904	0.619507	
-1.89209	0.622559	
-1.89667	0.619507	
-1.89819	0.614929	
-1.90277	0.622559	
-1.90735	0.619507	
-1.91193	0.616455	
-1.91803	0.621033	
-1.91956	0.619507	
-1.92413	0.621033	
-1.92719	0.616455	
-1.93176	0.621033	
-1.93329	0.616455	
-1.93787	0.617981	
-1.94092	0.619507	
-1.94397	0.621033	
-1.9516	0.617981	
-1.95007	0.622559	
-1.9577	0.622559	
-1.95923	0.619507	
-1.96381	0.617981	
-1.96686	0.622559	
-1.97144	0.619507	
-1.97601	0.617981	
-1.97754	0.619507	
-1.98212	0.617981	
-1.98364	0.617981	
-1.98975	0.617981	
-1.99127	0.616455	
-1.99432	0.619507	
-1.99738	0.616455	
-2.00195	0.622559	
-2.00653	0.621033	
-2.00806	0.617981	
-2.01263	0.617981	
-2.01569	0.621033	
-2.01874	0.617981	
-2.02484	0.617981	
-2.02942	0.621033	
-2.03094	0.617981	
-2.03247	0.619507	
-2.03552	0.624084	
-2.0401	0.619507	
-2.04468	0.617981	
-2.0462	0.617981	
-2.04773	0.619507	
-2.05231	0.614929	
-2.05536	0.619507	
-2.05994	0.621033	
-2.06451	0.619507	
-2.06604	0.616455	
-2.06909	0.619507	
-2.0752	0.617981	
-2.07825	0.617981	
-2.0813	0.619507	
-2.08282	0.621033	
-2.0874	0.614929	
-2.0874	0.621033	
-2.09045	0.619507	
-2.09045	0.619507	
-2.09503	0.619507	
-2.09503	0.621033	
-2.09045	0.617981	
-2.09351	0.617981	
-2.09198	0.619507	
-2.08588	0.619507	
-2.08588	0.614929	
-2.07977	0.617981	
-2.07367	0.619507	
-2.06604	0.621033	
-2.05536	0.617981	
-2.04468	0.624084	
-2.03552	0.621033	
-2.02484	0.621033	
-2.00958	0.619507	
-1.99585	0.619507	
-1.97906	0.614929	
-1.96686	0.619507	
-1.95007	0.619507	
-1.93176	0.619507	
-1.9165	0.619507	
-1.89819	0.628662	
-1.88446	0.619507	
-1.86615	0.621033	
-1.84937	0.619507	
-1.828	0.617981	
-1.81274	0.614929	
-1.79901	0.619507	
-1.77765	0.621033	
-1.76392	0.617981	
-1.75018	0.619507	
-1.7334	0.627136	
-1.71661	0.619507	
-1.69983	0.617981	
-1.68762	0.621033	
-1.67084	0.619507	
-1.66168	0.611877	
-1.64642	0.621033	
-1.63269	0.621033	
-1.62354	0.622559	
-1.61285	0.621033	
-1.60522	0.624084	
-1.59149	0.619507	
-1.58386	0.619507	
-1.57318	0.617981	
-1.56097	0.622559	
-1.55487	0.617981	
-1.54724	0.621033	
-1.54114	0.617981	
-1.53503	0.621033	
-1.52893	0.619507	
-1.52435	0.624084	
-1.51825	0.621033	
-1.5152	0.614929	
-1.51062	0.619507	
-1.50604	0.617981	
-1.50452	0.613403	
-1.50299	0.619507	
-1.49689	0.619507	
-1.49689	0.619507	
-1.49841	0.622559	
-1.49994	0.624084	
-1.49841	0.622559	
-1.49689	0.619507	
-1.49841	0.621033	
-1.49841	0.616455	
-1.49994	0.613403	
-1.49841	0.617981	
-1.50452	0.617981	
-1.50452	0.619507	
-1.50604	0.617981	
-1.50909	0.622559	
-1.51062	0.622559	
-1.51367	0.619507	
-1.51825	0.617981	
-1.5213	0.619507	
-1.52588	0.614929	
-1.52893	0.616455	
-1.53198	0.619507	
-1.53656	0.621033	
-1.54114	0.619507	
-1.54266	0.622559	
-1.54724	0.622559	
-1.55029	0.619507	
-1.5564	0.616455	
-1.55792	0.621033	
-1.56403	0.614929	
-1.57013	0.619507	
-1.57318	0.617981	
-1.57928	0.619507	
-1.58539	0.617981	
-1.58844	0.622559	
-1.59607	0.624084	
-1.59912	0.619507	
-1.60675	0.619507	
-1.61133	0.617981	
-1.61438	0.613403	
-1.61896	0.619507	
-1.62354	0.619507	
-1.62964	0.621033	
-1.63269	0.619507	
-1.63727	0.622559	
-1.64337	0.621033	
-1.64795	0.619507	
-1.65405	0.619507	
-1.65863	0.621033	
-1.66016	0.616455	
-1.66779	0.619507	
-1.67236	0.617981	
-1.68152	0.617981	
-1.68915	0.619507	
-1.69373	0.624084	
-1.69678	0.621033	
-1.70288	0.621033	
-1.71051	0.617981	
-1.71204	0.621033	
-1.72119	0.617981	
-1.73035	0.616455	
-1.7334	0.619507	
-1.7395	0.617981	
-1.74561	0.616455	
-1.75018	0.622559	
-1.75476	0.619507	
-1.75476	0.614929	
-1.76697	0.621033	
-1.76697	0.619507	
-1.77307	0.616455	
-1.77765	0.621033	
-1.77917	0.617981	
-1.78223	0.619507	
-1.7868	0.616455	
-1.78528	0.621033	
-1.79291	0.622559	
-1.79138	0.617981	
-1.79596	0.617981	
-1.79901	0.619507	
-1.80054	0.617981	
-1.79749	0.617981	
-1.79901	0.619507	
-1.80054	0.619507	
-1.80054	0.619507	
-1.79901	0.622559	
-1.80054	0.616455	
-1.79901	0.619507	
-1.79749	0.616455	
-1.79749	0.616455	
-1.79291	0.619507	
-1.78986	0.619507	
-1.78833	0.619507	
-1.78833	0.616455	
-1.78833	0.619507	
-1.78528	0.621033	
-1.7807	0.621033	
-1.7807	0.622559	
-1.77917	0.621033	
-1.7746	0.624084	
-1.76849	0.617981	
-1.77155	0.621033	
-1.76544	0.622559	
-1.76239	0.617981	
-1.76086	0.621033	
-1.75781	0.624084	
-1.75323	0.621033	
-1.75171	0.619507	
-1.74866	0.621033	
-1.74713	0.619507	
-1.74408	0.619507	
-1.74408	0.619507	
-1.74255	0.616455	
-1.73798	0.617981	
-1.73798	0.616455	
-1.73492	0.622559	
-1.73492	0.621033	
-1.7334	0.621033	
-1.73035	0.621033	
-1.73187	0.617981	
-1.73035	0.617981	
-1.72882	0.619507	
-1.73187	0.619507	
-1.72882	0.616455	
-1.73035	0.619507	
-1.73035	0.619507	
-1.72729	0.617981	
-1.72882	0.617981	
-1.73035	0.619507	
-1.73035	0.616455	
-1.72882	0.619507	
-1.73035	0.616455	
-1.73187	0.619507	
-1.73035	0.617981	
-1.73187	0.617981	
-1.7334	0.621033	
-1.73798	0.617981	
-1.73645	0.619507	
-1.73645	0.621033	
-1.73798	0.617981	
-1.74255	0.619507	
-1.74103	0.616455	
-1.74255	0.617981	
-1.74713	0.617981	
-1.74713	0.621033	
-1.75018	0.619507	
-1.75476	0.619507	
-1.75476	0.621033	
-1.75934	0.617981	
-1.76086	0.616455	
-1.76544	0.617981	
-1.76849	0.613403	
-1.77307	0.614929	
-1.77307	0.617981	
-1.77612	0.617981	
-1.7807	0.619507	
-1.78223	0.619507	
-1.78375	0.619507	
-1.79138	0.617981	
-1.79291	0.617981	
-1.79749	0.619507	
-1.80054	0.616455	
-1.80511	0.616455	
-1.80817	0.616455	
-1.81427	0.613403	
-1.82037	0.616455	
-1.81885	0.619507	
-1.82648	0.617981	
-1.82953	0.619507	
-1.83411	0.617981	
-1.83868	0.622559	
-1.83868	0.614929	
-1.84784	0.617981	
-1.84784	0.616455	
-1.85547	0.621033	
-1.85852	0.613403	
-1.86005	0.621033	
-1.86615	0.617981	
-1.8692	0.617981	
-1.87531	0.614929	
-1.87683	0.624084	
-1.87988	0.614929	
-1.88599	0.616455	
-1.89056	0.617981	
-1.89514	0.619507	
-1.89972	0.613403	
-1.90125	0.621033	
-1.90582	0.616455	
-1.91193	0.616455	
-1.9165	0.616455	
-1.92108	0.619507	
-1.92413	0.611877	
-1.92871	0.616455	
-1.93329	0.616455	
-1.93329	0.616455	
-1.94092	0.611877	
-1.94855	0.619507	
-1.9516	0.616455	
-1.95618	0.617981	
-1.96228	0.617981	
-1.96381	0.624084	
-1.96686	0.614929	
-1.97144	0.619507	
-1.97754	0.616455	
-1.97906	0.617981	
-1.98212	0.611877	
-1.98822	0.616455	
-1.99127	0.614929	
-1.99432	0.616455	
-1.99738	0.619507	
-2.00195	0.622559	
-2.005	0.614929	
-2.00653	0.619507	
-2.01111	0.616455	
-2.01569	0.616455	
-2.01569	0.610352	
-2.01721	0.619507	
-2.02179	0.616455	
-2.02789	0.617981	
-2.02789	0.616455	
-2.02942	0.622559	
-2.03552	0.614929	
-2.03857	0.621033	
-2.04315	0.617981	
-2.04468	0.616455	
-2.04773	0.610352	
-2.05078	0.617981	
-2.05688	0.614929	
-2.05688	0.617981	
-2.06604	0.617981	
-2.06757	0.627136	
-2.07062	0.613403	
-2.07367	0.621033	
-2.07672	0.614929	
-2.0813	0.613403	
-2.08588	0.608826	
-2.08893	0.617981	
-2.09198	0.614929	
-2.09503	0.616455	
-2.09808	0.616455	
-2.10419	0.621033	
-2.10724	0.616455	
-2.11029	0.619507	
-2.11029	0.617981	
-2.11487	0.617981	
-2.11945	0.611877	
-2.12097	0.619507	
-2.12402	0.616455	
-2.12555	0.617981	
-2.12555	0.617981	
-2.12708	0.627136	
-2.13013	0.614929	
-2.1286	0.617981	
-2.12555	0.614929	
-2.12555	0.617981	
-2.12402	0.611877	
-2.1225	0.616455	
-2.12097	0.616455	
-2.11334	0.614929	
-2.10876	0.614929	
-2.09808	0.627136	
-2.08893	0.614929	
-2.07977	0.617981	
-2.07062	0.616455	
-2.05536	0.617981	
-2.04315	0.613403	
-2.02942	0.617981	
-2.01416	0.619507	
-2.00043	0.616455	
-1.98212	0.614929	
-1.96838	0.622559	
-1.94855	0.614929	
-1.93024	0.617981	
-1.91803	0.616455	
-1.89667	0.616455	
-1.88141	0.611877	
-1.86157	0.617981	
-1.84479	0.614929	
-1.828	0.617981	
-1.81122	0.617981	
-1.79749	0.627136	
-1.77765	0.617981	
-1.76544	0.619507	
-1.74866	0.614929	
-1.7334	0.617981	
-1.72119	0.6073	
-1.70441	0.617981	
-1.69525	0.616455	
-1.68152	0.617981	
-1.66626	0.617981	
-1.65405	0.624084	
-1.64032	0.616455	
-1.62964	0.617981	
-1.62201	0.617981	
-1.61133	0.614929	
-1.60065	0.608826	
-1.59607	0.619507	
-1.58539	0.610352	
-1.57623	0.616455	
-1.57166	0.619507	
-1.56403	0.624084	
-1.5564	0.613403	
-1.55334	0.617981	
-1.54419	0.614929	
-1.54266	0.613403	
-1.53656	0.610352	
-1.53351	0.616455	
-1.53046	0.614929	
-1.52893	0.613403	
-1.52588	0.617981	
-1.5213	0.624084	
-1.51978	0.616455	
-1.51978	0.617981	
-1.51825	0.614929	
-1.51825	0.619507	
-1.51978	0.610352	
-1.5213	0.617981	
-1.5213	0.614929	
-1.52435	0.616455	
-1.5213	0.616455	
-1.52588	0.627136	
-1.53046	0.617981	
-1.53046	0.617981	
-1.53351	0.616455	
-1.53656	0.616455	
-1.53809	0.610352	
-1.54419	0.619507	
-1.54724	0.614929	
-1.54877	0.617981	
-1.55182	0.616455	
-1.55792	0.624084	
-1.5625	0.616455	
-1.56708	0.617981	
-1.57013	0.614929	
-1.57318	0.614929	
-1.57776	0.610352	
-1.58234	0.617981	
-1.58844	0.610352	
-1.59302	0.614929	
-1.59149	0.613403	
-1.60217	0.621033	
-1.60522	0.613403	
-1.61285	0.621033	
-1.61743	0.616455	
-1.62354	0.611877	
-1.62811	0.611877	
-1.63269	0.616455	
-1.63727	0.613403	
-1.64337	0.617981	
-1.65405	0.617981	
-1.65863	0.619507	
-1.66473	0.614929	
-1.66931	0.617981	
-1.67694	0.616455	
-1.68304	0.617981	
-1.68762	0.613403	
-1.69525	0.616455	
-1.70135	0.610352	
-1.70746	0.614929	
-1.71356	0.616455	
-1.72119	0.619507	
-1.72729	0.613403	
-1.73645	0.621033	
-1.74255	0.614929	
-1.74866	0.614929	
-1.75781	0.614929	
-1.76239	0.619507	
-1.7746	0.613403	
-1.77765	0.614929	
-1.7868	0.614929	
-1.79138	0.617981	
-1.80054	0.619507	
-1.80359	0.617981	
-1.81122	0.616455	
-1.81885	0.614929	
-1.82343	0.613403	
-1.8219	0.616455	
-1.82953	0.610352	
-1.83868	0.614929	
-1.84021	0.617981	
-1.84937	0.616455	
-1.84784	0.616455	
-1.85242	0.621033	
-1.85699	0.617981	
-1.85852	0.616455	
-1.86157	0.613403	
-1.85852	0.614929	
-1.85852	0.613403	
-1.86157	0.611877	
-1.86157	0.616455	
-1.86005	0.616455	
-1.86005	0.614929	
-1.86157	0.617981	
-1.85547	0.617981	
-1.85699	0.614929	
-1.85394	0.616455	
-1.85394	0.617981	
-1.84937	0.614929	
-1.84784	0.616455	
-1.84479	0.614929	
-1.84326	0.617981	
-1.84021	0.614929	
-1.83105	0.621033	
-1.83105	0.616455	
-1.82648	0.614929	
-1.82343	0.617981	
-1.81732	0.617981	
-1.81732	0.613403	
-1.81274	0.617981	
-1.80969	0.616455	
-1.80511	0.613403	
-1.80359	0.617981	
-1.80054	0.621033	
-1.79749	0.616455	
-1.79291	0.616455	
-1.79138	0.621033	
-1.78528	0.619507	
-1.78223	0.613403	
-1.78375	0.616455	
-1.7807	0.616455	
-1.77917	0.613403	
-1.77307	0.616455	
-1.7746	0.621033	
-1.77307	0.617981	
-1.76697	0.616455	
-1.76544	0.617981	
-1.76849	0.616455	
-1.76544	0.614929	
-1.76392	0.613403	
-1.76392	0.616455	
-1.76392	0.614929	
-1.76239	0.614929	
-1.76239	0.621033	
-1.76086	0.617981	
-1.76239	0.617981	
-1.76392	0.616455	
-1.76392	0.617981	
-1.76239	0.614929	
-1.76239	0.613403	
-1.76544	0.617981	
-1.76697	0.616455	
-1.76849	0.611877	
-1.76849	0.616455	
-1.76849	0.617981	
-1.77307	0.613403	
-1.77155	0.616455	
-1.7746	0.617981	
-1.77612	0.611877	
-1.77765	0.614929	
-1.77917	0.616455	
-1.7868	0.614929	
-1.78528	0.613403	
-1.78986	0.617981	
-1.78986	0.616455	
-1.79596	0.616455	
-1.79901	0.616455	
-1.80054	0.614929	
-1.80511	0.614929	
-1.80359	0.611877	
-1.80817	0.614929	
-1.81427	0.613403	
-1.81427	0.613403	
-1.82037	0.614929	
-1.8219	0.617981	
-1.82343	0.613403	
-1.828	0.614929	
-1.83105	0.616455	
-1.83716	0.616455	
-1.84021	0.611877	
-1.84326	0.616455	
-1.85089	0.613403	
-1.85242	0.611877	
-1.85547	0.614929	
-1.86005	0.614929	
-1.86462	0.613403	
-1.86615	0.614929	
-1.87531	0.613403	
-1.87531	0.616455	
-1.88141	0.613403	
-1.88904	0.616455	
-1.88904	0.613403	
-1.89514	0.614929	
-1.89972	0.614929	
-1.90277	0.619507	
-1.90582	0.613403	
-1.90735	0.619507	
-1.9165	0.617981	
-1.92108	0.614929	
-1.92719	0.610352	
-1.92719	0.614929	
-1.93634	0.611877	
-1.93787	0.619507	
-1.94397	0.614929	
-1.9455	0.617981	
-1.9516	0.614929	
-1.95465	0.619507	
-1.96075	0.610352	
-1.96533	0.613403	
-1.97296	0.611877	
-1.97601	0.614929	
-1.98059	0.610352	
-1.98822	0.614929	
-1.9928	0.617981	
-1.99585	0.617981	
-2.00195	0.613403	
-2.00806	0.619507	
-2.00806	0.616455	
-2.01569	0.613403	
-2.01874	0.613403	
-2.02179	0.614929	
-2.02789	0.613403	
-2.03247	0.616455	
-2.03552	0.613403	
-2.04315	0.616455	
-2.0462	0.616455	
-2.05078	0.619507	
-2.05231	0.616455	
-2.05383	0.617981	
-2.05994	0.614929	
-2.06451	0.616455	
-2.07214	0.608826	
-2.0752	0.613403	
-2.07672	0.614929	
-2.07825	0.616455	
-2.08435	0.613403	
-2.08435	0.621033	
-2.09198	0.614929	
-2.09198	0.614929	
-2.09808	0.611877	
-2.09808	0.614929	
-2.10724	0.608826	
-2.11029	0.613403	
-2.11487	0.614929	
-2.11639	0.619507	
-2.1225	0.610352	
-2.12555	0.619507	
-2.12708	0.614929	
-2.13318	0.614929	
-2.13623	0.611877	
-2.14081	0.616455	
-2.14233	0.608826	
-2.14996	0.613403	
-2.15302	0.610352	
-2.15454	0.616455	
-2.16064	0.614929	
-2.1637	0.621033	
-2.16675	0.614929	
-2.16827	0.614929	
-2.17285	0.610352	
-2.17285	0.613403	
-2.18048	0.608826	
-2.18201	0.613403	
-2.18506	0.611877	
-2.18964	0.614929	
-2.19116	0.613403	
-2.18964	0.621033	
-2.19116	0.614929	
-2.19116	0.616455	
-2.18964	0.617981	
-2.18964	0.614929	
-2.18506	0.608826	
-2.18353	0.614929	
-2.17133	0.611877	
-2.16675	0.616455	
-2.16064	0.613403	
-2.14691	0.621033	
-2.1347	0.613403	
-2.12555	0.617981	
-2.11029	0.613403	
-2.09503	0.613403	
-2.07825	0.619507	
-2.05994	0.613403	
-2.0401	0.610352	
-2.02637	0.614929	
-2.005	0.611877	
-1.98669	0.617981	
-1.96533	0.616455	
-1.94397	0.616455	
-1.92566	0.614929	
-1.90582	0.614929	
-1.89209	0.611877	
-1.86768	0.611877	
-1.85089	0.610352	
-1.82953	0.614929	
-1.81274	0.614929	
-1.79138	0.613403	
-1.77612	0.613403	
-1.75781	0.614929	
-1.7395	0.613403	
-1.72424	0.614929	
-1.70593	0.610352	
-1.6922	0.614929	
-1.68152	0.611877	
-1.66168	0.614929	
-1.64948	0.614929	
-1.63574	0.613403	
-1.62659	0.611877	
-1.61591	0.614929	
-1.60522	0.613403	
-1.59302	0.613403	
-1.58234	0.614929	
-1.57623	0.611877	
-1.56708	0.6073	
-1.55945	0.616455	
-1.55029	0.613403	
-1.54266	0.611877	
-1.53809	0.617981	
-1.52893	0.614929	
-1.52435	0.613403	
-1.51825	0.614929	
-1.51367	0.619507	
-1.51215	0.613403	
-1.50757	0.611877	
-1.50452	0.616455	
-1.50604	0.611877	
-1.50146	0.610352	
-1.50146	0.616455	
-1.49994	0.613403	
-1.49994	0.613403	
-1.49994	0.613403	
-1.49994	0.617981	
-1.49841	0.613403	
-1.49994	0.613403	
-1.49994	0.616455	
-1.50146	0.614929	
-1.50452	0.610352	
-1.50299	0.610352	
-1.50757	0.614929	
-1.50909	0.616455	
-1.51367	0.611877	
-1.51367	0.617981	
-1.51978	0.613403	
-1.5213	0.610352	
-1.52893	0.614929	
-1.53198	0.616455	
-1.53351	0.608826	
-1.53961	0.613403	
-1.54572	0.616455	
-1.54877	0.613403	
-1.55487	0.611877	
-1.5564	0.619507	
-1.5625	0.616455	
-1.5686	0.610352	
-1.57013	0.614929	
-1.57318	0.616455	
-1.57928	0.6073	
-1.58539	0.611877	
-1.58844	0.616455	
-1.59149	0.616455	
-1.59912	0.613403	
-1.60217	0.617981	
-1.61133	0.613403	
-1.61438	0.610352	
-1.61896	0.611877	
-1.62354	0.616455	
-1.62964	0.608826	
-1.63422	0.610352	
-1.63727	0.617981	
-1.64642	0.613403	
-1.64948	0.611877	
-1.6571	0.614929	
-1.66168	0.616455	
-1.66779	0.608826	
-1.67084	0.613403	
-1.68304	0.616455	
-1.68915	0.608826	
-1.69525	0.613403	
-1.6983	0.617981	
-1.70441	0.610352	
-1.71204	0.611877	
-1.72272	0.617981	
-1.72577	0.614929	
-1.73492	0.611877	
-1.7395	0.613403	
-1.74561	0.616455	
-1.75171	0.608826	
-1.75323	0.611877	
-1.76544	0.617981	
-1.77002	0.613403	
-1.77612	0.610352	
-1.77917	0.617981	
-1.78528	0.617981	
-1.79138	0.610352	
-1.79749	0.613403	
-1.79901	0.616455	
-1.80511	0.610352	
-1.80664	0.608826	
-1.81122	0.614929	
-1.81427	0.610352	
-1.81885	0.613403	
-1.81885	0.616455	
-1.81885	0.613403	
-1.81885	0.611877	
-1.82343	0.617981	
-1.82495	0.617981	
-1.82495	0.613403	
-1.82495	0.611877	
-1.82495	0.617981	
-1.8219	0.610352	
-1.82037	0.608826	
-1.81885	0.616455	
-1.82037	0.616455	
-1.81885	0.610352	
-1.81732	0.616455	
-1.81427	0.613403	
-1.8158	0.608826	
-1.81122	0.611877	
-1.80664	0.616455	
-1.80664	0.611877	
-1.79901	0.611877	
-1.79901	0.613403	
-1.79596	0.614929	
-1.79596	0.611877	
-1.79291	0.614929	
-1.78528	0.614929	
-1.78375	0.611877	
-1.78223	0.610352	
-1.77765	0.617981	
-1.77307	0.611877	
-1.77307	0.610352	
-1.76697	0.611877	
-1.76544	0.613403	
-1.76239	0.610352	
-1.76086	0.614929	
-1.76086	0.614929	
-1.75476	0.608826	
-1.75476	0.608826	
-1.75171	0.613403	
-1.75323	0.613403	
-1.75018	0.613403	
-1.74866	0.613403	
-1.74408	0.613403	
-1.74866	0.611877	
-1.74713	0.613403	
-1.74255	0.613403	
-1.74408	0.613403	
-1.74408	0.610352	
-1.74408	0.614929	
-1.74408	0.611877	
-1.74408	0.610352	
-1.74255	0.613403	
-1.74713	0.613403	
-1.74713	0.613403	
-1.74713	0.614929	
-1.74866	0.614929	
-1.74713	0.613403	
-1.75171	0.614929	
-1.75323	0.613403	
-1.75323	0.613403	
-1.75781	0.608826	
-1.76086	0.616455	
-1.75934	0.614929	
-1.76544	0.610352	
-1.76392	0.611877	
-1.76544	0.614929	
-1.77002	0.611877	
-1.77155	0.611877	
-1.77307	0.608826	
-1.77765	0.611877	
-1.77765	0.610352	
-1.78223	0.611877	
-1.78223	0.616455	
-1.78833	0.613403	
-1.79138	0.611877	
-1.79596	0.616455	
-1.80054	0.613403	
-1.80206	0.613403	
-1.80817	0.613403	
-1.80817	0.608826	
-1.81122	0.608826	
-1.8158	0.613403	
-1.8219	0.614929	
-1.82343	0.613403	
-1.82953	0.614929	
-1.83105	0.616455	
-1.83563	0.611877	
-1.83868	0.611877	
-1.84326	0.611877	
-1.84479	0.610352	
-1.85242	0.608826	
-1.85547	0.613403	
-1.86157	0.613403	
-1.86157	0.611877	
-1.86768	0.614929	
-1.87225	0.616455	
-1.87683	0.614929	
-1.88141	0.610352	
-1.88599	0.613403	
-1.89056	0.610352	
-1.89362	0.605774	
-1.89972	0.613403	
-1.89972	0.613403	
-1.90735	0.611877	
-1.9104	0.616455	
-1.9165	0.616455	
-1.92108	0.611877	
-1.92871	0.608826	
-1.93176	0.613403	
-1.93481	0.610352	
-1.93939	0.611877	
-1.94397	0.613403	
-1.95007	0.616455	
-1.95618	0.613403	
-1.96075	0.611877	
-1.96228	0.613403	
-1.96533	0.611877	
-1.97296	0.608826	
-1.97601	0.610352	
-1.98212	0.611877	
-1.98975	0.6073	
-1.99127	0.616455	
-1.99585	0.614929	
-2.00195	0.613403	
-2.005	0.614929	
-2.00958	0.616455	
-2.01111	0.611877	
-2.01874	0.611877	
-2.02484	0.610352	
-2.02789	0.610352	
-2.034	0.608826	
-2.03247	0.611877	
-2.03857	0.617981	
-2.0462	0.613403	
-2.05078	0.611877	
-2.05231	0.617981	
-2.05536	0.611877	
-2.05994	0.610352	
-2.06604	0.611877	
-2.07062	0.608826	
-2.07214	0.6073	
-2.0752	0.616455	
-2.07977	0.617981	
-2.08282	0.616455	
-2.09045	0.613403	
-2.08893	0.617981	
-2.09351	0.614929	
-2.10114	0.610352	
-2.10571	0.613403	
-2.11029	0.608826	
-2.11182	0.605774	
-2.11487	0.613403	
-2.11945	0.614929	
-2.1225	0.613403	
-2.1286	0.614929	
-2.13013	0.614929	
-2.13318	0.611877	
-2.13623	0.6073	
-2.14233	0.611877	
-2.14691	0.611877	
-2.14996	0.608826	
-2.15302	0.613403	
-2.15302	0.616455	
-2.15759	0.613403	
-2.16217	0.611877	
-2.1637	0.616455	
-2.16827	0.610352	
-2.17133	0.610352	
-2.17438	0.610352	
-2.17743	0.614929	
-2.17896	0.608826	
-2.18353	0.613403	
-2.18048	0.616455	
-2.18048	0.616455	
-2.18048	0.611877	
-2.17896	0.619507	
-2.17285	0.611877	
-2.17133	0.611877	
-2.1637	0.608826	
-2.15759	0.610352	
-2.14996	0.608826	
-2.14081	0.613403	
-2.12708	0.614929	
-2.11334	0.614929	
-2.10266	0.617981	
-2.0874	0.616455	
-2.06909	0.610352	
-2.05078	0.610352	
-2.03094	0.610352	
-2.01263	0.610352	
-1.99432	0.608826	
-1.97296	0.614929	
-1.9516	0.614929	
-1.93176	0.616455	
-1.91345	0.613403	
-1.88904	0.614929	
-1.87225	0.610352	
-1.85089	0.610352	
-1.83105	0.608826	
-1.81122	0.608826	
-1.79291	0.6073	
-1.77307	0.614929	
-1.75476	0.616455	
-1.73798	0.613403	
-1.72272	0.614929	
-1.70441	0.616455	
-1.68915	0.610352	
-1.67236	0.610352	
-1.65863	0.608826	
-1.64032	0.608826	
-1.62964	0.608826	
-1.61896	0.610352	
-1.60522	0.613403	
-1.59149	0.613403	
-1.58386	0.614929	
-1.57166	0.614929	
-1.55792	0.611877	
-1.55334	0.608826	
-1.54419	0.605774	
-1.53656	0.610352	
-1.52588	0.6073	
-1.51825	0.610352	
-1.51062	0.611877	
-1.51062	0.614929	
-1.50299	0.613403	
-1.49841	0.616455	
-1.49384	0.614929	
-1.49231	0.611877	
-1.48621	0.608826	
-1.48315	0.610352	
-1.47858	0.605774	
-1.47858	0.613403	
-1.474	0.610352	
-1.47552	0.616455	
-1.47095	0.616455	
-1.47247	0.614929	
-1.474	0.611877	
-1.47247	0.610352	
-1.474	0.608826	
-1.474	0.610352	
-1.47705	0.6073	
-1.47705	0.611877	
-1.47858	0.610352	
-1.48163	0.616455	
-1.48315	0.616455	
-1.48621	0.613403	
-1.49078	0.611877	
-1.49384	0.608826	
-1.49841	0.608826	
-1.50146	0.610352	
-1.50299	0.6073	
-1.50757	0.611877	
-1.51062	0.611877	
-1.51215	0.611877	
-1.51825	0.613403	
-1.52283	0.617981	
-1.52893	0.611877	
-1.53351	0.613403	
-1.53656	0.605774	
-1.54114	0.610352	
-1.54572	0.6073	
-1.55029	0.613403	
-1.55487	0.610352	
-1.56097	0.614929	
-1.57013	0.611877	
-1.57013	0.616455	
-1.57623	0.611877	
-1.58234	0.611877	
-1.58539	0.605774	
-1.59302	0.611877	
-1.59454	0.611877	
-1.59912	0.608826	
-1.60828	0.611877	
-1.61133	0.616455	
-1.61438	0.611877	
-1.62201	0.611877	
-1.62659	0.613403	
-1.63116	0.6073	
-1.63574	0.608826	
-1.64032	0.608826	
-1.64948	0.6073	
-1.65253	0.610352	
-1.65863	0.611877	
-1.66168	0.616455	
-1.66473	0.608826	
-1.67389	0.614929	
-1.68152	0.610352	
-1.6861	0.610352	
-1.6922	0.610352	
-1.6983	0.611877	
-1.70288	0.610352	
-1.71051	0.611877	
-1.71356	0.611877	
-1.71661	0.611877	
-1.72577	0.611877	
-1.73187	0.614929	
-1.73798	0.611877	
-1.74103	0.608826	
-1.74408	0.6073	
-1.75171	0.610352	
-1.75476	0.608826	
-1.75781	0.610352	
-1.76392	0.614929	
-1.76544	0.616455	
-1.77002	0.614929	
-1.77307	0.614929	
-1.7746	0.6073	
-1.77765	0.610352	
-1.7807	0.608826	
-1.78375	0.610352	
-1.7807	0.6073	
-1.78223	0.611877	
-1.78375	0.611877	
-1.7807	0.614929	
-1.78223	0.611877	
-1.78223	0.611877	
-1.78223	0.611877	
-1.78223	0.611877	
-1.77917	0.611877	
-1.77612	0.611877	
-1.77307	0.611877	
-1.7746	0.610352	
-1.7746	0.611877	
-1.77155	0.611877	
-1.76849	0.613403	
-1.76697	0.613403	
-1.76392	0.610352	
-1.75934	0.608826	
-1.75476	0.608826	
-1.75323	0.610352	
-1.75018	0.608826	
-1.74408	0.610352	
-1.74408	0.613403	
-1.74103	0.613403	
-1.73492	0.611877	
-1.7334	0.610352	
-1.73035	0.613403	
-1.72882	0.610352	
-1.72577	0.6073	
-1.72272	0.610352	
-1.71967	0.610352	
-1.71356	0.610352	
-1.71661	0.613403	
-1.71204	0.614929	
-1.70898	0.611877	
-1.70746	0.617981	
-1.70593	0.613403	
-1.70593	0.610352	
-1.70288	0.608826	
-1.70288	0.611877	
-1.70135	0.608826	
-1.70135	0.611877	
-1.69983	0.613403	
-1.69983	0.613403	
-1.69983	0.613403	
-1.69983	0.611877	
-1.69983	0.613403	
-1.69983	0.608826	
-1.69983	0.6073	
-1.69983	0.610352	
-1.70135	0.610352	
-1.6983	0.608826	
-1.70135	0.611877	
-1.70135	0.613403	
-1.70288	0.611877	
-1.70441	0.614929	
-1.70746	0.608826	
-1.70898	0.610352	
-1.71051	0.6073	
-1.71051	0.608826	
-1.71356	0.608826	
-1.71661	0.610352	
-1.72119	0.611877	
-1.72119	0.613403	
-1.72729	0.613403	
-1.72882	0.613403	
-1.73187	0.611877	
-1.73798	0.605774	
-1.74103	0.608826	
-1.74713	0.611877	
-1.74713	0.6073	
-1.75323	0.610352	
-1.75323	0.610352	
-1.76239	0.613403	
-1.76392	0.611877	
-1.76849	0.613403	
-1.77155	0.613403	
-1.77765	0.608826	
-1.78223	0.608826	
-1.78528	0.611877	
-1.78986	0.610352	
-1.79596	0.611877	
-1.79901	0.613403	
-1.80511	0.613403	
-1.80817	0.613403	
-1.81122	0.610352	
-1.81732	0.616455	
-1.82037	0.6073	
-1.82648	0.611877	
-1.83105	0.611877	
-1.83411	0.6073	
-1.83716	0.608826	
-1.84479	0.613403	
-1.85089	0.611877	
-1.85242	0.610352	
-1.85699	0.611877	
-1.8631	0.610352	
-1.86615	0.605774	
-1.87225	0.611877	
-1.87683	0.6073	
-1.88446	0.610352	
-1.88751	0.610352	
-1.89056	0.613403	
-1.89514	0.608826	
-1.89972	0.610352	
-1.90277	0.611877	
-1.90735	0.613403	
-1.91803	0.610352	
-1.91803	0.611877	
-1.92566	0.610352	
-1.92566	0.608826	
-1.93176	0.610352	
-1.93787	0.611877	
-1.93939	0.610352	
-1.9455	0.611877	
-1.95007	0.610352	
-1.95313	0.611877	
-1.96075	0.608826	
-1.96381	0.610352	
-1.96838	0.610352	
-1.97144	0.613403	
-1.97601	0.6073	
-1.97906	0.613403	
-1.98212	0.608826	
-1.98822	0.611877	
-1.99432	0.611877	
-1.99738	0.611877	
-2.00043	0.610352	
-2.005	0.611877	
-2.00958	0.6073	
-2.01263	0.6073	
-2.01721	0.6073	
-2.01874	0.611877	
-2.02484	0.602722	
-2.02942	0.611877	
-2.034	0.611877	
-2.03552	0.611877	
-2.04315	0.608826	
-2.04468	0.613403	
-2.04468	0.610352	
-2.04926	0.6073	
-2.05383	0.608826	
-2.05688	0.610352	
-2.06299	0.605774	
-2.06451	0.610352	
-2.06451	0.610352	
-2.06909	0.613403	
-2.07214	0.610352	
-2.07977	0.613403	
-2.08435	0.608826	
-2.0874	0.613403	
-2.0874	0.6073	
-2.09198	0.608826	
-2.09503	0.604248	
-2.10114	0.611877	
-2.10571	0.613403	
-2.11182	0.611877	
-2.11334	0.608826	
-2.11639	0.616455	
-2.12097	0.611877	
-2.12402	0.611877	
-2.1286	0.610352	
-2.13318	0.610352	
-2.1347	0.6073	
-2.13928	0.611877	
-2.14233	0.6073	
-2.14539	0.614929	
-2.14844	0.610352	
-2.15149	0.616455	
-2.15302	0.6073	
-2.15607	0.610352	
-2.15912	0.608826	
-2.1637	0.611877	
-2.16064	0.604248	
-2.16217	0.610352	
-2.15912	0.611877	
-2.15759	0.611877	
-2.15912	0.610352	
-2.15302	0.616455	
-2.14996	0.605774	
-2.14539	0.610352	
-2.13623	0.610352	
-2.1286	0.6073	
-2.11792	0.604248	
-2.10876	0.613403	
-2.09198	0.608826	
-2.0813	0.611877	
-2.06299	0.6073	
-2.0462	0.616455	
-2.02942	0.6073	
-2.00806	0.6073	
-1.9928	0.6073	
-1.96838	0.611877	
-1.95007	0.602722	
-1.92871	0.611877	
-1.90582	0.610352	
-1.88599	0.611877	
-1.86615	0.610352	
-1.84326	0.616455	
-1.82495	0.6073	
-1.80511	0.6073	
-1.78528	0.6073	
-1.76849	0.610352	
-1.74408	0.602722	
-1.73035	0.613403	
-1.71204	0.610352	
-1.69525	0.613403	
-1.67389	0.610352	
-1.66168	0.616455	
-1.6449	0.6073	
-1.63269	0.610352	
-1.61743	0.610352	
-1.60065	0.608826	
-1.58691	0.59967	
-1.57623	0.614929	
-1.5625	0.611877	
-1.55334	0.614929	
-1.54419	0.610352	
-1.53351	0.617981	
-1.52435	0.6073	
-1.51367	0.610352	
-1.50452	0.6073	
-1.49689	0.610352	
-1.48773	0.59967	
-1.48468	0.613403	
-1.47705	0.608826	
-1.47095	0.614929	
-1.46637	0.6073	
-1.46484	0.619507	
-1.46179	0.608826	
-1.45721	0.608826	
-1.45264	0.6073	
-1.44958	0.610352	
-1.44501	0.59967	
-1.44348	0.610352	
-1.44196	0.608826	
-1.44196	0.610352	
-1.44043	0.610352	
-1.44348	0.621033	
-1.44348	0.605774	
-1.44348	0.6073	
-1.44348	0.6073	
-1.44501	0.610352	
-1.44806	0.601196	
-1.44806	0.610352	
-1.44958	0.608826	
-1.45416	0.614929	
-1.45569	0.6073	
-1.46332	0.621033	
-1.46637	0.6073	
-1.46637	0.610352	
-1.47095	0.605774	
-1.47552	0.613403	
-1.47552	0.59967	
-1.48315	0.608826	
-1.48468	0.6073	
-1.48773	0.613403	
-1.49231	0.605774	
-1.49841	0.621033	
-1.50146	0.608826	
-1.50757	0.608826	
-1.51367	0.6073	
-1.51672	0.611877	
-1.51978	0.59967	
-1.52893	0.608826	
-1.53198	0.611877	
-1.53656	0.610352	
-1.53961	0.610352	
-1.54877	0.621033	
-1.55182	0.608826	
-1.56097	0.611877	
-1.56403	0.608826	
-1.57013	0.6073	
-1.57623	0.59967	
-1.58234	0.610352	
-1.58386	0.610352	
-1.59149	0.608826	
-1.59607	0.6073	
-1.60522	0.621033	
-1.61285	0.6073	
-1.61438	0.610352	
-1.62048	0.605774	
-1.62811	0.6073	
-1.63422	0.598145	
-1.64032	0.611877	
-1.6449	0.608826	
-1.651	0.613403	
-1.65863	0.6073	
-1.66473	0.617981	
-1.67389	0.608826	
-1.67847	0.608826	
-1.68457	0.605774	
-1.69373	0.611877	
-1.6983	0.59967	
-1.70288	0.611877	
-1.71051	0.610352	
-1.71967	0.610352	
-1.72272	0.608826	
-1.72729	0.619507	
-1.73492	0.608826	
-1.73492	0.608826	
-1.74408	0.6073	
-1.74561	0.608826	
-1.75171	0.598145	
-1.75781	0.611877	
-1.76239	0.6073	
-1.76239	0.610352	
-1.76392	0.608826	
-1.76849	0.616455	
-1.77155	0.6073	
-1.77002	0.6073	
-1.77155	0.608826	
-1.7746	0.605774	
-1.7746	0.601196	
-1.77612	0.608826	
-1.7746	0.605774	
-1.7746	0.610352	
-1.77155	0.608826	
-1.77155	0.616455	
-1.77155	0.608826	
-1.77155	0.608826	
-1.77002	0.610352	
-1.76849	0.608826	
-1.76392	0.59967	
-1.76086	0.610352	
-1.76086	0.608826	
-1.75781	0.6073	
-1.75171	0.608826	
-1.75171	0.614929	
-1.75018	0.6073	
-1.74713	0.608826	
-1.74103	0.608826	
-1.73798	0.610352	
-1.73492	0.602722	
-1.7334	0.610352	
-1.73035	0.6073	
-1.72577	0.608826	
-1.72577	0.6073	
-1.72119	0.613403	
-1.71509	0.608826	
-1.71204	0.6073	
-1.70898	0.608826	
-1.70898	0.605774	
-1.70593	0.602722	
-1.70288	0.614929	
-1.70441	0.604248	
-1.6983	0.610352	
-1.69983	0.608826	
-1.69525	0.611877	
-1.69678	0.608826	
-1.69373	0.611877	
-1.6922	0.608826	
-1.69373	0.6073	
-1.6922	0.601196	
-1.69373	0.608826	
-1.69067	0.608826	
-1.6861	0.605774	
-1.69067	0.608826	
-1.6922	0.610352	
-1.69373	0.6073	
-1.6922	0.611877	
-1.69373	0.6073	
-1.69525	0.608826	
-1.69525	0.605774	
-1.69678	0.608826	
-1.69983	0.6073	
-1.6983	0.608826	
-1.70288	0.608826	
-1.70441	0.611877	
-1.70593	0.608826	
-1.70593	0.6073	
-1.70898	0.608826	
-1.71204	0.605774	
-1.71661	0.6073	
-1.72119	0.608826	
-1.72729	0.608826	
-1.72729	0.608826	
-1.73187	0.608826	
-1.72882	0.608826	
-1.73492	0.6073	
-1.73492	0.608826	
-1.74255	0.605774	
-1.74561	0.608826	
-1.74713	0.6073	
-1.75171	0.610352	
-1.75476	0.6073	
-1.75781	0.6073	
-1.76392	0.608826	
-1.76697	0.6073	
-1.77307	0.605774	
-1.77917	0.6073	
-1.78223	0.610352	
-1.78528	0.6073	
-1.78986	0.605774	
-1.79596	0.608826	
-1.79901	0.6073	
-1.80359	0.605774	
-1.80969	0.608826	
-1.81274	0.605774	
-1.81885	0.605774	
-1.82495	0.610352	
-1.828	0.608826	
-1.83411	0.6073	
-1.84021	0.610352	
-1.84479	0.611877	
-1.84784	0.6073	
-1.85699	0.610352	
-1.86005	0.608826	
-1.86615	0.601196	
-1.8692	0.608826	
-1.87836	0.608826	
-1.88141	0.611877	
-1.88599	0.6073	
-1.89362	0.613403	
-1.89362	0.6073	
-1.90125	0.6073	
-1.9104	0.608826	
-1.91345	0.608826	
-1.91803	0.602722	
-1.92413	0.6073	
-1.93024	0.608826	
-1.93329	0.608826	
-1.93634	0.6073	
-1.94397	0.611877	
-1.9455	0.610352	
-1.95313	0.610352	
-1.95618	0.6073	
-1.96228	0.610352	
-1.96991	0.598145	
-1.97144	0.6073	
-1.97906	0.608826	
-1.98059	0.610352	
-1.98975	0.602722	
-1.99432	0.614929	
-1.9989	0.611877	
-2.005	0.608826	
-2.01111	0.608826	
-2.01416	0.608826	
-2.02026	0.59967	
-2.02026	0.605774	
-2.02484	0.608826	
-2.03247	0.608826	
-2.034	0.605774	
-2.03857	0.617981	
-2.04468	0.611877	
-2.04926	0.610352	
-2.04926	0.610352	
-2.05231	0.610352	
-2.05841	0.596619	
-2.05841	0.605774	
-2.06299	0.6073	
-2.06909	0.610352	
-2.07367	0.608826	
-2.07672	0.617981	
-2.07825	0.610352	
-2.08282	0.608826	
-2.08282	0.605774	
-2.09045	0.611877	
-2.09198	0.595093	
-2.09656	0.602722	
-2.10419	0.605774	
-2.10571	0.610352	
-2.10724	0.602722	
-2.11182	0.616455	
-2.11487	0.610352	
-2.11945	0.6073	
-2.1225	0.605774	
-2.12555	0.608826	
-2.1286	0.59967	
-2.12708	0.605774	
-2.13623	0.605774	
-2.14081	0.6073	
-2.14539	0.602722	
-2.14539	0.617981	
-2.15149	0.611877	
-2.15302	0.6073	
-2.16064	0.6073	
-2.16217	0.610352	
-2.16522	0.59967	
-2.1698	0.604248	
-2.17438	0.605774	
-2.17743	0.608826	
-2.18048	0.604248	
-2.18506	0.617981	
-2.18811	0.610352	
-2.19269	0.6073	
-2.19574	0.608826	
-2.19727	0.611877	
-2.20337	0.59967	
-2.20337	0.605774	
-2.20795	0.610352	
-2.211	0.6073	
-2.20947	0.602722	
-2.20947	0.619507	
-2.21558	0.610352	
-2.20947	0.608826	
-2.20947	0.6073	
-2.20795	0.610352	
-2.20337	0.598145	
-2.19879	0.605774	
-2.19269	0.6073	
-2.18353	0.608826	
-2.17285	0.605774	
-2.16522	0.616455	
-2.15149	0.610352	
-2.13623	0.605774	
-2.11945	0.6073	
-2.10266	0.610352	
-2.08588	0.602722	
-2.06909	0.602722	
-2.04773	0.610352	
-2.02789	0.610352	
-2.005	0.605774	
-1.98364	0.616455	
-1.96381	0.613403	
-1.94244	0.6073	
-1.91956	0.6073	
-1.89819	0.610352	
-1.87836	0.602722	
-1.85547	0.604248	
-1.83868	0.610352	
-1.8158	0.608826	
-1.79749	0.604248	
-1.77612	0.613403	
-1.76086	0.6073	
-1.74255	0.605774	
-1.72119	0.605774	
-1.70135	0.610352	
-1.68915	0.601196	
-1.67236	0.604248	
-1.6571	0.6073	
-1.64337	0.6073	
-1.62964	0.602722	
-1.61743	0.611877	
-1.60217	0.613403	
-1.59149	0.605774	
-1.58234	0.6073	
-1.5686	0.611877	
-1.5564	0.610352	
-1.55029	0.6073	
-1.53809	0.6073	
-1.53351	0.610352	
-1.52435	0.604248	
-1.51825	0.608826	
-1.51367	0.610352	
-1.50909	0.6073	
-1.50146	0.6073	
-1.49994	0.610352	
-1.49384	0.608826	
-1.49231	0.604248	
-1.48773	0.6073	
-1.48468	0.6073	
-1.48621	0.604248	
-1.48163	0.608826	
-1.4801	0.611877	
-1.4801	0.6073	
-1.4801	0.6073	
-1.48163	0.610352	
-1.48315	0.604248	
-1.48315	0.605774	
-1.48468	0.605774	
-1.48773	0.610352	
-1.49078	0.604248	
-1.49078	0.6073	
-1.49384	0.613403	
-1.49689	0.6073	
-1.50146	0.605774	
-1.50604	0.611877	
-1.50757	0.602722	
-1.51215	0.605774	
-1.51367	0.605774	
-1.51825	0.6073	
-1.52435	0.605774	
-1.53046	0.6073	
-1.53656	0.6073	
-1.54266	0.6073	
-1.54572	0.6073	
-1.54877	0.611877	
-1.55487	0.608826	
-1.55792	0.605774	
-1.56708	0.602722	
-1.57318	0.611877	
-1.58081	0.605774	
-1.58386	0.6073	
-1.59149	0.610352	
-1.59454	0.605774	
-1.60065	0.6073	
-1.60828	0.608826	
-1.61438	0.6073	
-1.61896	0.602722	
-1.62506	0.608826	
-1.62811	0.608826	
-1.63727	0.605774	
-1.64337	0.6073	
-1.64948	0.608826	
-1.65405	0.6073	
-1.66321	0.605774	
-1.66779	0.610352	
-1.67389	0.608826	
-1.68457	0.605774	
-1.68915	0.608826	
-1.69525	0.610352	
-1.70135	0.605774	
-1.70746	0.605774	
-1.71509	0.6073	
-1.72424	0.611877	
-1.73035	0.6073	
-1.73798	0.605774	
-1.74561	0.6073	
-1.75476	0.602722	
-1.76239	0.6073	
-1.76849	0.608826	
-1.7746	0.604248	
-1.78223	0.6073	
-1.78833	0.610352	
-1.79596	0.6073	
-1.80206	0.605774	
-1.81122	0.6073	
-1.81427	0.605774	
-1.82037	0.604248	
-1.82648	0.608826	
-1.828	0.608826	
-1.83868	0.602722	
-1.84326	0.605774	
-1.84784	0.6073	
-1.84784	0.6073	
-1.85242	0.605774	
-1.85394	0.608826	
-1.85699	0.6073	
-1.86005	0.605774	
-1.86157	0.6073	
-1.86462	0.608826	
-1.86157	0.605774	
-1.86157	0.6073	
-1.86462	0.608826	
-1.86462	0.605774	
-1.86005	0.605774	
-1.86157	0.611877	
-1.85699	0.605774	
-1.85547	0.601196	
-1.85242	0.604248	
-1.85242	0.608826	
-1.84937	0.605774	
-1.84937	0.605774	
-1.84326	0.608826	
-1.84174	0.605774	
-1.83716	0.604248	
-1.83105	0.6073	
-1.82953	0.6073	
-1.828	0.602722	
-1.82343	0.610352	
-1.8158	0.6073	
-1.8158	0.6073	
-1.80969	0.608826	
-1.80817	0.6073	
-1.80359	0.604248	
-1.79749	0.604248	
-1.79749	0.6073	
-1.78986	0.605774	
-1.7868	0.604248	
-1.7868	0.608826	
-1.78223	0.6073	
-1.77917	0.6073	
-1.77612	0.604248	
-1.77002	0.611877	
-1.76849	0.604248	
-1.76697	0.6073	
-1.76239	0.608826	
-1.76239	0.6073	
-1.75934	0.602722	
-1.75476	0.608826	
-1.75323	0.6073	
-1.75476	0.604248	
-1.75323	0.6073	
-1.74866	0.6073	
-1.75171	0.605774	
-1.75171	0.6073	
-1.75171	0.610352	
-1.75018	0.608826	
-1.75018	0.602722	
-1.75018	0.610352	
-1.75171	0.608826	
-1.75171	0.605774	
-1.75323	0.6073	
-1.75781	0.605774	
-1.75781	0.604248	
-1.76086	0.605774	
-1.76392	0.608826	
-1.76697	0.602722	
-1.76544	0.604248	
-1.76849	0.608826	
-1.7746	0.605774	
-1.7746	0.6073	
-1.77612	0.608826	
-1.7807	0.6073	
-1.78375	0.604248	
-1.78528	0.604248	
-1.7868	0.608826	
-1.79138	0.604248	
-1.79749	0.602722	
-1.80206	0.610352	
-1.80511	0.610352	
-1.80969	0.6073	
-1.81427	0.605774	
-1.81427	0.611877	
-1.82343	0.605774	
-1.82495	0.605774	
-1.82953	0.605774	
-1.83716	0.6073	
-1.83868	0.605774	
-1.84174	0.604248	
-1.84784	0.608826	
-1.85394	0.6073	
-1.85699	0.6073	
-1.86462	0.608826	
-1.8692	0.604248	
-1.87225	0.605774	
-1.87836	0.6073	
-1.88599	0.6073	
-1.89209	0.605774	
-1.89362	0.604248	
-1.90125	0.605774	
-1.9043	0.602722	
-1.9104	0.6073	
-1.91956	0.608826	
-1.92413	0.605774	
-1.92719	0.604248	
-1.93176	0.6073	
-1.93787	0.6073	
-1.94855	0.605774	
-1.9516	0.605774	
-1.95465	0.608826	
-1.96075	0.605774	
-1.96838	0.604248	
-1.97144	0.6073	
-1.97754	0.6073	
-1.98212	0.604248	
-1.98975	0.6073	
-1.9928	0.6073	
-1.99738	0.602722	
-2.00348	0.6073	
-2.00806	0.6073	
-2.01111	0.608826	
-2.01721	0.605774	
-2.02179	0.6073	
-2.03094	0.604248	
-2.03552	0.6073	
-2.0401	0.6073	
-2.04468	0.608826	
-2.04926	0.605774	
-2.05841	0.6073	
-2.06299	0.604248	
-2.06757	0.6073	
-2.0752	0.605774	
-2.0752	0.6073	
-2.08282	0.605774	
-2.08435	0.605774	
-2.09198	0.604248	
-2.09503	0.6073	
-2.10266	0.604248	
-2.10876	0.605774	
-2.11029	0.6073	
-2.11639	0.605774	
-2.12097	0.605774	
-2.12402	0.610352	
-2.1286	0.605774	
-2.13013	0.605774	
-2.13623	0.6073	
-2.14539	0.6073	
-2.14996	0.604248	
-2.15607	0.6073	
-2.15759	0.605774	
-2.15912	0.6073	
-2.1637	0.605774	
-2.16827	0.6073	
-2.17133	0.604248	
-2.17438	0.6073	
-2.18048	0.6073	
-2.18658	0.608826	
-2.18964	0.604248	
-2.19421	0.605774	
-2.19574	0.6073	
-2.20337	0.605774	
-2.20337	0.6073	
-2.211	0.610352	
-2.211	0.6073	
-2.22015	0.604248	
-2.22168	0.604248	
-2.22626	0.604248	
-2.22931	0.604248	
-2.23236	0.6073	
-2.23694	0.605774	
-2.23999	0.605774	
-2.24457	0.6073	
-2.24762	0.6073	
-2.25067	0.608826	
-2.25525	0.608826	
-2.25677	0.608826	
-2.26135	0.6073	
-2.26746	0.608826	
-2.27051	0.6073	
-2.27203	0.605774	
-2.27661	0.6073	
-2.28119	0.605774	
-2.28271	0.608826	
-2.28577	0.605774	
-2.29187	0.602722	
-2.29645	0.608826	
-2.2995	0.6073	
-2.30103	0.605774	
-2.30103	0.602722	
-2.30255	0.6073	
-2.30408	0.605774	
-2.30865	0.605774	
-2.31171	0.611877	
-2.31323	0.608826	
-2.31323	0.605774	
-2.30713	0.610352	
-2.31018	0.6073	
-2.31018	0.604248	
-2.30408	0.6073	
-2.30255	0.605774	
-2.28882	0.608826	
-2.28424	0.605774	
-2.27356	0.6073	
-2.26593	0.605774	
-2.25067	0.608826	
-2.23541	0.6073	
-2.22168	0.604248	
-2.20184	0.605774	
-2.18506	0.602722	
-2.16522	0.6073	
-2.14691	0.6073	
-2.12097	0.608826	
-2.10266	0.6073	
-2.07825	0.6073	
-2.05383	0.608826	
-2.03247	0.608826	
-2.00653	0.605774	
-1.98669	0.605774	
-1.96075	0.604248	
-1.94092	0.605774	
-1.91803	0.604248	
-1.89514	0.604248	
-1.87225	0.605774	
-1.84937	0.6073	
-1.828	0.604248	
-1.80969	0.608826	
-1.78986	0.604248	
-1.77307	0.604248	
-1.75476	0.605774	
-1.73645	0.6073	
-1.72119	0.605774	
-1.70441	0.6073	
-1.68915	0.6073	
-1.67542	0.605774	
-1.66168	0.605774	
-1.64948	0.605774	
-1.63422	0.604248	
-1.62506	0.605774	
-1.61285	0.605774	
-1.60217	0.6073	
-1.59607	0.605774	
-1.58539	0.602722	
-1.57623	0.6073	
-1.57318	0.608826	
-1.56708	0.604248	
-1.55792	0.608826	
-1.55182	0.605774	
-1.54724	0.608826	
-1.54419	0.602722	
-1.54114	0.604248	
-1.53809	0.6073	
-1.53656	0.605774	
-1.53656	0.608826	
-1.53503	0.605774	
-1.53046	0.605774	
-1.53046	0.605774	
-1.53198	0.604248	
-1.53046	0.6073	
-1.53046	0.605774	
-1.53198	0.604248	
-1.53656	0.605774	
-1.53809	0.604248	
-1.53961	0.604248	
-1.54419	0.604248	
-1.54572	0.605774	
-1.54572	0.6073	
-1.55029	0.605774	
-1.55334	0.6073	
-1.55792	0.605774	
-1.56097	0.605774	
-1.56097	0.610352	
-1.57013	0.605774	
-1.57471	0.604248	
-1.57776	0.610352	
-1.58386	0.604248	
-1.58997	0.605774	
-1.59454	0.605774	
-1.5976	0.602722	
-1.60065	0.605774	
-1.61133	0.605774	
-1.61896	0.605774	
-1.62201	0.601196	
-1.63269	0.604248	
-1.63574	0.605774	
-1.64337	0.604248	
-1.64948	0.605774	
-1.6571	0.604248	
-1.66168	0.6073	
-1.67084	0.604248	
-1.67236	0.6073	
-1.68152	0.604248	
-1.68915	0.6073	
-1.69983	0.6073	
-1.70441	0.6073	
-1.71051	0.605774	
-1.72119	0.604248	
-1.72729	0.604248	
-1.7334	0.605774	
-1.74103	0.604248	
-1.74713	0.610352	
-1.75323	0.605774	
-1.76392	0.604248	
-1.77002	0.604248	
-1.77917	0.605774	
-1.78528	0.605774	
-1.79291	0.604248	
-1.80511	0.6073	
-1.80969	0.602722	
-1.8158	0.608826	
-1.82495	0.602722	
-1.82953	0.604248	
-1.84326	0.604248	
-1.85089	0.604248	
-1.85699	0.608826	
-1.86768	0.604248	
-1.87378	0.604248	
-1.87836	0.608826	
-1.88904	0.605774	
-1.89209	0.601196	
-1.9043	0.605774	
-1.9104	0.604248	
-1.9165	0.604248	
-1.92261	0.604248	
-1.92566	0.605774	
-1.92871	0.602722	
-1.93481	0.604248	
-1.93634	0.605774	
-1.94244	0.604248	
-1.9455	0.602722	
-1.94397	0.6073	
-1.94855	0.605774	
-1.9455	0.605774	
-1.9516	0.602722	
-1.95007	0.608826	
-1.9455	0.605774	
-1.95007	0.605774	
-1.9455	0.604248	
-1.9455	0.604248	
-1.94855	0.602722	
-1.94092	0.604248	
-1.94092	0.601196	
-1.93634	0.605774	
-1.93024	0.59967	
-1.92719	0.6073	
-1.92719	0.601196	
-1.92108	0.604248	
-1.9165	0.608826	
-1.91345	0.604248	
-1.90582	0.604248	
-1.90277	0.6073	
-1.89819	0.601196	
-1.89514	0.602722	
-1.88751	0.604248	
-1.88751	0.605774	
-1.87988	0.604248	
-1.87378	0.6073	
-1.87225	0.605774	
-1.86615	0.6073	
-1.86157	0.59967	
-1.85547	0.604248	
-1.85242	0.601196	
-1.84784	0.6073	
-1.84326	0.604248	
-1.84021	0.6073	
-1.83105	0.601196	
-1.828	0.605774	
-1.82648	0.605774	
-1.82343	0.605774	
-1.8219	0.602722	
-1.81885	0.604248	
-1.81427	0.604248	
-1.81122	0.604248	
-1.81274	0.605774	
-1.80969	0.608826	
-1.80511	0.604248	
-1.80359	0.6073	
-1.80664	0.604248	
-1.80206	0.605774	
-1.80511	0.602722	
-1.80359	0.6073	
-1.80359	0.602722	
-1.80359	0.605774	
-1.80511	0.602722	
-1.80359	0.6073	
-1.80359	0.604248	
-1.80511	0.610352	
-1.80817	0.604248	
-1.80817	0.608826	
-1.81274	0.602722	
-1.81427	0.605774	
-1.8158	0.602722	
-1.81885	0.604248	
-1.81885	0.601196	
-1.8219	0.604248	
-1.82495	0.601196	
-1.82648	0.605774	
-1.83105	0.604248	
-1.83563	0.605774	
-1.83868	0.6073	
-1.84326	0.605774	
-1.84479	0.605774	
-1.84937	0.6073	
-1.85394	0.604248	
-1.85547	0.6073	
-1.86005	0.604248	
-1.86615	0.605774	
-1.86768	0.604248	
-1.87683	0.6073	
-1.88293	0.604248	
-1.88293	0.608826	
-1.88904	0.601196	
-1.89209	0.604248	
-1.89819	0.604248	
-1.9043	0.6073	
-1.9104	0.6073	
-1.91498	0.605774	
-1.92108	0.604248	
-1.92413	0.605774	
-1.92871	0.605774	
-1.93634	0.604248	
-1.94092	0.604248	
-1.95007	0.602722	
-1.95313	0.604248	
-1.95618	0.6073	
-1.96381	0.602722	
-1.96686	0.605774	
-1.97296	0.602722	
-1.97449	0.605774	
-1.97906	0.608826	
-1.98822	0.604248	
-1.99127	0.604248	
-1.9989	0.604248	
-2.00195	0.601196	
-2.00806	0.605774	
-2.01416	0.602722	
-2.01874	0.605774	
-2.02179	0.602722	
-2.02942	0.605774	
-2.03552	0.6073	
-2.0401	0.605774	
-2.04163	0.604248	
-2.05078	0.602722	
-2.05383	0.605774	
-2.05994	0.602722	
-2.06451	0.6073	
-2.07367	0.605774	
-2.0752	0.604248	
-2.08435	0.604248	
-2.0874	0.604248	
-2.09503	0.605774	
-2.09808	0.602722	
-2.10571	0.608826	
-2.10876	0.6073	
-2.11334	0.604248	
-2.11792	0.604248	
-2.12555	0.604248	
-2.12555	0.605774	
-2.12708	0.604248	
-2.13623	0.6073	
-2.14386	0.602722	
-2.14691	0.602722	
-2.14996	0.604248	
-2.15454	0.602722	
-2.15912	0.59967	
-2.16522	0.604248	
-2.16522	0.605774	
-2.17285	0.605774	
-2.18201	0.605774	
-2.18506	0.605774	
-2.18811	0.604248	
-2.19269	0.601196	
-2.20032	0.605774	
-2.20184	0.604248	
-2.20795	0.602722	
-2.20947	0.605774	
-2.21558	0.605774	
-2.22015	0.604248	
-2.22626	0.604248	
-2.23389	0.6073	
-2.23541	0.602722	
-2.24304	0.605774	
-2.24457	0.601196	
-2.24915	0.602722	
-2.25372	0.602722	
-2.2583	0.604248	
-2.26135	0.604248	
-2.26746	0.605774	
-2.27051	0.605774	
-2.27661	0.604248	
-2.27814	0.602722	
-2.28119	0.602722	
-2.28729	0.605774	
-2.2934	0.602722	
-2.29492	0.604248	
-2.2995	0.602722	
-2.30255	0.602722	
-2.3056	0.605774	
-2.31018	0.6073	
-2.31018	0.604248	
-2.31476	0.602722	
-2.31476	0.608826	
-2.31781	0.604248	
-2.32239	0.602722	
-2.32239	0.602722	
-2.32391	0.604248	
-2.32544	0.6073	
-2.32391	0.605774	
-2.32544	0.605774	
-2.32239	0.604248	
-2.31781	0.604248	
-2.31476	0.605774	
-2.30865	0.604248	
-2.30255	0.605774	
-2.29187	0.601196	
-2.27966	0.602722	
-2.27051	0.601196	
-2.25067	0.602722	
-2.23846	0.6073	
-2.22473	0.608826	
-2.2049	0.605774	
-2.18658	0.604248	
-2.1637	0.6073	
-2.14844	0.601196	
-2.1225	0.601196	
-2.10266	0.604248	
-2.07977	0.604248	
-2.05688	0.604248	
-2.03094	0.602722	
-2.00958	0.605774	
-1.98212	0.604248	
-1.96533	0.602722	
-1.94244	0.602722	
-1.91956	0.601196	
-1.89667	0.601196	
-1.87988	0.601196	
-1.85699	0.604248	
-1.83716	0.605774	
-1.8158	0.604248	
-1.79901	0.608826	
-1.77917	0.604248	
-1.76544	0.602722	
-1.74408	0.601196	
-1.72882	0.602722	
-1.71661	0.598145	
-1.6983	0.602722	
-1.68915	0.604248	
-1.67389	0.602722	
-1.66168	0.6073	
-1.651	0.610352	
-1.64032	0.605774	
-1.63269	0.6073	
-1.62048	0.605774	
-1.61285	0.59967	
-1.60675	0.598145	
-1.5976	0.605774	
-1.59149	0.602722	
-1.58386	0.602722	
-1.57776	0.6073	
-1.57318	0.611877	
-1.57318	0.604248	
-1.5686	0.6073	
-1.56403	0.604248	
-1.55945	0.604248	
-1.55945	0.595093	
-1.55792	0.602722	
-1.55487	0.601196	
-1.55334	0.605774	
-1.5564	0.6073	
-1.5564	0.611877	
-1.5564	0.6073	
-1.55792	0.605774	
-1.55945	0.604248	
-1.5625	0.604248	
-1.56097	0.598145	
-1.56403	0.601196	
-1.5686	0.604248	
-1.57166	0.605774	
-1.57623	0.604248	
-1.58234	0.611877	
-1.58386	0.605774	
-1.59149	0.605774	
-1.59454	0.604248	
-1.59912	0.601196	
-1.60675	0.595093	
-1.6098	0.602722	
-1.61896	0.602722	
-1.62201	0.604248	
-1.62506	0.6073	
-1.62811	0.610352	
-1.63727	0.605774	
-1.64032	0.604248	
-1.651	0.604248	
-1.6571	0.604248	
-1.66168	0.595093	
-1.66779	0.601196	
-1.67389	0.604248	
-1.68304	0.605774	
-1.6861	0.605774	
-1.69678	0.611877	
-1.70288	0.602722	
-1.71051	0.605774	
-1.71967	0.602722	
-1.72577	0.604248	
-1.7334	0.59967	
-1.74408	0.601196	
-1.74866	0.601196	
-1.75323	0.605774	
-1.76392	0.605774	
-1.7746	0.611877	
-1.78223	0.604248	
-1.7868	0.604248	
-1.80054	0.604248	
-1.80359	0.601196	
-1.8158	0.596619	
-1.82343	0.604248	
-1.83563	0.601196	
-1.84174	0.605774	
-1.84784	0.605774	
-1.85699	0.610352	
-1.86462	0.6073	
-1.87531	0.604248	
-1.88446	0.604248	
-1.89514	0.601196	
-1.9043	0.596619	
-1.91345	0.602722	
-1.91956	0.602722	
-1.92719	0.604248	
-1.93634	0.604248	
-1.94397	0.608826	
-1.95313	0.604248	
-1.95923	0.611877	
-1.96686	0.604248	
-1.97296	0.601196	
-1.97906	0.598145	
-1.98364	0.602722	
-1.98669	0.601196	
-1.9928	0.604248	
-1.99738	0.604248	
-1.9989	0.6073	
-2.00348	0.6073	
-2.005	0.605774	
-2.00806	0.604248	
-2.00806	0.602722	
-2.00653	0.602722	
-2.00653	0.601196	
-2.00653	0.596619	
-2.00806	0.604248	
-2.00348	0.604248	
-2.00043	0.6073	
-1.9989	0.604248	
-2.00043	0.6073	
-1.9928	0.602722	
-1.98822	0.601196	
-1.98212	0.601196	
-1.98059	0.605774	
-1.97449	0.59967	
-1.97144	0.604248	
-1.96686	0.605774	
-1.96228	0.6073	
-1.9577	0.6073	
-1.94855	0.608826	
-1.94855	0.601196	
-1.94092	0.602722	
-1.93329	0.604248	
-1.92719	0.604248	
-1.92413	0.59967	
-1.91803	0.602722	
-1.91345	0.601196	
-1.90582	0.604248	
-1.90277	0.605774	
-1.89819	0.6073	
-1.89362	0.604248	
-1.89056	0.602722	
-1.88446	0.605774	
-1.87988	0.601196	
-1.87836	0.601196	
-1.87531	0.605774	
-1.87225	0.602722	
-1.86615	0.601196	
-1.8631	0.605774	
-1.86157	0.610352	
-1.85852	0.604248	
-1.85547	0.604248	
-1.85547	0.604248	
-1.85547	0.601196	
-1.85394	0.598145	
-1.85089	0.605774	
-1.84784	0.604248	
-1.84937	0.59967	
-1.85089	0.601196	
-1.84937	0.608826	
-1.85089	0.602722	
-1.85089	0.601196	
-1.84937	0.608826	
-1.84937	0.59967	
-1.85242	0.598145	
-1.85394	0.604248	
-1.85394	0.604248	
-1.85394	0.596619	
-1.85547	0.604248	
-1.85547	0.6073	
-1.85852	0.604248	
-1.8631	0.601196	
-1.8631	0.605774	
-1.86768	0.602722	
-1.8692	0.596619	
-1.87378	0.602722	
-1.87531	0.602722	
-1.87988	0.59967	
-1.88599	0.6073	
-1.88751	0.6073	
-1.88904	0.602722	
-1.89209	0.604248	
-1.89514	0.6073	
-1.89972	0.601196	
-1.90582	0.598145	
-1.90582	0.602722	
-1.91498	0.608826	
-1.91803	0.596619	
-1.92261	0.602722	
-1.92566	0.608826	
-1.93024	0.601196	
-1.93634	0.604248	
-1.94092	0.6073	
-1.9455	0.601196	
-1.9516	0.598145	
-1.95618	0.605774	
-1.96075	0.602722	
-1.96533	0.598145	
-1.96991	0.604248	
-1.97754	0.605774	
-1.98059	0.604248	
-1.98822	0.601196	
-1.99585	0.608826	
-2.00043	0.601196	
-2.00653	0.601196	
-2.00958	0.602722	
-2.01569	0.605774	
-2.02026	0.598145	
-2.02789	0.604248	
-2.03094	0.605774	
-2.03705	0.605774	
-2.04163	0.605774	
-2.0462	0.608826	
-2.04926	0.601196	
-2.05688	0.601196	
-2.06451	0.602722	
-2.06909	0.602722	
-2.07367	0.596619	
-2.07825	0.602722	
-2.08282	0.604248	
-2.08588	0.604248	
-2.09656	0.602722	
-2.10114	0.605774	
-2.10724	0.602722	
-2.11334	0.59967	
-2.11639	0.601196	
-2.11945	0.604248	
-2.12555	0.59967	
-2.13013	0.604248	
-2.14081	0.605774	
-2.14386	0.601196	
-2.15302	0.602722	
-2.15454	0.604248	
-2.15912	0.602722	
-2.16522	0.59967	
-2.1698	0.602722	
-2.17743	0.601196	
-2.18201	0.601196	
-2.18811	0.601196	
-2.19269	0.6073	
-2.19879	0.602722	
-2.20184	0.602722	
-2.20795	0.605774	
-2.21252	0.601196	
-2.21558	0.59967	
-2.22473	0.601196	
-2.23083	0.602722	
-2.23541	0.596619	
-2.23694	0.604248	
-2.24609	0.605774	
-2.25372	0.604248	
-2.25677	0.602722	
-2.26135	0.6073	
-2.26593	0.602722	
-2.27356	0.59967	
-2.27661	0.59967	
-2.27966	0.605774	
-2.28729	0.598145	
-2.29187	0.604248	
-2.2995	0.605774	
-2.30408	0.602722	
-2.31018	0.601196	
-2.31171	0.604248	
-2.31781	0.602722	
-2.32391	0.598145	
-2.33002	0.602722	
-2.33459	0.602722	
-2.33765	0.602722	
-2.34528	0.605774	
-2.34833	0.604248	
-2.35443	0.604248	
-2.35596	0.604248	
-2.35748	0.605774	
-2.36206	0.601196	
-2.36359	0.59967	
-2.36053	0.59967	
-2.36511	0.602722	
-2.36053	0.601196	
-2.36053	0.601196	
-2.35901	0.604248	
-2.35138	0.604248	
-2.3468	0.602722	
-2.33917	0.604248	
-2.32697	0.601196	
-2.31628	0.602722	
-2.30255	0.602722	
-2.28577	0.602722	
-2.26746	0.602722	
-2.24457	0.602722	
-2.22473	0.604248	
-2.20184	0.601196	
-2.18201	0.605774	
-2.15454	0.604248	
-2.13013	0.604248	
-2.10571	0.59967	
-2.08282	0.602722	
-2.05536	0.604248	
-2.02789	0.602722	
-2.00348	0.602722	
-1.97754	0.604248	
-1.95313	0.602722	
-1.93329	0.605774	
-1.9043	0.604248	
-1.88293	0.59967	
-1.86005	0.602722	
-1.84021	0.601196	
-1.8158	0.601196	
-1.79596	0.604248	
-1.77765	0.6073	
-1.75476	0.602722	
-1.73798	0.602722	
-1.72272	0.602722	
-1.70288	0.604248	
-1.6861	0.601196	
-1.67236	0.602722	
-1.65558	0.602722	
-1.64337	0.601196	
-1.62964	0.602722	
-1.61743	0.605774	
-1.60675	0.601196	
-1.59302	0.605774	
-1.58386	0.604248	
-1.57318	0.604248	
-1.5686	0.601196	
-1.55792	0.598145	
-1.55029	0.59967	
-1.54572	0.604248	
-1.54114	0.605774	
-1.53351	0.602722	
-1.52893	0.604248	
-1.52588	0.602722	
-1.52283	0.601196	
-1.51672	0.602722	
-1.51367	0.601196	
-1.51367	0.598145	
-1.51062	0.601196	
-1.50757	0.602722	
-1.50909	0.601196	
-1.50909	0.602722	
-1.51062	0.601196	
-1.50909	0.601196	
-1.51215	0.604248	
-1.51062	0.602722	
-1.51367	0.601196	
-1.5152	0.601196	
-1.51825	0.59967	
-1.51978	0.604248	
-1.52435	0.604248	
-1.52588	0.604248	
-1.53198	0.601196	
-1.53656	0.602722	
-1.53809	0.602722	
-1.54266	0.602722	
-1.54724	0.59967	
-1.55029	0.602722	
-1.55334	0.604248	
-1.55945	0.602722	
-1.56403	0.601196	
-1.5686	0.605774	
-1.57471	0.601196	
-1.57928	0.604248	
-1.58691	0.602722	
-1.58997	0.602722	
-1.59607	0.602722	
-1.60217	0.602722	
-1.61133	0.601196	
-1.61743	0.601196	
-1.62201	0.601196	
-1.62964	0.602722	
-1.63422	0.598145	
-1.63879	0.602722	
-1.64795	0.604248	
-1.65253	0.602722	
-1.66016	0.604248	
-1.66779	0.605774	
-1.67389	0.602722	
-1.68152	0.601196	
-1.69067	0.601196	
-1.69525	0.602722	
-1.70135	0.601196	
-1.70898	0.601196	
-1.71509	0.602722	
-1.72272	0.604248	
-1.72882	0.602722	
-1.73645	0.604248	
-1.74255	0.604248	
-1.74866	0.602722	
-1.75934	0.602722	
-1.76392	0.604248	
-1.77765	0.59967	
-1.78223	0.602722	
-1.78986	0.604248	
-1.79596	0.602722	
-1.80511	0.601196	
-1.8158	0.605774	
-1.82037	0.604248	
-1.82648	0.601196	
-1.83716	0.601196	
-1.84326	0.602722	
-1.85089	0.601196	
-1.85547	0.598145	
-1.86005	0.601196	
-1.86615	0.601196	
-1.87378	0.602722	
-1.87683	0.604248	
-1.88293	0.601196	
-1.88446	0.601196	
-1.88904	0.602722	
-1.88904	0.602722	
-1.89514	0.59967	
-1.89514	0.602722	
-1.89514	0.604248	
-1.89819	0.601196	
-1.89819	0.59967	
-1.89819	0.6073	
-1.89667	0.602722	
-1.89819	0.604248	
-1.89667	0.602722	
-1.89514	0.604248	
-1.89209	0.59967	
-1.88599	0.602722	
-1.88751	0.602722	
-1.88599	0.601196	
-1.88293	0.59967	
-1.87836	0.6073	
-1.87378	0.602722	
-1.8692	0.601196	
-1.86768	0.604248	
-1.86005	0.602722	
-1.86005	0.598145	
-1.85394	0.601196	
-1.84631	0.601196	
-1.84784	0.601196	
-1.84021	0.601196	
-1.83716	0.6073	
-1.83105	0.601196	
-1.828	0.59967	
-1.82343	0.601196	
-1.81732	0.59967	
-1.80969	0.596619	
-1.80817	0.601196	
-1.80359	0.602722	
-1.80054	0.602722	
-1.79749	0.602722	
-1.79138	0.6073	
-1.78986	0.604248	
-1.7868	0.601196	
-1.78528	0.601196	
-1.7807	0.605774	
-1.77765	0.59967	
-1.77612	0.59967	
-1.7746	0.604248	
-1.77155	0.602722	
-1.77155	0.605774	
-1.77155	0.608826	
-1.77002	0.604248	
-1.76544	0.601196	
-1.76697	0.602722	
-1.76697	0.602722	
-1.76392	0.596619	
-1.76544	0.59967	
-1.76697	0.602722	
-1.76544	0.601196	
-1.76697	0.601196	
-1.76849	0.6073	
-1.76849	0.601196	
-1.77155	0.601196	
-1.76849	0.601196	
-1.77155	0.59967	
-1.7746	0.59967	
-1.77612	0.601196	
-1.7746	0.605774	
-1.7807	0.601196	
-1.78375	0.602722	
-1.78223	0.608826	
-1.7868	0.604248	
-1.79596	0.605774	
-1.79291	0.602722	
-1.80054	0.602722	
-1.80054	0.596619	
-1.80359	0.601196	
-1.80664	0.601196	
-1.81122	0.602722	
-1.81427	0.601196	
-1.8158	0.605774	
-1.8219	0.602722	
-1.82953	0.602722	
-1.828	0.604248	
-1.83411	0.602722	
-1.83716	0.595093	
-1.84326	0.601196	
-1.84631	0.601196	
-1.85089	0.602722	
-1.85699	0.604248	
-1.86157	0.605774	
-1.86768	0.602722	
-1.87225	0.602722	
-1.87683	0.602722	
-1.88141	0.602722	
-1.88446	0.598145	
-1.89362	0.59967	
-1.89819	0.59967	
-1.90277	0.601196	
-1.90582	0.602722	
-1.91345	0.6073	
-1.91956	0.604248	
-1.92566	0.604248	
-1.93176	0.601196	
-1.93481	0.602722	
-1.93939	0.595093	
-1.94855	0.601196	
-1.95465	0.59967	
-1.9577	0.602722	
-1.96533	0.601196	
-1.96838	0.6073	
-1.97601	0.604248	
-1.98212	0.602722	
-1.98669	0.604248	
-1.99432	0.604248	
-1.9989	0.596619	
-2.00806	0.601196	
-2.00958	0.602722	
-2.01416	0.601196	
-2.02026	0.602722	
-2.02789	0.604248	
-2.03552	0.604248	
-2.03705	0.59967	
-2.04315	0.604248	
-2.04773	0.604248	
-2.04926	0.596619	
-2.05688	0.601196	
-2.06604	0.602722	
-2.06757	0.601196	
-2.07367	0.604248	
-2.07672	0.6073	
-2.08435	0.604248	
-2.08893	0.602722	
-2.09198	0.602722	
-2.09656	0.604248	
-2.10266	0.59967	
-2.10724	0.601196	
-2.11182	0.602722	
-2.11487	0.604248	
-2.12097	0.598145	
-2.1286	0.604248	
-2.13318	0.602722	
-2.13318	0.604248	
-2.14386	0.601196	
-2.14691	0.602722	
-2.14996	0.601196	
-2.15759	0.604248	
-2.16064	0.601196	
-2.16522	0.602722	
-2.17133	0.601196	
-2.17438	0.6073	
-2.17896	0.604248	
-2.18506	0.604248	
-2.18811	0.602722	
-2.19574	0.601196	
-2.19879	0.596619	
-2.20184	0.601196	
-2.2049	0.602722	
-2.211	0.604248	
-2.21558	0.601196	
-2.2171	0.602722	
-2.22168	0.604248	
-2.22473	0.601196	
-2.22778	0.601196	
-2.23083	0.602722	
-2.23236	0.598145	
-2.23083	0.59967	
-2.23389	0.604248	
-2.23541	0.601196	
-2.23389	0.602722	
-2.23236	0.604248	
-2.23389	0.602722	
-2.22321	0.602722	
-2.22015	0.601196	
-2.20947	0.601196	
-2.20032	0.59967	
-2.18964	0.59967	
-2.17438	0.601196	
-2.16064	0.59967	
-2.14386	0.601196	
-2.12402	0.602722	
-2.10876	0.602722	
-2.08435	0.59967	
-2.06299	0.601196	
-2.0401	0.602722	
-2.01569	0.598145	
-1.99432	0.602722	
-1.96991	0.602722	
-1.9455	0.59967	
-1.92261	0.601196	
-1.89819	0.602722	
-1.87836	0.601196	
-1.85394	0.602722	
-1.82953	0.602722	
-1.80664	0.601196	
-1.78223	0.601196	
-1.76544	0.602722	
-1.74255	0.601196	
-1.72424	0.59967	
-1.70135	0.601196	
-1.68152	0.602722	
-1.66321	0.601196	
-1.64642	0.602722	
-1.63269	0.602722	
-1.61438	0.59967	
-1.59912	0.59967	
-1.58386	0.59967	
-1.57166	0.601196	
-1.55487	0.601196	
-1.54724	0.59967	
-1.53656	0.604248	
-1.52283	0.602722	
-1.51062	0.602722	
-1.50452	0.59967	
-1.49384	0.598145	
-1.48621	0.59967	
-1.47705	0.59967	
-1.47247	0.59967	
-1.46484	0.602722	
-1.45721	0.602722	
-1.45721	0.601196	
-1.44806	0.602722	
-1.44501	0.604248	
-1.44348	0.59967	
-1.44043	0.601196	
-1.43585	0.59967	
-1.43585	0.59967	
-1.4328	0.601196	
-1.43127	0.59967	
-1.42822	0.601196	
-1.42975	0.602722	
-1.43127	0.601196	
-1.43127	0.601196	
-1.43127	0.598145	
-1.43433	0.602722	
-1.43433	0.604248	
-1.4389	0.596619	
-1.44043	0.601196	
-1.44043	0.59967	
-1.44653	0.602722	
-1.44958	0.604248	
-1.44958	0.602722	
-1.45721	0.59967	
-1.46027	0.604248	
-1.46179	0.602722	
-1.46942	0.601196	
-1.47552	0.598145	
-1.47552	0.59967	
-1.4801	0.601196	
-1.48621	0.59967	
-1.49231	0.601196	
-1.49841	0.601196	
-1.50299	0.598145	
-1.50452	0.59967	
-1.51215	0.604248	
-1.51825	0.601196	
-1.5213	0.59967	
-1.53046	0.598145	
-1.53351	0.59967	
-1.53961	0.602722	
-1.54419	0.601196	
-1.54877	0.604248	
-1.55334	0.59967	
-1.5625	0.601196	
-1.56708	0.602722	
-1.57013	0.601196	
-1.57928	0.59967	
-1.58386	0.602722	
-1.58997	0.602722	
-1.59912	0.601196	
-1.60217	0.601196	
-1.60675	0.598145	
-1.61285	0.598145	
-1.61896	0.598145	
-1.62201	0.59967	
-1.63269	0.602722	
-1.63727	0.596619	
-1.6449	0.59967	
-1.65253	0.598145	
-1.6571	0.601196	
-1.66321	0.598145	
-1.67084	0.601196	
-1.67542	0.59967	
-1.6861	0.59967	
-1.6922	0.59967	
-1.6983	0.601196	
-1.70441	0.598145	
-1.71051	0.59967	
-1.71967	0.598145	
-1.72272	0.601196	
-1.72729	0.595093	
-1.7334	0.59967	
-1.74103	0.601196	
-1.74561	0.602722	
-1.74713	0.59967	
-1.75018	0.605774	
-1.75476	0.596619	
-1.75934	0.601196	
-1.76544	0.59967	
-1.76544	0.601196	
-1.76849	0.593567	
-1.77002	0.601196	
-1.76849	0.59967	
-1.77002	0.601196	
-1.7746	0.601196	
-1.7746	0.605774	
-1.77002	0.596619	
-1.7746	0.601196	
-1.77307	0.59967	
-1.76849	0.604248	
-1.77002	0.592041	
-1.76697	0.602722	
-1.76086	0.601196	
-1.76392	0.59967	
-1.75934	0.59967	
-1.75934	0.605774	
-1.75476	0.598145	
-1.74866	0.602722	
-1.74866	0.601196	
-1.74408	0.59967	
-1.74103	0.596619	
-1.73645	0.601196	
-1.7334	0.59967	
-1.72729	0.601196	
-1.72577	0.59967	
-1.72272	0.605774	
-1.72119	0.596619	
-1.71509	0.601196	
-1.70746	0.59967	
-1.70746	0.601196	
-1.69983	0.595093	
-1.69678	0.602722	
-1.69373	0.59967	
-1.69067	0.601196	
-1.68915	0.602722	
-1.68457	0.6073	
-1.68152	0.598145	
-1.68152	0.602722	
-1.67847	0.602722	
-1.67236	0.59967	
-1.67084	0.595093	
-1.67084	0.601196	
-1.67236	0.59967	
-1.66779	0.602722	
-1.66779	0.601196	
-1.66779	0.6073	
-1.66626	0.59967	
-1.66473	0.602722	
-1.66626	0.604248	
-1.66473	0.602722	
-1.66626	0.595093	
-1.66779	0.59967	
-1.66931	0.596619	
-1.66931	0.601196	
-1.67236	0.601196	
-1.67236	0.605774	
-1.67389	0.59967	
-1.67236	0.601196	
-1.67542	0.601196	
-1.67084	0.601196	
-1.67694	0.596619	
-1.68304	0.604248	
-1.68152	0.598145	
-1.6861	0.598145	
-1.6861	0.602722	
-1.69373	0.6073	
-1.69373	0.598145	
-1.69678	0.605774	
-1.69678	0.601196	
-1.70135	0.601196	
-1.70288	0.595093	
-1.70746	0.59967	
-1.71051	0.59967	
-1.71204	0.601196	
-1.71967	0.59967	
-1.72577	0.605774	
-1.72424	0.59967	
-1.7334	0.602722	
-1.7334	0.598145	
-1.73645	0.59967	
-1.74255	0.595093	
-1.74713	0.601196	
-1.74866	0.598145	
-1.75781	0.598145	
-1.76086	0.598145	
-1.76392	0.6073	
-1.77002	0.596619	
-1.77765	0.602722	
-1.77917	0.59967	
-1.78528	0.59967	
-1.79138	0.593567	
-1.79901	0.601196	
-1.80359	0.596619	
-1.80817	0.598145	
