-1.65405,0.723267
-1.64642,0.714111
-1.64642,0.717163
-1.64032,0.718689
-1.63422,0.721741
-1.63422,0.721741
-1.63116,0.714111
-1.62811,0.717163
-1.62811,0.717163
-1.62811,0.720215
-1.62811,0.723267
-1.63116,0.714111
-1.63269,0.718689
-1.63727,0.717163
-1.63727,0.717163
-1.64337,0.720215
-1.64795,0.714111
-1.65558,0.718689
-1.65863,0.717163
-1.66626,0.720215
-1.67389,0.720215
-1.68304,0.714111
-1.69067,0.720215
-1.6983,0.715637
-1.70593,0.718689
-1.70898,0.718689
-1.72272,0.715637
-1.73187,0.718689
-1.73645,0.717163
-1.75018,0.718689
-1.76086,0.720215
-1.76849,0.712585
-1.7746,0.720215
-1.78375,0.715637
-1.79291,0.723267
-1.80054,0.720215
-1.80969,0.712585
-1.81732,0.720215
-1.828,0.718689
-1.83716,0.721741
-1.84631,0.715637
-1.85242,0.715637
-1.86157,0.717163
-1.86768,0.718689
-1.87988,0.721741
-1.88904,0.720215
-1.89209,0.717163
-1.90125,0.718689
-1.90277,0.720215
-1.90277,0.721741
-1.89972,0.717163
-1.89514,0.712585
-1.87988,0.720215
-1.86462,0.721741
-1.84326,0.717163
-1.8158,0.715637
-1.78528,0.712585
-1.74866,0.720215
-1.71661,0.720215
-1.67542,0.720215
-1.6449,0.715637
-1.60675,0.714111
-1.5686,0.717163
-1.53656,0.718689
-1.50604,0.720215
-1.47705,0.715637
-1.45264,0.71106
-1.42975,0.720215
-1.40533,0.718689
-1.38855,0.723267
-1.36871,0.718689
-1.35956,0.709534
-1.3443,0.718689
-1.33362,0.717163
-1.32751,0.718689
-1.32141,0.714111
-1.31836,0.712585
-1.31683,0.721741
-1.31683,0.717163
-1.31836,0.718689
-1.31989,0.718689
-1.32294,0.717163
-1.32751,0.718689
-1.32751,0.718689
-1.33514,0.721741
-1.3443,0.714111
-1.3504,0.715637
-1.35498,0.717163
-1.36261,0.720215
-1.36719,0.720215
-1.37787,0.714111
-1.38397,0.71106
-1.3855,0.718689
-1.39465,0.720215
-1.40076,0.720215
-1.40839,0.717163
-1.41907,0.715637
-1.42365,0.715637
-1.42975,0.715637
-1.4389,0.718689
-1.44806,0.714111
-1.45416,0.715637
-1.46179,0.718689
-1.47247,0.717163
-1.48163,0.717163
-1.48773,0.717163
-1.49841,0.714111
-1.50452,0.717163
-1.50909,0.718689
-1.51672,0.721741
-1.5213,0.715637
-1.52588,0.717163
-1.52893,0.718689
-1.53046,0.720215
-1.53046,0.717163
-1.53503,0.715637
-1.53198,0.715637
-1.53351,0.720215
-1.53198,0.715637
-1.53198,0.720215
-1.52893,0.714111
-1.52283,0.715637
-1.5213,0.718689
-1.51978,0.718689
-1.51672,0.718689
-1.50909,0.714111
-1.50757,0.712585
-1.50909,0.718689
-1.50604,0.717163
-1.50452,0.720215
-1.50299,0.717163
-1.50299,0.715637
-1.50604,0.718689
-1.50757,0.718689
-1.50909,0.718689
-1.51062,0.715637
-1.51062,0.714111
-1.51367,0.718689
-1.51978,0.721741
-1.52435,0.715637
-1.53046,0.715637
-1.53503,0.717163
-1.54419,0.721741
-1.55334,0.717163
-1.5564,0.718689
-1.56403,0.715637
-1.57318,0.714111
-1.58234,0.718689
-1.58997,0.717163
-1.60065,0.717163
-1.6098,0.715637
-1.61743,0.715637
-1.62506,0.718689
-1.63422,0.718689
-1.64642,0.718689
-1.65405,0.714111
-1.66168,0.715637
-1.67542,0.720215
-1.68457,0.718689
-1.69678,0.720215
-1.70288,0.714111
-1.71051,0.714111
-1.72272,0.720215
-1.7334,0.715637
-1.7395,0.720215
-1.74866,0.712585
-1.75323,0.717163
-1.76544,0.718689
-1.77307,0.718689
-1.77917,0.718689
-1.7868,0.712585
-1.79291,0.715637
-1.80206,0.717163
-1.80969,0.717163
-1.81122,0.720215
-1.8158,0.712585
-1.8158,0.714111
-1.8158,0.717163
-1.80969,0.715637
-1.80054,0.720215
-1.7807,0.712585
-1.76392,0.715637
-1.73645,0.718689
-1.70898,0.720215
-1.67694,0.718689
-1.6449,0.712585
-1.6098,0.712585
-1.57318,0.717163
-1.54114,0.720215
-1.50757,0.717163
-1.47552,0.712585
-1.44653,0.714111
-1.42059,0.717163
-1.39618,0.718689
-1.36871,0.718689
-1.35345,0.714111
-1.33057,0.717163
-1.31378,0.715637
-1.30463,0.715637
-1.29089,0.718689
-1.28174,0.714111
-1.27563,0.714111
-1.27106,0.717163
-1.26495,0.715637
-1.26343,0.715637
-1.26495,0.714111
-1.2619,0.712585
-1.26495,0.717163
-1.26495,0.717163
-1.26495,0.718689
-1.26953,0.709534
-1.26801,0.714111
-1.27411,0.718689
-1.27869,0.717163
-1.27716,0.718689
-1.27716,0.712585
-1.28174,0.714111
-1.28632,0.717163
-1.28937,0.715637
-1.28784,0.717163
-1.29089,0.714111
-1.29242,0.712585
-1.29395,0.718689
-1.29547,0.714111
-1.297,0.718689
-1.3031,0.712585
-1.30463,0.714111
-1.31073,0.715637
-1.31378,0.717163
-1.31989,0.715637
-1.32294,0.712585
-1.32751,0.715637
-1.33362,0.717163
-1.34125,0.718689
-1.3443,0.715637
-1.34735,0.71106
-1.35193,0.715637
-1.35345,0.715637
-1.35956,0.720215
-1.35956,0.717163
-1.35956,0.715637
-1.36108,0.714111
-1.36566,0.712585
-1.36108,0.715637
-1.36566,0.718689
-1.36261,0.712585
-1.36566,0.714111
-1.36566,0.717163
-1.36414,0.715637
-1.36414,0.715637
-1.36261,0.712585
-1.36261,0.714111
-1.36261,0.715637
-1.36108,0.717163
-1.35956,0.718689
-1.36261,0.715637
-1.36566,0.714111
-1.36719,0.718689
-1.37024,0.717163
-1.37177,0.714111
-1.37634,0.712585
-1.37787,0.717163
-1.38092,0.718689
-1.3855,0.720215
-1.38855,0.714111
-1.39465,0.717163
-1.40076,0.714111
-1.40228,0.715637
-1.40686,0.721741
-1.41144,0.712585
-1.41907,0.714111
-1.4267,0.717163
-1.4328,0.718689
-1.4328,0.718689
-1.44043,0.717163
-1.44653,0.714111
-1.45569,0.714111
-1.45874,0.720215
-1.46332,0.717163
-1.47247,0.715637
-1.47552,0.714111
-1.47858,0.715637
-1.48163,0.718689
-1.49384,0.720215
-1.49536,0.717163
-1.50299,0.715637
-1.50757,0.717163
-1.5152,0.720215
-1.51978,0.720215
-1.52283,0.714111
-1.53046,0.717163
-1.53503,0.712585
-1.54266,0.718689
-1.54724,0.717163
-1.55792,0.715637
-1.56097,0.717163
-1.56708,0.717163
-1.57471,0.720215
-1.58081,0.718689
-1.58386,0.718689
-1.58997,0.714111
-1.58997,0.717163
-1.58844,0.718689
-1.58997,0.718689
-1.58539,0.717163
-1.57928,0.718689
-1.56403,0.715637
-1.55334,0.720215
-1.53503,0.714111
-1.51978,0.714111
-1.49994,0.717163
-1.47095,0.717163
-1.44653,0.718689
-1.42365,0.718689
-1.39618,0.714111
-1.37329,0.717163
-1.3504,0.717163
-1.32751,0.718689
-1.30768,0.717163
-1.28632,0.717163
-1.26801,0.718689
-1.24664,0.721741
-1.23596,0.721741
-1.21918,0.718689
-1.2085,0.717163
-1.19781,0.714111
-1.19171,0.715637
-1.18103,0.718689
-1.1795,0.717163
-1.17493,0.714111
-1.17493,0.718689
-1.16882,0.717163
-1.17035,0.718689
-1.16577,0.717163
-1.17188,0.712585
-1.17035,0.715637
-1.17493,0.715637
-1.17645,0.715637
-1.1795,0.717163
-1.18256,0.715637
-1.19019,0.717163
-1.19171,0.715637
-1.19934,0.717163
-1.20392,0.715637
-1.20544,0.715637
-1.21002,0.717163
-1.21155,0.715637
-1.21765,0.717163
-1.22528,0.717163
-1.22986,0.714111
-1.23596,0.715637
-1.24207,0.718689
-1.25122,0.718689
-1.2558,0.720215
-1.26648,0.717163
-1.27716,0.715637
-1.28479,0.715637
-1.29242,0.714111
-1.3031,0.715637
-1.31378,0.714111
-1.31989,0.714111
-1.33057,0.718689
-1.3382,0.718689
-1.34735,0.714111
-1.35345,0.717163
-1.35803,0.715637
-1.36261,0.717163
-1.36719,0.715637
-1.37024,0.721741
-1.37177,0.715637
-1.37634,0.717163
-1.37787,0.718689
-1.37939,0.715637
-1.38092,0.715637
-1.38092,0.714111
-1.38245,0.717163
-1.38092,0.718689
-1.38245,0.717163
-1.38245,0.717163
-1.38092,0.715637
-1.38245,0.717163
-1.37939,0.718689
-1.38245,0.718689
-1.38092,0.717163
-1.38245,0.715637
-1.38245,0.717163
-1.38397,0.714111
-1.38397,0.718689
-1.38245,0.717163
-1.38702,0.712585
-1.3916,0.718689
-1.39465,0.718689
-1.39923,0.718689
-1.40228,0.717163
-1.40533,0.717163
-1.40991,0.720215
-1.42059,0.718689
-1.42212,0.720215
-1.42822,0.717163
-1.43433,0.714111
-1.4389,0.715637
-1.44348,0.718689
-1.45264,0.715637
-1.46027,0.717163
-1.4679,0.717163
-1.4679,0.720215
-1.4801,0.718689
-1.48468,0.720215
-1.49384,0.720215
-1.49994,0.715637
-1.50604,0.718689
-1.51062,0.717163
-1.51672,0.718689
-1.52283,0.720215
-1.52588,0.717163
-1.53198,0.720215
-1.53961,0.718689
-1.54572,0.718689
-1.54877,0.717163
-1.55334,0.715637
-1.55334,0.717163
-1.55945,0.720215
-1.56403,0.721741
-1.57013,0.721741
-1.57623,0.712585
-1.58081,0.720215
-1.58539,0.720215
-1.58997,0.718689
-1.59149,0.718689
-1.5976,0.715637
-1.59912,0.720215
-1.60522,0.718689
-1.60522,0.717163
-1.60828,0.718689
-1.60522,0.714111
-1.60065,0.718689
-1.59607,0.718689
-1.58844,0.720215
-1.57471,0.721741
-1.55945,0.712585
-1.54266,0.723267
-1.51978,0.720215
-1.49689,0.721741
-1.47095,0.720215
-1.44196,0.71106
-1.40991,0.721741
-1.38245,0.718689
-1.35651,0.721741
-1.32446,0.717163
-1.30005,0.714111
-1.27563,0.721741
-1.24969,0.720215
-1.22528,0.723267
-1.20087,0.721741
-1.18256,0.71106
-1.17035,0.721741
-1.15051,0.721741
-1.13678,0.724792
-1.1261,0.718689
-1.11847,0.71106
-1.11237,0.723267
-1.10626,0.721741
-1.09863,0.724792
-1.09558,0.717163
-1.09558,0.71106
-1.09558,0.721741
-1.09711,0.720215
-1.09863,0.721741
-1.09253,0.724792
-1.09711,0.714111
-1.10168,0.723267
-1.10168,0.721741
-1.10321,0.723267
-1.10321,0.721741
-1.10474,0.712585
-1.10626,0.723267
-1.10626,0.720215
-1.11084,0.723267
-1.11084,0.723267
-1.11237,0.714111
-1.11389,0.721741
-1.11389,0.720215
-1.11694,0.723267
-1.11847,0.720215
-1.12,0.714111
-1.1261,0.721741
-1.12762,0.721741
-1.1322,0.724792
-1.13678,0.720215
-1.13983,0.71106
-1.14746,0.721741
-1.15204,0.718689
-1.15967,0.721741
-1.1673,0.720215
-1.17493,0.715637
-1.17798,0.720215
-1.18866,0.720215
-1.19324,0.721741
-1.19934,0.721741
-1.20239,0.71106
-1.21002,0.718689
-1.21002,0.721741
-1.21765,0.723267
-1.2207,0.718689
-1.2207,0.718689
-1.2207,0.721741
-1.22681,0.720215
-1.22528,0.723267
-1.22833,0.723267
-1.22986,0.717163
-1.22681,0.723267
-1.22833,0.724792
-1.22833,0.720215
-1.22833,0.721741
-1.22833,0.717163
-1.22986,0.721741
-1.23138,0.721741
-1.23291,0.720215
-1.23291,0.721741
-1.23596,0.717163
-1.23749,0.726318
-1.23901,0.721741
-1.24359,0.721741
-1.24664,0.723267
-1.25122,0.718689
-1.25427,0.724792
-1.25885,0.723267
-1.26495,0.726318
-1.26953,0.720215
-1.27563,0.720215
-1.28174,0.724792
-1.28784,0.723267
-1.29547,0.720215
-1.30463,0.721741
-1.30768,0.718689
-1.31378,0.724792
-1.32141,0.721741
-1.32751,0.721741
-1.33362,0.726318
-1.34735,0.720215
-1.35193,0.723267
-1.35956,0.723267
-1.36566,0.720215
-1.37329,0.723267
-1.3855,0.721741
-1.39313,0.723267
-1.40381,0.723267
-1.40991,0.720215
-1.42059,0.724792
-1.42517,0.724792
-1.4328,0.726318
-1.44348,0.724792
-1.44958,0.721741
-1.46179,0.723267
-1.46637,0.723267
-1.47552,0.726318
-1.48163,0.723267
-1.49231,0.721741
-1.49994,0.724792
-1.50909,0.724792
-1.51672,0.726318
-1.52588,0.724792
-1.53046,0.721741
-1.54114,0.724792
-1.54724,0.726318
-1.55182,0.727844
-1.55792,0.726318
-1.5625,0.721741
-1.5686,0.724792
-1.57166,0.724792
-1.57013,0.726318
-1.5686,0.724792
-1.56097,0.721741
-1.55182,0.723267
-1.53961,0.733948
-1.5213,0.723267
-1.49994,0.723267
-1.4801,0.720215
-1.45874,0.724792
-1.43585,0.72937
-1.40839,0.726318
-1.38702,0.723267
-1.36414,0.721741
-1.34277,0.726318
-1.32141,0.732422
-1.3031,0.724792
-1.28326,0.724792
-1.26953,0.724792
-1.25122,0.726318
-1.23901,0.733948
-1.23138,0.726318
-1.21918,0.723267
-1.21155,0.723267
-1.20544,0.724792
-1.20087,0.732422
-1.19781,0.727844
-1.19934,0.726318
-1.19476,0.723267
-1.19934,0.723267
-1.20239,0.733948
-1.20697,0.727844
-1.20697,0.726318
-1.21307,0.724792
-1.2146,0.726318
-1.2207,0.732422
-1.22833,0.726318
-1.22986,0.726318
-1.23596,0.724792
-1.24054,0.727844
-1.24512,0.735474
-1.24969,0.727844
-1.2558,0.727844
-1.25885,0.724792
-1.26495,0.727844
-1.27106,0.732422
-1.27106,0.72937
-1.27716,0.72937
-1.28326,0.726318
-1.28326,0.727844
-1.28784,0.737
-1.29395,0.72937
-1.297,0.72937
-1.3092,0.726318
-1.31531,0.727844
-1.32141,0.733948
-1.32904,0.72937
-1.33972,0.727844
-1.34888,0.726318
-1.35803,0.72937
-1.36261,0.733948
-1.36871,0.727844
-1.38092,0.72937
-1.38702,0.732422
-1.39313,0.733948
-1.39923,0.733948
-1.40686,0.727844
-1.41144,0.727844
-1.41754,0.72937
-1.42212,0.732422
-1.42822,0.733948
-1.4328,0.72937
-1.43433,0.727844
-1.43585,0.727844
-1.44043,0.732422
-1.44196,0.733948
-1.44501,0.72937
-1.44501,0.733948
-1.44501,0.72937
-1.44806,0.732422
-1.44806,0.737
-1.44958,0.72937
-1.45264,0.727844
-1.45416,0.72937
-1.45721,0.732422
-1.45874,0.732422
-1.46027,0.72937
-1.46179,0.72937
-1.46484,0.732422
-1.47095,0.72937
-1.47247,0.735474
-1.47705,0.72937
-1.48163,0.732422
-1.48773,0.732422
-1.49231,0.735474
-1.49994,0.735474
-1.50299,0.72937
-1.50909,0.732422
-1.5152,0.732422
-1.5213,0.735474
-1.52893,0.735474
-1.53656,0.732422
-1.54419,0.732422
-1.55487,0.733948
-1.55945,0.735474
-1.57318,0.733948
-1.58081,0.735474
-1.59149,0.732422
-1.5976,0.733948
-1.60828,0.737
-1.61896,0.735474
-1.62659,0.732422
-1.63727,0.72937
-1.651,0.732422
-1.65863,0.733948
-1.66779,0.735474
-1.68304,0.732422
-1.69525,0.733948
-1.70441,0.735474
-1.71509,0.735474
-1.72729,0.732422
-1.73798,0.72937
-1.74408,0.733948
-1.75934,0.732422
-1.76849,0.732422
-1.77612,0.737
-1.78223,0.732422
-1.79138,0.737
-1.79596,0.735474
-1.79596,0.737
-1.79138,0.733948
-1.78528,0.733948
-1.77612,0.737
-1.75934,0.733948
-1.73798,0.738525
-1.71204,0.733948
-1.6861,0.733948
-1.65405,0.733948
-1.62659,0.737
-1.59454,0.733948
-1.56097,0.737
-1.53351,0.735474
-1.50146,0.735474
-1.47552,0.735474
-1.44806,0.735474
-1.42517,0.737
-1.40076,0.735474
-1.38092,0.735474
-1.36566,0.738525
-1.34735,0.735474
-1.33362,0.738525
-1.32294,0.735474
-1.31226,0.737
-1.30768,0.735474
-1.30463,0.733948
-1.30005,0.735474
-1.297,0.735474
-1.30005,0.737
-1.30005,0.733948
-1.30463,0.735474
-1.30615,0.735474
-1.31073,0.735474
-1.31531,0.735474
-1.31989,0.738525
-1.33209,0.738525
-1.33362,0.735474
-1.34277,0.735474
-1.34888,0.737
-1.35956,0.737
-1.36108,0.740051
-1.37177,0.740051
-1.37939,0.737
-1.38397,0.737
-1.3916,0.737
-1.40228,0.737
-1.40839,0.738525
-1.41602,0.740051
-1.42517,0.733948
-1.43127,0.737
-1.44348,0.737
-1.45416,0.737
-1.46179,0.735474
-1.46942,0.740051
-1.4801,0.735474
-1.49078,0.735474
-1.50299,0.738525
-1.51215,0.738525
-1.51978,0.738525
-1.53046,0.737
-1.53809,0.735474
-1.54572,0.737
-1.55792,0.737
-1.55945,0.737
-1.57013,0.738525
-1.57623,0.738525
-1.57776,0.737
-1.58691,0.737
-1.58844,0.741577
-1.59149,0.737
-1.58997,0.737
-1.59302,0.737
-1.59302,0.737
-1.59607,0.740051
-1.5976,0.740051
-1.59454,0.737
-1.59607,0.738525
-1.5976,0.735474
-1.59607,0.740051
-1.5976,0.740051
-1.59912,0.737
-1.60065,0.740051
-1.60217,0.733948
-1.60522,0.737
-1.60675,0.737
-1.6098,0.740051
-1.61285,0.740051
-1.61896,0.737
-1.62048,0.740051
-1.62811,0.740051
-1.63269,0.738525
-1.63727,0.737
-1.64948,0.738525
-1.65558,0.740051
-1.66626,0.741577
-1.67847,0.741577
-1.68762,0.738525
-1.69678,0.740051
-1.70898,0.741577
-1.72119,0.740051
-1.72882,0.741577
-1.74103,0.744629
-1.75171,0.738525
-1.76392,0.741577
-1.77307,0.743103
-1.78223,0.743103
-1.79291,0.740051
-1.80511,0.738525
-1.81427,0.743103
-1.8219,0.740051
-1.83105,0.738525
-1.84326,0.738525
-1.85394,0.735474
-1.86157,0.741577
-1.87378,0.741577
-1.87988,0.743103
-1.89209,0.737
-1.90277,0.737
-1.91345,0.741577
-1.92108,0.741577
-1.92871,0.743103
-1.93939,0.738525
-1.94855,0.735474
-1.96075,0.743103
-1.97144,0.741577
-1.97906,0.744629
-1.99127,0.740051
-1.99585,0.741577
-2.00806,0.741577
-2.01569,0.741577
-2.02179,0.744629
-2.034,0.737
-2.03857,0.738525
-2.04163,0.744629
-2.0462,0.741577
-2.04468,0.741577
-2.0401,0.737
-2.02637,0.740051
-2.00806,0.747681
-1.98822,0.744629
-1.95618,0.744629
-1.92261,0.737
-1.88751,0.740051
-1.84937,0.740051
-1.81122,0.741577
-1.77002,0.743103
-1.73187,0.740051
-1.69525,0.740051
-1.66168,0.743103
-1.62811,0.743103
-1.5976,0.743103
-1.57013,0.741577
-1.54419,0.741577
-1.51672,0.744629
-1.49841,0.741577
-1.47858,0.744629
-1.46179,0.738525
-1.44958,0.741577
-1.44043,0.746155
-1.43433,0.747681
-1.42365,0.746155
-1.42059,0.737
-1.41754,0.740051
-1.41602,0.743103
-1.41449,0.744629
-1.41602,0.743103
-1.41754,0.737
-1.42059,0.740051
-1.42212,0.744629
-1.42822,0.744629
-1.43433,0.746155
-1.43738,0.738525
-1.4389,0.740051
-1.44806,0.743103
-1.44958,0.746155
-1.45721,0.747681
-1.45874,0.738525
-1.46332,0.743103
-1.4679,0.743103
-1.47247,0.746155
-1.474,0.746155
-1.4801,0.738525
-1.48315,0.741577
-1.48773,0.746155
-1.49536,0.747681
-1.49841,0.746155
-1.50299,0.738525
-1.50909,0.743103
-1.5152,0.744629
-1.51978,0.741577
-1.52283,0.747681
-1.53351,0.738525
-1.54266,0.744629
-1.54724,0.746155
-1.55334,0.746155
-1.55945,0.747681
-1.5686,0.740051
-1.57166,0.743103
-1.57776,0.746155
-1.57928,0.746155
-1.58539,0.750732
-1.58844,0.743103
-1.59149,0.741577
-1.59302,0.746155
-1.59454,0.744629
-1.59912,0.746155
-1.60217,0.744629
-1.60217,0.743103
-1.60675,0.746155
-1.60675,0.747681
-1.60828,0.747681
-1.60675,0.743103
-1.61133,0.744629
-1.61285,0.750732
-1.61133,0.747681
-1.61133,0.749207
-1.61438,0.743103
-1.61591,0.746155
-1.61591,0.747681
-1.61896,0.749207
-1.62048,0.749207
-1.62354,0.741577
-1.62811,0.744629
-1.62659,0.750732
-1.63574,0.746155
-1.64337,0.750732
-1.64337,0.741577
-1.64948,0.744629
-1.6571,0.750732
-1.66321,0.746155
-1.67084,0.749207
-1.67847,0.740051
-1.68762,0.747681
-1.69373,0.750732
-1.70288,0.749207
-1.71051,0.749207
-1.71967,0.746155
-1.72577,0.746155
-1.73798,0.749207
-1.74713,0.747681
-1.75323,0.752258
-1.76086,0.744629
-1.77307,0.747681
-1.7807,0.750732
-1.7868,0.747681
-1.79596,0.750732
-1.80206,0.749207
-1.81122,0.744629
-1.81885,0.749207
-1.82648,0.747681
-1.83563,0.749207
-1.84479,0.746155
-1.85242,0.747681
-1.86005,0.752258
-1.87225,0.750732
-1.88293,0.753784
-1.89209,0.744629
-1.89972,0.747681
-1.91193,0.750732
-1.92108,0.750732
-1.93024,0.750732
-1.93787,0.746155
-1.9455,0.749207
-1.95465,0.75531
-1.96533,0.749207
-1.97296,0.750732
-1.97601,0.744629
-1.98669,0.750732
-1.98669,0.753784
-1.98975,0.752258
-1.98364,0.752258
-1.97906,0.750732
-1.96533,0.749207
-1.9455,0.752258
-1.92566,0.752258
-1.89972,0.752258
-1.8692,0.746155
-1.84021,0.747681
-1.80206,0.753784
-1.77155,0.752258
-1.73492,0.750732
-1.70441,0.746155
-1.67236,0.749207
-1.64337,0.752258
-1.60828,0.750732
-1.58386,0.752258
-1.55792,0.747681
-1.53503,0.752258
-1.51825,0.750732
-1.49841,0.750732
-1.47858,0.752258
-1.46942,0.747681
-1.45874,0.750732
-1.44653,0.752258
-1.44043,0.750732
-1.43738,0.75531
-1.43127,0.747681
-1.43127,0.749207
-1.42822,0.75531
-1.43127,0.750732
-1.43127,0.75531
-1.43433,0.750732
-1.43738,0.749207
-1.44043,0.756836
-1.44501,0.753784
-1.44806,0.753784
-1.45416,0.747681
-1.46332,0.753784
-1.46484,0.753784
-1.474,0.753784
-1.47552,0.753784
-1.4801,0.749207
-1.48621,0.750732
-1.49231,0.752258
-1.49689,0.753784
-1.50299,0.753784
-1.50909,0.752258
-1.5152,0.75531
-1.51978,0.756836
-1.52893,0.750732
-1.53198,0.756836
-1.53656,0.750732
-1.54419,0.753784
-1.55029,0.756836
-1.55945,0.753784
-1.56708,0.75531
-1.57928,0.752258
-1.58844,0.753784
-1.59454,0.756836
-1.60522,0.75531
-1.61438,0.756836
-1.62354,0.75531
-1.63422,0.753784
-1.63879,0.753784
-1.651,0.75531
-1.66016,0.756836
-1.66473,0.753784
-1.67084,0.752258
-1.67694,0.75531
-1.68457,0.753784
-1.68762,0.756836
-1.69067,0.752258
-1.69525,0.759888
-1.69678,0.759888
-1.6983,0.756836
-1.70288,0.758362
-1.70746,0.75531
-1.70593,0.753784
-1.70441,0.758362
-1.70746,0.756836
-1.71051,0.758362
-1.71051,0.75531
-1.71051,0.753784
-1.71204,0.75531
-1.71509,0.753784
-1.71661,0.75531
-1.72119,0.756836
-1.72272,0.75531
-1.72882,0.753784
-1.73035,0.756836
-1.7334,0.756836
-1.7395,0.758362
-1.74408,0.758362
-1.75018,0.756836
-1.75781,0.753784
-1.76392,0.758362
-1.77002,0.758362
-1.77765,0.756836
-1.77917,0.758362
-1.79138,0.756836
-1.80206,0.756836
-1.80817,0.75531
-1.8158,0.758362
-1.82648,0.758362
-1.83563,0.759888
-1.84326,0.756836
-1.85089,0.758362
-1.86157,0.759888
-1.86615,0.756836
-1.87683,0.759888
-1.88599,0.759888
-1.89514,0.758362
-1.90735,0.756836
-1.92108,0.758362
-1.92566,0.756836
-1.93787,0.758362
-1.9455,0.762939
-1.95618,0.758362
-1.96686,0.759888
-1.97601,0.759888
-1.98364,0.756836
-1.9928,0.759888
-2.005,0.758362
-2.01263,0.762939
-2.01874,0.761414
-2.02942,0.758362
-2.0401,0.762939
-2.04773,0.758362
-2.06299,0.759888
-2.06909,0.761414
-2.0752,0.759888
-2.08588,0.759888
-2.09198,0.759888
-2.10419,0.759888
-2.11334,0.758362
-2.11945,0.759888
-2.12708,0.759888
-2.13623,0.761414
-2.14233,0.758362
-2.14996,0.758362
-2.16217,0.758362
-2.16675,0.761414
-2.17438,0.758362
-2.18506,0.759888
-2.19421,0.761414
-2.19879,0.758362
-2.20795,0.759888
-2.211,0.756836
-2.2171,0.759888
-2.22168,0.761414
-2.22321,0.756836
-2.21863,0.764465
-2.211,0.759888
-2.19879,0.762939
-2.17743,0.759888
-2.14844,0.762939
-2.11639,0.761414
-2.08435,0.762939
-2.04926,0.759888
-2.00806,0.758362
-1.97144,0.761414
-1.93024,0.762939
-1.89362,0.762939
-1.85547,0.764465
-1.8219,0.759888
-1.79138,0.761414
-1.75934,0.764465
-1.73492,0.758362
-1.70898,0.759888
-1.68457,0.762939
-1.66779,0.764465
-1.64795,0.762939
-1.63422,0.761414
-1.62659,0.762939
-1.61133,0.761414
-1.60828,0.762939
-1.60522,0.767517
-1.60065,0.764465
-1.5976,0.761414
-1.59607,0.759888
-1.59607,0.767517
-1.5976,0.764465
-1.60065,0.762939
-1.60217,0.759888
-1.60828,0.759888
-1.61133,0.759888
-1.61591,0.767517
-1.61896,0.764465
-1.62659,0.759888
-1.62811,0.762939
-1.63269,0.762939
-1.64337,0.769043
-1.64642,0.761414
-1.651,0.761414
-1.6571,0.761414
-1.66016,0.764465
-1.66626,0.767517
-1.67236,0.761414
-1.67542,0.762939
-1.68457,0.761414
-1.69067,0.762939
-1.69373,0.769043
-1.69983,0.761414
-1.70898,0.759888
-1.71356,0.762939
-1.72424,0.762939
-1.72882,0.767517
-1.74103,0.762939
-1.74713,0.761414
-1.75476,0.761414
-1.76544,0.761414
-1.77307,0.767517
-1.7807,0.767517
-1.78833,0.761414
-1.79596,0.767517
-1.80359,0.764465
-1.81122,0.769043
-1.81427,0.764465
-1.81885,0.762939
-1.82495,0.762939
-1.828,0.762939
-1.83563,0.770569
-1.83716,0.767517
-1.83563,0.762939
-1.84174,0.764465
-1.84326,0.762939
-1.84479,0.770569
-1.84784,0.762939
-1.84937,0.762939
-1.84631,0.762939
-1.84479,0.764465
-1.84937,0.772095
-1.84937,0.764465
-1.85394,0.762939
-1.85394,0.764465
-1.85242,0.767517
-1.85547,0.772095
-1.86005,0.764465
-1.8631,0.761414
-1.86615,0.764465
-1.8692,0.762939
-1.87531,0.772095
-1.88141,0.769043
-1.88599,0.764465
-1.89056,0.767517
-1.89514,0.759888
-1.90277,0.772095
-1.9043,0.769043
-1.9165,0.764465
-1.92261,0.764465
-1.92871,0.764465
-1.93634,0.770569
-1.94397,0.764465
-1.95313,0.762939
-1.96228,0.764465
-1.97144,0.767517
-1.97754,0.770569
-1.98822,0.764465
-1.9989,0.764465
-2.00653,0.767517
-2.01416,0.764465
-2.02484,0.772095
-2.03552,0.764465
-2.04315,0.764465
-2.05078,0.767517
-2.05536,0.767517
-2.06909,0.769043
-2.07825,0.769043
-2.08588,0.764465
-2.09198,0.770569
-2.09808,0.767517
-2.11182,0.770569
-2.1225,0.769043
-2.13013,0.767517
-2.13928,0.767517
-2.14386,0.764465
-2.15302,0.772095
-2.16217,0.767517
-2.17438,0.767517
-2.18353,0.769043
-2.19116,0.769043
-2.19879,0.772095
-2.2049,0.769043
-2.21558,0.767517
-2.22473,0.764465
-2.23236,0.772095
-2.23846,0.770569
-2.24457,0.770569
-2.25372,0.764465
-2.2583,0.767517
-2.27051,0.769043
-2.27203,0.770569
-2.27966,0.769043
-2.28729,0.767517
-2.2934,0.767517
-2.30255,0.767517
-2.30713,0.770569
-2.31323,0.769043
-2.31781,0.769043
-2.32544,0.769043
-2.33002,0.764465
-2.33917,0.770569
-2.34528,0.767517
-2.35138,0.767517
-2.35596,0.767517
-2.36053,0.769043
-2.36969,0.773621
-2.37427,0.769043
-2.3819,0.770569
-2.38342,0.767517
-2.38953,0.769043
-2.39716,0.770569
-2.40173,0.769043
-2.41089,0.769043
-2.41241,0.769043
-2.41699,0.770569
-2.4231,0.769043
-2.4292,0.769043
-2.43225,0.770569
-2.43683,0.764465
-2.44141,0.769043
-2.44904,0.772095
-2.44904,0.769043
-2.45514,0.769043
-2.46124,0.769043
-2.46429,0.767517
-2.47192,0.769043
-2.4765,0.767517
-2.47955,0.767517
-2.48871,0.767517
-2.49481,0.769043
-2.50092,0.769043
-2.50397,0.769043
-2.5116,0.772095
-2.51617,0.767517
-2.52533,0.767517
-2.52991,0.770569
-2.53448,0.770569
-2.54059,0.769043
-2.53754,0.770569
-2.53448,0.769043
-2.53143,0.770569
-2.52228,0.769043
-2.50549,0.769043
-2.47955,0.769043
-2.45056,0.772095
-2.41547,0.772095
-2.36969,0.770569
-2.32239,0.770569
-2.27509,0.767517
-2.22473,0.769043
-2.17896,0.769043
-2.13013,0.770569
-2.0874,0.770569
-2.04926,0.769043
-2.00958,0.769043
-1.97449,0.770569
-1.94244,0.772095
-1.91498,0.767517
-1.88904,0.770569
-1.86615,0.769043
-1.84479,0.767517
-1.82953,0.769043
-1.81732,0.767517
-1.80664,0.769043
-1.79138,0.770569
-1.78986,0.770569
-1.78833,0.769043
-1.78375,0.772095
-1.78528,0.769043
-1.78223,0.764465
-1.78528,0.769043
-1.78833,0.772095
-1.79138,0.764465
-1.79749,0.769043
-1.80359,0.762939
-1.81274,0.769043
-1.8158,0.769043
-1.8219,0.769043
-1.82648,0.767517
-1.84021,0.767517
-1.84631,0.767517
-1.84937,0.770569
-1.85394,0.769043
-1.8631,0.769043
-1.86462,0.770569
-1.87378,0.769043
-1.87988,0.769043
-1.88751,0.769043
-1.89362,0.767517
-1.90277,0.770569
-1.9043,0.764465
-1.9104,0.767517
-1.91956,0.767517
-1.92719,0.764465
-1.93634,0.769043
-1.94244,0.770569
-1.95007,0.769043
-1.95923,0.770569
-1.96686,0.769043
-1.97296,0.770569
-1.98059,0.761414
-1.98975,0.769043
-1.99432,0.767517
-2.00195,0.767517
-2.00348,0.767517
-2.00653,0.764465
-2.01263,0.769043
-2.01416,0.770569
-2.01874,0.769043
-2.01416,0.767517
-2.01569,0.764465
-2.01874,0.767517
-2.01874,0.764465
-2.01569,0.773621
-2.01874,0.770569
-2.02026,0.767517
-2.02179,0.769043
-2.01874,0.769043
-2.01874,0.767517
-2.02026,0.770569
-2.02179,0.764465
-2.02026,0.767517
-2.02026,0.770569
-2.02179,0.770569
-2.02484,0.770569
-2.02637,0.764465
-2.02789,0.770569
-2.03247,0.770569
-2.034,0.770569
-2.03552,0.773621
-2.03857,0.767517
-2.04163,0.769043
-2.0462,0.769043
-2.05078,0.769043
-2.05688,0.775146
-2.06604,0.764465
-2.07062,0.770569
-2.0752,0.769043
-2.08435,0.772095
-2.09045,0.772095
-2.09503,0.769043
-2.10266,0.769043
-2.11029,0.769043
-2.11945,0.764465
-2.12555,0.773621
-2.1347,0.762939
-2.14539,0.764465
-2.15302,0.770569
-2.15912,0.769043
-2.16522,0.772095
-2.17743,0.767517
-2.18658,0.770569
-2.19269,0.770569
-2.20337,0.769043
-2.211,0.775146
-2.22321,0.762939
-2.22931,0.769043
-2.23999,0.772095
-2.24915,0.769043
-2.2583,0.770569
-2.26746,0.769043
-2.27509,0.770569
-2.28119,0.767517
-2.29187,0.769043
-2.30255,0.775146
-2.30713,0.762939
-2.31323,0.772095
-2.32391,0.769043
-2.33307,0.769043
-2.34222,0.772095
-2.34528,0.764465
-2.35443,0.770569
-2.35748,0.769043
-2.36511,0.769043
-2.37274,0.775146
-2.37732,0.762939
-2.388,0.769043
-2.3941,0.769043
-2.39563,0.767517
-2.40326,0.773621
-2.41089,0.762939
-2.41547,0.770569
-2.4231,0.769043
-2.42767,0.770569
-2.43225,0.775146
-2.44141,0.767517
-2.44751,0.772095
-2.45361,0.767517
-2.45819,0.770569
-2.46887,0.772095
-2.47192,0.764465
-2.4765,0.767517
-2.47803,0.769043
-2.48566,0.769043
-2.49176,0.773621
-2.49176,0.762939
-2.49634,0.770569
-2.50244,0.769043
-2.50702,0.769043
-2.51007,0.775146
-2.51312,0.767517
-2.52075,0.769043
-2.52686,0.770569
-2.52838,0.769043
-2.53601,0.773621
-2.53906,0.764465
-2.54364,0.769043
-2.54364,0.770569
-2.55127,0.767517
-2.5589,0.773621
-2.56653,0.764465
-2.56653,0.769043
-2.57111,0.769043
-2.57721,0.769043
-2.58331,0.769043
-2.58789,0.761414
-2.59399,0.767517
-2.60162,0.772095
-2.60468,0.767517
-2.60925,0.772095
-2.6123,0.759888
-2.6123,0.769043
-2.61536,0.769043
-2.61078,0.770569
-2.60468,0.772095
-2.59705,0.764465
-2.57721,0.770569
-2.56195,0.769043
-2.53143,0.770569
-2.49634,0.772095
-2.45667,0.762939
-2.41547,0.767517
-2.36816,0.770569
-2.32239,0.769043
-2.28119,0.764465
-2.23389,0.762939
-2.19421,0.770569
-2.15607,0.769043
-2.11792,0.769043
-2.08588,0.767517
-2.05841,0.762939
-2.03552,0.764465
-2.01263,0.769043
-1.98822,0.767517
-1.97449,0.767517
-1.96075,0.761414
-1.94855,0.767517
-1.94092,0.769043
-1.93481,0.769043
-1.93024,0.767517
-1.93024,0.767517
-1.92566,0.770569
-1.92871,0.769043
-1.93024,0.767517
-1.93176,0.762939
-1.93939,0.764465
-1.94244,0.770569
-1.9516,0.769043
-1.95923,0.769043
-1.96533,0.761414
-1.97601,0.767517
-1.97754,0.769043
-1.98669,0.770569
-1.99585,0.767517
-2.005,0.758362
-2.00958,0.767517
-2.01721,0.769043
-2.02789,0.764465
-2.034,0.770569
-2.04468,0.758362
-2.05078,0.762939
-2.05688,0.769043
-2.06604,0.769043
-2.07214,0.769043
-2.0813,0.762939
-2.09045,0.762939
-2.09808,0.769043
-2.11182,0.772095
-2.11334,0.764465
-2.12555,0.759888
-2.13013,0.762939
-2.14233,0.767517
-2.15302,0.770569
-2.16064,0.767517
-2.16827,0.759888
-2.17438,0.764465
-2.18201,0.767517
-2.18964,0.770569
-2.19269,0.767517
-2.19574,0.761414
-2.19879,0.761414
-2.20184,0.769043
-2.20337,0.767517
-2.20184,0.769043
-2.20642,0.758362
-2.20642,0.764465
-2.2049,0.767517
-2.20795,0.769043
-2.20184,0.770569
-2.19727,0.759888
-2.19727,0.759888
-2.19574,0.770569
-2.19421,0.769043
-2.19269,0.767517
-2.18964,0.758362
-2.18811,0.764465
-2.18811,0.767517
-2.18658,0.769043
-2.18811,0.764465
-2.18658,0.759888
-2.18964,0.762939
-2.18964,0.764465
-2.18964,0.764465
-2.19269,0.762939
-2.19879,0.758362
-2.20032,0.761414
-2.20337,0.767517
-2.20642,0.762939
-2.20795,0.767517
-2.21863,0.759888
-2.22168,0.764465
-2.22778,0.764465
-2.23541,0.767517
-2.23999,0.767517
-2.24915,0.759888
-2.25525,0.764465
-2.26288,0.769043
-2.26593,0.769043
-2.27203,0.769043
-2.28119,0.758362
-2.28882,0.769043
-2.29797,0.769043
-2.30255,0.767517
-2.31323,0.769043
-2.31934,0.756836
-2.32544,0.764465
-2.33459,0.769043
-2.34528,0.769043
-2.35291,0.767517
-2.35901,0.759888
-2.36969,0.764465
-2.37579,0.770569
-2.3819,0.767517
-2.39105,0.764465
-2.39868,0.759888
-2.40326,0.762939
-2.41394,0.764465
-2.4231,0.767517
-2.42462,0.769043
-2.43683,0.758362
-2.44141,0.764465
-2.45209,0.767517
-2.45514,0.769043
-2.46429,0.769043
-2.4704,0.761414
-2.47803,0.762939
-2.48871,0.769043
-2.49176,0.762939
-2.50092,0.762939
-2.50702,0.761414
-2.51312,0.764465
-2.51617,0.764465
-2.52533,0.767517
-2.52991,0.764465
-2.53448,0.761414
-2.53906,0.764465
-2.54974,0.764465
-2.55127,0.762939
-2.5589,0.769043
-2.56348,0.759888
-2.57111,0.764465
-2.57416,0.769043
-2.57874,0.767517
-2.58636,0.764465
-2.59094,0.759888
-2.59705,0.762939
-2.60162,0.769043
-2.6062,0.764465
-2.61078,0.764465
-2.61841,0.761414
-2.62451,0.764465
-2.62756,0.767517
-2.63214,0.764465
-2.63977,0.762939
-2.64435,0.761414
-2.6474,0.764465
-2.6535,0.764465
-2.65656,0.767517
-2.66113,0.767517
-2.66418,0.761414
-2.66418,0.767517
-2.66571,0.767517
-2.65808,0.764465
-2.65503,0.761414
-2.64435,0.762939
-2.62909,0.762939
-2.6123,0.767517
-2.58484,0.769043
-2.5528,0.770569
-2.52075,0.762939
-2.4765,0.762939
-2.4353,0.762939
-2.38953,0.764465
-2.34985,0.762939
-2.30713,0.762939
-2.27051,0.761414
-2.23541,0.769043
-2.20184,0.764465
-2.16675,0.764465
-2.14386,0.762939
-2.11639,0.764465
-2.09503,0.767517
-2.07825,0.764465
-2.05994,0.764465
-2.04773,0.764465
-2.03552,0.767517
-2.02942,0.767517
-2.02484,0.764465
-2.01874,0.761414
-2.01416,0.761414
-2.01416,0.762939
-2.01874,0.764465
-2.02484,0.764465
-2.02942,0.762939
-2.03705,0.762939
-2.0401,0.767517
-2.0462,0.764465
-2.05688,0.764465
-2.06757,0.764465
-2.0752,0.764465
-2.08282,0.762939
-2.09198,0.767517
-2.10419,0.762939
-2.11334,0.761414
-2.1225,0.764465
-2.13165,0.762939
-2.14386,0.761414
-2.14844,0.767517
-2.15912,0.764465
-2.1698,0.764465
-2.17896,0.762939
-2.18658,0.761414
-2.19727,0.762939
-2.20795,0.764465
-2.2171,0.762939
-2.22778,0.764465
-2.24152,0.762939
-2.25067,0.762939
-2.26135,0.764465
-2.27203,0.762939
-2.27966,0.764465
-2.28424,0.761414
-2.2934,0.759888
-2.30408,0.764465
-2.30865,0.762939
-2.31323,0.764465
-2.32239,0.761414
-2.32697,0.762939
-2.33459,0.764465
-2.33459,0.758362
-2.33765,0.761414
-2.3407,0.762939
-2.33765,0.761414
-2.33612,0.762939
-2.33917,0.761414
-2.33765,0.764465
-2.33612,0.764465
-2.33307,0.762939
-2.32697,0.762939
-2.32697,0.761414
-2.31781,0.767517
-2.31934,0.764465
-2.31476,0.761414
-2.31018,0.761414
-2.3056,0.762939
-2.30865,0.762939
-2.30408,0.764465
-2.30255,0.759888
-2.30255,0.761414
-2.30103,0.762939
-2.30103,0.767517
-2.30255,0.762939
-2.30103,0.764465
-2.30103,0.762939
-2.30103,0.762939
-2.30713,0.762939
-2.30865,0.762939
-2.31476,0.761414
-2.31781,0.761414
-2.32239,0.759888
-2.32544,0.764465
-2.33307,0.764465
-2.33612,0.761414
-2.34222,0.759888
-2.3468,0.762939
-2.35138,0.762939
-2.35748,0.767517
-2.36359,0.759888
-2.36969,0.762939
-2.37885,0.761414
-2.38495,0.767517
-2.39258,0.762939
-2.40021,0.762939
-2.40631,0.764465
-2.41699,0.764465
-2.42004,0.764465
-2.4292,0.764465
-2.4353,0.762939
-2.44141,0.761414
-2.45209,0.762939
-2.46124,0.767517
-2.46887,0.761414
-2.4765,0.761414
-2.48566,0.762939
-2.49176,0.761414
-2.49786,0.764465
-2.50549,0.761414
-2.51007,0.762939
-2.52075,0.758362
-2.52686,0.762939
-2.53296,0.764465
-2.54059,0.759888
-2.54822,0.759888
-2.5528,0.762939
-2.56195,0.762939
-2.56653,0.762939
-2.57416,0.759888
-2.58179,0.762939
-2.58484,0.762939
-2.59399,0.764465
-2.60468,0.762939
-2.61078,0.762939
-2.61688,0.762939
-2.62299,0.762939
-2.62909,0.762939
-2.63824,0.762939
-2.6413,0.762939
-2.6474,0.759888
-2.6535,0.761414
-2.65503,0.761414
-2.65961,0.762939
-2.65961,0.762939
-2.65503,0.761414
-2.65045,0.761414
-2.64282,0.761414
-2.63062,0.761414
-2.61078,0.759888
-2.58942,0.761414
-2.5589,0.759888
-2.52228,0.761414
-2.48566,0.764465
-2.44446,0.762939
-2.40326,0.759888
-2.36053,0.759888
-2.32086,0.764465
-2.28577,0.759888
-2.24762,0.761414
-2.21252,0.764465
-2.18201,0.759888
-2.15607,0.759888
-2.13013,0.762939
-2.10876,0.762939
-2.09045,0.759888
-2.07062,0.761414
-2.05994,0.764465
-2.04315,0.761414
-2.03857,0.762939
-2.02789,0.761414
-2.02637,0.761414
-2.02026,0.762939
-2.02026,0.761414
-2.02484,0.762939
-2.02637,0.762939
-2.02942,0.759888
-2.03705,0.762939
-2.04163,0.759888
-2.0462,0.761414
-2.05231,0.759888
-2.05994,0.761414
-2.07214,0.759888
-2.08282,0.762939
-2.08893,0.759888
-2.09351,0.762939
-2.10724,0.759888
-2.11792,0.762939
-2.12555,0.758362
-2.13318,0.761414
-2.14844,0.759888
-2.15454,0.759888
-2.16675,0.759888
-2.17438,0.762939
-2.18658,0.759888
-2.19879,0.762939
-2.20642,0.759888
-2.2171,0.759888
-2.22626,0.759888
-2.23694,0.758362
-2.24762,0.759888
-2.26135,0.758362
-2.27203,0.759888
-2.27814,0.759888
-2.28882,0.758362
-2.30103,0.759888
-2.3056,0.756836
-2.31476,0.758362
-2.32544,0.761414
-2.33307,0.758362
-2.33612,0.758362
-2.3407,0.758362
-2.34375,0.756836
-2.34985,0.758362
-2.35138,0.758362
-2.35291,0.759888
-2.35291,0.761414
-2.35596,0.761414
-2.35596,0.756836
-2.35748,0.758362
-2.35596,0.759888
-2.35443,0.758362
-2.35443,0.758362
-2.35138,0.758362
-2.34985,0.756836
-2.34528,0.758362
-2.34222,0.756836
-2.3407,0.758362
-2.33917,0.759888
-2.33612,0.756836
-2.33612,0.759888
-2.33765,0.758362
-2.33765,0.758362
-2.33917,0.759888
-2.33459,0.75531
-2.33765,0.761414
-2.3407,0.759888
-2.33917,0.758362
-2.34375,0.753784
-2.34375,0.758362
-2.3468,0.759888
-2.34985,0.761414
-2.35138,0.758362
-2.35596,0.758362
-2.36053,0.756836
-2.36511,0.758362
-2.36969,0.756836
-2.37579,0.758362
-2.3819,0.756836
-2.38495,0.756836
-2.38953,0.759888
-2.39563,0.758362
-2.39716,0.75531
-2.40784,0.756836
-2.41394,0.756836
-2.41699,0.758362
-2.42157,0.756836
-2.42767,0.759888
-2.43683,0.75531
-2.44141,0.75531
-2.45056,0.758362
-2.45819,0.756836
-2.46429,0.758362
-2.4704,0.756836
-2.4765,0.758362
-2.4826,0.758362
-2.49176,0.756836
-2.49634,0.756836
-2.50702,0.756836
-2.51465,0.75531
-2.52075,0.759888
-2.52686,0.756836
-2.53296,0.756836
-2.54211,0.756836
-2.55127,0.75531
-2.55432,0.75531
-2.56195,0.758362
-2.56958,0.758362
-2.57721,0.756836
-2.58636,0.756836
-2.59247,0.758362
-2.6001,0.758362
-2.6062,0.759888
-2.61383,0.756836
-2.61841,0.753784
-2.62146,0.75531
-2.62756,0.756836
-2.62909,0.759888
-2.62756,0.75531
-2.62604,0.753784
-2.62146,0.756836
-2.61078,0.75531
-2.59705,0.756836
-2.57568,0.758362
-2.54669,0.756836
-2.5116,0.756836
-2.47345,0.756836
-2.43225,0.761414
-2.388,0.756836
-2.34222,0.752258
-2.2995,0.759888
-2.25677,0.756836
-2.22015,0.758362
-2.18201,0.753784
-2.14539,0.75531
-2.11945,0.75531
-2.0874,0.756836
-2.06299,0.758362
-2.03857,0.75531
-2.01874,0.753784
-2.00348,0.75531
-1.98975,0.75531
-1.98059,0.753784
-1.97144,0.75531
-1.96381,0.752258
-1.95923,0.758362
-1.95618,0.753784
-1.95313,0.753784
-1.95618,0.752258
-1.95923,0.753784
-1.95923,0.75531
-1.96533,0.756836
-1.97144,0.75531
-1.97449,0.752258
-1.98669,0.75531
-1.98975,0.758362
-2.00043,0.758362
-2.00806,0.756836
-2.01721,0.752258
-2.02942,0.75531
-2.034,0.75531
-2.04468,0.756836
-2.05078,0.753784
-2.06451,0.750732
-2.06909,0.75531
-2.07825,0.753784
-2.08588,0.756836
-2.09198,0.753784
-2.10419,0.75531
-2.11182,0.752258
-2.12402,0.758362
-2.13013,0.753784
-2.14081,0.753784
-2.15149,0.752258
-2.16064,0.752258
-2.17133,0.75531
-2.18048,0.753784
-2.18811,0.753784
-2.19574,0.753784
-2.20337,0.753784
-2.21558,0.75531
-2.22015,0.75531
-2.23083,0.753784
-2.23236,0.75531
-2.23846,0.753784
-2.24762,0.75531
-2.24762,0.75531
-2.25677,0.75531
-2.25677,0.753784
-2.25983,0.750732
-2.25983,0.753784
-2.26288,0.75531
-2.26288,0.752258
-2.26746,0.753784
-2.26288,0.750732
-2.2644,0.753784
-2.25983,0.75531
-2.26288,0.753784
-2.26135,0.752258
-2.25983,0.753784
-2.25677,0.752258
-2.25372,0.756836
-2.25067,0.750732
-2.24915,0.752258
-2.24762,0.752258
-2.25067,0.756836
-2.24762,0.752258
-2.24609,0.750732
-2.24609,0.750732
-2.24915,0.750732
-2.24762,0.750732
-2.25067,0.75531
-2.25525,0.752258
-2.25677,0.75531
-2.25983,0.749207
-2.2644,0.753784
-2.26746,0.756836
-2.27356,0.750732
-2.27661,0.753784
-2.28271,0.749207
-2.28577,0.753784
-2.28729,0.753784
-2.2995,0.750732
-2.30103,0.750732
-2.30865,0.750732
-2.31171,0.753784
-2.32086,0.753784
-2.32697,0.753784
-2.33459,0.749207
-2.34222,0.747681
-2.34528,0.750732
-2.35291,0.75531
-2.35901,0.750732
-2.36511,0.750732
-2.37427,0.747681
-2.38037,0.753784
-2.388,0.753784
-2.3941,0.752258
-2.39716,0.753784
-2.40784,0.747681
-2.41547,0.756836
-2.42004,0.753784
-2.42615,0.752258
-2.43073,0.752258
-2.44141,0.747681
-2.44446,0.752258
-2.45209,0.753784
-2.45972,0.750732
-2.46429,0.750732
-2.47345,0.749207
-2.4826,0.750732
-2.48413,0.75531
-2.49481,0.752258
-2.50092,0.752258
-2.50702,0.749207
-2.51312,0.752258
-2.51465,0.753784
-2.51617,0.752258
-2.51465,0.753784
-2.51465,0.747681
-2.5116,0.752258
-2.50244,0.753784
-2.48718,0.749207
-2.46735,0.749207
-2.4353,0.750732
-2.40936,0.752258
-2.37122,0.750732
-2.33002,0.749207
-2.28729,0.750732
-2.24609,0.747681
-2.20795,0.753784
-2.16827,0.752258
-2.13318,0.750732
-2.10266,0.750732
-2.07062,0.747681
-2.04163,0.750732
-2.01416,0.750732
-1.99432,0.750732
-1.97296,0.749207
-1.9577,0.747681
-1.94244,0.753784
-1.93024,0.750732
-1.92108,0.750732
-1.91345,0.747681
-1.91193,0.747681
-1.90735,0.752258
-1.90277,0.749207
-1.90277,0.749207
-1.90277,0.749207
-1.9104,0.747681
-1.91193,0.750732
-1.91803,0.747681
-1.92566,0.749207
-1.93024,0.749207
-1.93634,0.747681
-1.94397,0.75531
-1.95313,0.749207
-1.96228,0.750732
-1.96838,0.749207
-1.97754,0.747681
-1.98822,0.752258
-1.99432,0.752258
-2.005,0.747681
-2.01111,0.750732
-2.02026,0.744629
-2.02789,0.752258
-2.03705,0.750732
-2.0462,0.749207
-2.05231,0.747681
-2.06299,0.744629
-2.07062,0.750732
-2.07825,0.750732
-2.0874,0.747681
-2.09503,0.749207
-2.10266,0.747681
-2.11487,0.752258
-2.12097,0.750732
-2.1286,0.746155
-2.13928,0.746155
-2.14844,0.747681
-2.15149,0.752258
-2.16064,0.750732
-2.16827,0.749207
-2.17133,0.747681
-2.17896,0.746155
-2.18048,0.749207
-2.18506,0.747681
-2.18964,0.747681
-2.18964,0.750732
-2.19116,0.746155
-2.19269,0.749207
-2.19421,0.746155
-2.19269,0.749207
-2.19116,0.750732
-2.18964,0.747681
-2.18964,0.747681
-2.18811,0.749207
-2.18506,0.749207
-2.18658,0.746155
-2.18506,0.744629
-2.18506,0.749207
-2.17896,0.747681
-2.17896,0.747681
-2.17896,0.749207
-2.17896,0.747681
-2.17438,0.750732
-2.18048,0.749207
-2.17438,0.746155
-2.18201,0.749207
-2.18353,0.747681
-2.18506,0.749207
-2.18811,0.747681
-2.18811,0.749207
-2.19269,0.750732
-2.19727,0.747681
-2.20184,0.750732
-2.2049,0.746155
-2.20795,0.744629
-2.21252,0.750732
-2.2171,0.746155
-2.22626,0.749207
-2.22778,0.747681
-2.23236,0.747681
-2.23846,0.747681
-2.24304,0.747681
-2.24915,0.749207
-2.25677,0.747681
-2.26593,0.750732
-2.26898,0.752258
-2.27509,0.747681
-2.28271,0.749207
-2.28882,0.747681
-2.29797,0.750732
-2.3056,0.749207
-2.31018,0.743103
-2.32239,0.749207
-2.33154,0.747681
-2.3407,0.749207
-2.34528,0.747681
-2.35291,0.744629
-2.35748,0.749207
-2.36969,0.747681
-2.37427,0.746155
-2.38342,0.750732
-2.39105,0.743103
-2.39563,0.746155
-2.40326,0.746155
-2.40936,0.746155
-2.41394,0.747681
-2.42157,0.741577
-2.42767,0.747681
-2.43378,0.749207
-2.43988,0.746155
-2.44598,0.747681
-2.45056,0.743103
-2.45667,0.747681
-2.45667,0.746155
-2.45667,0.746155
-2.45361,0.747681
-2.44751,0.744629
-2.43683,0.747681
-2.41852,0.749207
-2.3941,0.746155
-2.36816,0.746155
-2.33459,0.743103
-2.30103,0.746155
-2.25983,0.743103
-2.22015,0.746155
-2.18201,0.747681
-2.14233,0.743103
-2.11029,0.746155
-2.07672,0.743103
-2.04315,0.744629
-2.01263,0.746155
-1.99127,0.746155
-1.96686,0.746155
-1.94855,0.747681
-1.92413,0.744629
-1.91498,0.749207
-1.9043,0.743103
-1.89056,0.747681
-1.88446,0.746155
-1.87836,0.747681
-1.87683,0.746155
-1.87531,0.746155
-1.87225,0.744629
-1.87683,0.747681
-1.87988,0.744629
-1.88293,0.744629
-1.88751,0.744629
-1.88904,0.744629
-1.89972,0.749207
-1.90735,0.744629
-1.91193,0.747681
-1.92261,0.746155
-1.92871,0.744629
-1.93787,0.750732
-1.94855,0.743103
-1.95618,0.747681
-1.96533,0.744629
-1.97296,0.746155
-1.98212,0.750732
-1.98975,0.743103
-1.9989,0.749207
-2.00806,0.741577
-2.01721,0.743103
-2.02637,0.749207
-2.03552,0.741577
-2.0462,0.744629
-2.05078,0.740051
-2.06299,0.746155
-2.07062,0.752258
-2.0813,0.741577
-2.08893,0.749207
-2.09503,0.743103
-2.10724,0.743103
-2.11487,0.752258
-2.12097,0.741577
-2.1286,0.747681
-2.13623,0.743103
-2.14233,0.743103
-2.15149,0.750732
-2.15149,0.743103
-2.15607,0.746155
-2.16064,0.740051
-2.16064,0.743103
-2.16217,0.752258
-2.16217,0.741577
-2.16675,0.744629
-2.16217,0.740051
-2.16064,0.746155
-2.1637,0.752258
-2.15912,0.741577
-2.15912,0.746155
-2.15607,0.743103
-2.15454,0.743103
-2.15302,0.753784
-2.14844,0.741577
-2.14844,0.746155
-2.14539,0.740051
-2.14691,0.743103
-2.14539,0.752258
-2.14386,0.744629
-2.14386,0.746155
-2.14386,0.743103
-2.14386,0.744629
-2.14691,0.749207
-2.14691,0.743103
-2.14996,0.743103
-2.15149,0.737
-2.15302,0.743103
-2.15607,0.753784
-2.16217,0.741577
-2.16675,0.746155
-2.16827,0.740051
-2.17285,0.743103
-2.17743,0.750732
-2.18506,0.741577
-2.18964,0.746155
-2.19116,0.738525
-2.20032,0.744629
-2.2049,0.750732
-2.211,0.738525
-2.21558,0.746155
-2.22321,0.740051
-2.23083,0.740051
-2.23541,0.747681
-2.24609,0.740051
-2.25067,0.743103
-2.25983,0.740051
-2.2644,0.741577
-2.27203,0.746155
-2.27814,0.740051
-2.28271,0.743103
-2.28882,0.738525
-2.29797,0.743103
-2.30408,0.747681
-2.31323,0.740051
-2.31934,0.743103
-2.32391,0.740051
-2.33307,0.741577
-2.33765,0.744629
-2.34375,0.737
-2.34985,0.741577
-2.35748,0.740051
-2.36359,0.744629
-2.37274,0.743103
-2.37885,0.740051
-2.38495,0.738525
-2.39105,0.738525
-2.39563,0.741577
-2.40326,0.741577
-2.40631,0.743103
-2.40784,0.741577
-2.40784,0.740051
-2.41089,0.743103
-2.40173,0.740051
-2.3941,0.741577
-2.37885,0.741577
-2.36206,0.737
-2.3407,0.743103
-2.31018,0.740051
-2.27814,0.740051
-2.23846,0.741577
-2.20032,0.740051
-2.16522,0.741577
-2.1225,0.740051
-2.08435,0.738525
-2.05078,0.743103
-2.01874,0.741577
-1.98822,0.743103
-1.96075,0.735474
-1.93481,0.735474
-1.91193,0.741577
-1.89056,0.740051
-1.87378,0.740051
-1.8631,0.733948
-1.84784,0.738525
-1.84174,0.744629
-1.82953,0.741577
-1.82495,0.741577
-1.82037,0.737
-1.82037,0.740051
-1.82037,0.740051
-1.8219,0.738525
-1.82495,0.743103
-1.82648,0.735474
-1.83105,0.740051
-1.83868,0.740051
-1.84784,0.738525
-1.85699,0.740051
-1.86157,0.735474
-1.87225,0.738525
-1.87836,0.740051
-1.88904,0.740051
-1.89819,0.738525
-1.9104,0.733948
-1.91803,0.740051
-1.93024,0.737
-1.93939,0.737
-1.94855,0.740051
-1.9577,0.72937
-1.96838,0.740051
-1.97754,0.740051
-1.98212,0.738525
-1.99738,0.737
-2.00653,0.732422
-2.01721,0.738525
-2.02637,0.737
-2.03857,0.738525
-2.04773,0.738525
-2.05536,0.733948
-2.07062,0.740051
-2.07977,0.737
-2.08588,0.741577
-2.09351,0.737
-2.10266,0.727844
-2.10876,0.737
-2.11639,0.738525
-2.12097,0.740051
-2.12402,0.737
-2.1286,0.72937
-2.13318,0.738525
-2.13318,0.738525
-2.13928,0.741577
-2.13928,0.737
-2.13928,0.726318
-2.14081,0.738525
-2.13623,0.737
-2.13165,0.737
-2.13165,0.737
-2.12402,0.727844
-2.12402,0.737
-2.12097,0.737
-2.12097,0.737
-2.11639,0.737
-2.11182,0.727844
-2.11182,0.738525
-2.10724,0.735474
-2.11029,0.737
-2.10876,0.733948
-2.11029,0.727844
-2.11029,0.737
-2.11029,0.738525
-2.11182,0.735474
-2.11334,0.737
-2.11334,0.724792
-2.11792,0.735474
-2.12097,0.738525
-2.12402,0.738525
-2.12708,0.733948
-2.13013,0.732422
-2.13318,0.738525
-2.14233,0.735474
-2.14844,0.735474
-2.15149,0.733948
-2.15607,0.724792
-2.16064,0.740051
-2.16522,0.733948
-2.17133,0.737
-2.18048,0.733948
-2.18353,0.724792
-2.18964,0.738525
-2.19727,0.733948
-2.20184,0.735474
-2.20947,0.733948
-2.21558,0.726318
-2.22015,0.735474
-2.22931,0.733948
-2.23236,0.735474
-2.24152,0.735474
-2.24457,0.724792
-2.25525,0.738525
-2.2583,0.733948
-2.2644,0.733948
-2.27051,0.735474
-2.27966,0.724792
-2.27966,0.735474
-2.2934,0.733948
-2.29797,0.735474
-2.30255,0.732422
-2.30865,0.723267
-2.31476,0.738525
-2.32544,0.735474
-2.33002,0.735474
-2.33612,0.733948
-2.34528,0.726318
-2.34833,0.737
-2.35291,0.732422
-2.35443,0.737
-2.35596,0.733948
-2.35748,0.726318
-2.35596,0.735474
-2.34833,0.738525
-2.33459,0.732422
-2.32239,0.732422
-2.2995,0.726318
-2.27356,0.737
-2.24304,0.735474
-2.211,0.735474
-2.17133,0.732422
-2.14081,0.727844
-2.10419,0.733948
-2.07062,0.738525
-2.04468,0.732422
-2.00958,0.733948
-1.97754,0.724792
-1.95465,0.733948
-1.93481,0.737
-1.91345,0.737
-1.89514,0.733948
-1.87836,0.72937
-1.86462,0.735474
-1.85394,0.72937
-1.84631,0.735474
-1.83868,0.732422
-1.83716,0.732422
-1.82953,0.735474
-1.83105,0.72937
-1.828,0.733948
-1.83105,0.72937
-1.83716,0.732422
-1.83868,0.738525
-1.84174,0.732422
-1.85089,0.727844
-1.85547,0.72937
-1.8631,0.732422
-1.87225,0.735474
-1.87836,0.735474
-1.88751,0.72937
-1.89514,0.72937
-1.90125,0.72937
-1.91193,0.733948
-1.92413,0.733948
-1.92871,0.733948
-1.93634,0.72937
-1.95007,0.727844
-1.95923,0.735474
-1.96533,0.72937
-1.97906,0.732422
-1.98669,0.727844
-1.99585,0.727844
-2.00653,0.735474
-2.01569,0.732422
-2.02637,0.733948
-2.034,0.727844
-2.05078,0.733948
-2.05994,0.733948
-2.06909,0.732422
-2.0752,0.732422
-2.0874,0.72937
-2.09198,0.72937
-2.09808,0.733948
-2.10724,0.732422
-2.11182,0.732422
-2.11334,0.72937
-2.11487,0.733948
-2.11639,0.735474
-2.11792,0.733948
-2.11792,0.732422
-2.11334,0.727844
-2.11182,0.735474
-2.11029,0.733948
-2.10266,0.733948
-2.10114,0.72937
-2.09656,0.732422
-2.09198,0.735474
-2.0874,0.732422
-2.0813,0.72937
-2.07672,0.72937
-2.07062,0.732422
-2.07062,0.733948
-2.06604,0.737
-2.06299,0.727844
-2.05841,0.727844
-2.05688,0.726318
-2.05536,0.733948
-2.05536,0.735474
-2.05536,0.732422
-2.05383,0.72937
-2.05841,0.726318
-2.05994,0.733948
-2.05994,0.735474
-2.06451,0.72937
-2.06604,0.727844
-2.07062,0.727844
-2.0752,0.72937
-2.0813,0.733948
-2.08588,0.72937
-2.08893,0.726318
-2.09656,0.726318
-2.09656,0.733948
-2.10419,0.732422
-2.11334,0.727844
-2.11487,0.727844
-2.1225,0.72937
-2.1286,0.735474
-2.1347,0.732422
-2.14386,0.72937
-2.15149,0.727844
-2.15454,0.72937
-2.16217,0.735474
-2.16522,0.735474
-2.17438,0.727844
-2.18201,0.72937
-2.18811,0.72937
-2.19727,0.735474
-2.20337,0.72937
-2.20947,0.72937
-2.21863,0.727844
-2.22626,0.726318
-2.23083,0.732422
-2.23999,0.727844
-2.24609,0.733948
-2.25525,0.727844
-2.25983,0.732422
-2.26746,0.733948
-2.27203,0.733948
-2.27966,0.727844
-2.28119,0.72937
-2.28577,0.727844
-2.28729,0.733948
-2.28882,0.732422
-2.28729,0.727844
-2.28577,0.724792
-2.27509,0.727844
-2.26135,0.737
-2.24152,0.727844
-2.21863,0.724792
-2.18811,0.72937
-2.15607,0.726318
-2.12402,0.735474
-2.08435,0.732422
-2.04926,0.733948
-2.01569,0.727844
-1.98212,0.732422
-1.94855,0.733948
-1.91956,0.72937
-1.89514,0.724792
-1.86768,0.727844
-1.84784,0.726318
-1.82495,0.732422
-1.81122,0.733948
-1.79291,0.727844
-1.78223,0.724792
-1.7746,0.727844
-1.76544,0.72937
-1.75934,0.733948
-1.75171,0.724792
-1.75323,0.726318
-1.74866,0.72937
-1.75171,0.732422
-1.74866,0.732422
-1.75171,0.724792
-1.75934,0.724792
-1.76392,0.726318
-1.76849,0.732422
-1.77612,0.733948
-1.78223,0.723267
-1.78833,0.726318
-1.80054,0.732422
-1.80969,0.72937
-1.81885,0.72937
-1.828,0.727844
-1.83716,0.727844
-1.84784,0.726318
-1.85699,0.72937
-1.86615,0.732422
-1.87531,0.727844
-1.88751,0.72937
-1.89667,0.72937
-1.9104,0.72937
-1.92413,0.732422
-1.93024,0.72937
-1.94092,0.724792
-1.95465,0.726318
-1.96533,0.72937
-1.97601,0.733948
-1.98975,0.726318
-1.99738,0.724792
-2.00653,0.723267
-2.01569,0.733948
-2.02179,0.732422
-2.034,0.726318
-2.03857,0.724792
-2.04468,0.726318
-2.0462,0.72937
-2.05231,0.72937
-2.05994,0.724792
-2.05841,0.727844
-2.06451,0.726318
-2.06299,0.732422
-2.05994,0.727844
-2.06299,0.724792
-2.06299,0.723267
-2.05841,0.727844
-2.05536,0.732422
-2.05078,0.733948
-2.04926,0.724792
-2.04315,0.724792
-2.04163,0.724792
-2.03857,0.72937
-2.03552,0.726318
-2.03247,0.724792
-2.03094,0.723267
-2.02942,0.72937
-2.02942,0.727844
-2.02942,0.72937
-2.02789,0.724792
-2.02789,0.723267
-2.02637,0.727844
-2.03094,0.726318
-2.03552,0.726318
-2.03552,0.724792
-2.03857,0.724792
-2.04163,0.726318
-2.04468,0.727844
-2.04773,0.727844
-2.05078,0.721741
-2.05688,0.723267
-2.06299,0.724792
-2.06757,0.723267
-2.07367,0.727844
-2.07825,0.721741
-2.08435,0.726318
-2.09045,0.726318
-2.09503,0.724792
-2.10419,0.72937
-2.11182,0.721741
-2.11487,0.726318
-2.12555,0.726318
-2.12708,0.726318
-2.13623,0.727844
-2.14233,0.718689
-2.14844,0.724792
-2.15607,0.724792
-2.1637,0.726318
-2.16827,0.72937
-2.17896,0.723267
-2.18353,0.726318
-2.18811,0.724792
-2.19421,0.723267
-2.20032,0.72937
-2.2049,0.723267
-2.21252,0.721741
-2.22168,0.726318
-2.22778,0.724792
-2.23389,0.726318
-2.24152,0.721741
-2.24152,0.723267
-2.25067,0.726318
-2.25525,0.720215
-2.26135,0.72937
-2.26593,0.721741
-2.27203,0.723267
-2.27356,0.723267
-2.26898,0.720215
-2.26288,0.724792
-2.2583,0.723267
-2.24609,0.724792
-2.22626,0.724792
-2.20032,0.723267
-2.17438,0.726318
-2.1347,0.723267
-2.09808,0.721741
-2.05994,0.721741
-2.01721,0.723267
-1.97754,0.726318
-1.93939,0.723267
-1.89819,0.721741
-1.86462,0.723267
-1.83563,0.723267
-1.80206,0.724792
-1.7746,0.721741
-1.74866,0.720215
-1.72729,0.726318
-1.70441,0.720215
-1.69067,0.724792
-1.67542,0.721741
-1.66321,0.724792
-1.65405,0.724792
-1.64948,0.723267
-1.6449,0.723267
-1.63574,0.720215
-1.63269,0.723267
-1.63422,0.732422
-1.63422,0.721741
-1.63727,0.724792
-1.64032,0.720215
-1.64032,0.718689
-1.651,0.724792
-1.65253,0.724792
-1.66016,0.724792
-1.66473,0.723267
-1.67389,0.721741
-1.67847,0.726318
-1.6861,0.718689
-1.69678,0.723267
-1.70135,0.721741
-1.71204,0.721741
-1.71661,0.724792
-1.72577,0.720215
-1.73492,0.723267
-1.74103,0.723267
-1.74713,0.720215
-1.75323,0.727844
-1.76239,0.721741
-1.76697,0.721741
-1.77765,0.720215
-1.7868,0.726318
-1.79291,0.727844
-1.80511,0.720215
-1.81732,0.721741
-1.828,0.718689
-1.83716,0.718689
-1.84631,0.726318
-1.85089,0.721741
-1.85852,0.724792
-1.86615,0.718689
-1.87378,0.720215
-1.87683,0.72937
-1.88446,0.718689
-1.88904,0.720215
-1.88904,0.720215
-1.89056,0.721741
-1.89209,0.727844
-1.89362,0.718689
-1.89362,0.721741
-1.89209,0.718689
-1.89514,0.723267
-1.89362,0.726318
-1.89667,0.717163
-1.89209,0.723267
-1.88904,0.720215
-1.88904,0.723267
-1.88599,0.724792
-1.88293,0.715637
-1.88293,0.723267
-1.88141,0.720215
-1.87988,0.721741
-1.88141,0.723267
-1.88293,0.718689
-1.88599,0.721741
-1.88293,0.718689
-1.88751,0.720215
-1.89209,0.721741
-1.89209,0.717163
-1.89362,0.718689
-1.89514,0.720215
-1.89972,0.721741
-1.90125,0.718689
-1.9104,0.720215
-1.9165,0.720215
-1.9165,0.723267
-1.92413,0.720215
-1.92566,0.715637
-1.93634,0.720215
-1.94244,0.718689
-1.95007,0.721741
-1.9577,0.721741
-1.96075,0.717163
-1.96686,0.718689
-1.97296,0.720215
-1.98059,0.723267
-1.99127,0.720215
-1.9989,0.715637
-2.005,0.721741
-2.01263,0.720215
-2.01721,0.718689
-2.02789,0.718689
-2.03552,0.715637
-2.03857,0.718689
-2.04773,0.718689
-2.05383,0.723267
-2.06604,0.717163
-2.07214,0.714111
-2.0813,0.720215
-2.0874,0.720215
-2.09503,0.721741
-2.10571,0.720215
-2.11182,0.712585
-2.11945,0.720215
-2.12708,0.721741
-2.13013,0.720215
-2.13928,0.721741
-2.14691,0.715637
-2.15454,0.721741
-2.15759,0.718689
-2.1637,0.720215
-2.1698,0.718689
-2.17438,0.717163
-2.17743,0.721741
-2.18201,0.718689
-2.18048,0.718689
-2.17285,0.718689
-2.1637,0.720215
-2.14844,0.718689
-2.1286,0.718689
-2.10571,0.718689
-2.07214,0.715637
-2.03705,0.718689
-1.99738,0.721741
-1.96228,0.717163
-1.92108,0.721741
-1.88446,0.720215
-1.84937,0.718689
-1.81122,0.721741
-1.77917,0.718689
-1.74866,0.717163
-1.72272,0.717163
-1.69525,0.715637
-1.67084,0.720215
-1.65253,0.718689
-1.63269,0.718689
-1.61743,0.720215
-1.60522,0.717163
-1.59302,0.721741
-1.58386,0.718689
-1.57623,0.717163
-1.57623,0.717163
-1.57471,0.717163
-1.57318,0.718689
-1.57471,0.720215
-1.57471,0.718689
-1.57623,0.715637
-1.57928,0.718689
-1.58691,0.717163
-1.58997,0.718689
-1.59607,0.717163
-1.59912,0.717163
-1.60828,0.720215
-1.61438,0.721741
-1.61896,0.717163
-1.62811,0.720215
-1.63422,0.715637
-1.63879,0.718689
-1.64795,0.720215
-1.65405,0.717163
-1.6571,0.720215
-1.66473,0.715637
-1.67236,0.717163
-1.67542,0.721741
-1.68457,0.717163
-1.6922,0.717163
-1.69983,0.718689
-1.70593,0.714111
-1.71509,0.723267
-1.72424,0.720215
-1.73035,0.720215
-1.73798,0.717163
-1.75018,0.715637
-1.75781,0.720215
-1.76697,0.717163
-1.77155,0.715637
-1.77765,0.715637
-1.78528,0.717163
-1.79138,0.720215
-1.79596,0.717163
-1.79749,0.720215
-1.80054,0.717163
-1.80511,0.718689
-1.80511,0.721741
-1.80511,0.717163
-1.80511,0.717163
-1.80511,0.717163
-1.80511,0.715637
-1.80511,0.718689
-1.80511,0.717163
-1.80206,0.717163
-1.80206,0.718689
-1.80206,0.717163
-1.80206,0.721741
-1.79596,0.717163
-1.79138,0.717163
-1.79138,0.715637
-1.79291,0.717163
-1.79138,0.723267
-1.79291,0.717163
-1.78986,0.718689
-1.79596,0.717163
-1.79291,0.718689
-1.79291,0.721741
-1.79749,0.712585
-1.80206,0.717163
-1.80206,0.715637
-1.80817,0.717163
-1.80817,0.720215
-1.81427,0.718689
-1.82037,0.721741
-1.82495,0.712585
-1.83105,0.717163
-1.83868,0.717163
-1.84174,0.715637
-1.84479,0.715637
-1.85547,0.715637
-1.86462,0.720215
-1.87378,0.720215
-1.87836,0.714111
-1.88599,0.717163
-1.89362,0.715637
-1.89819,0.720215
-1.9043,0.718689
-1.91345,0.714111
-1.92261,0.715637
-1.92871,0.714111
-1.93634,0.723267
-1.94092,0.717163
-1.95007,0.712585
-1.9577,0.717163
-1.96381,0.715637
-1.97144,0.723267
-1.97906,0.717163
-1.98975,0.715637
-1.9928,0.717163
-2.005,0.714111
-2.01111,0.724792
-2.01569,0.717163
-2.02484,0.712585
-2.03247,0.715637
-2.03857,0.717163
-2.0462,0.721741
-2.05231,0.720215
-2.05841,0.717163
-2.06909,0.717163
-2.07214,0.717163
-2.07825,0.721741
-2.08588,0.717163
-2.0874,0.717163
-2.09503,0.718689
-2.10419,0.714111
-2.10876,0.721741
-2.11487,0.720215
-2.12097,0.714111
-2.1286,0.717163
-2.13318,0.712585
-2.13928,0.721741
-2.14691,0.718689
-2.14844,0.715637
-2.15302,0.715637
-2.15454,0.714111
-2.15302,0.721741
-2.15454,0.717163
-2.14996,0.71106
-2.13318,0.714111
-2.11639,0.717163
-2.09351,0.720215
-2.06604,0.718689
-2.03094,0.714111
-1.99432,0.715637
-1.95465,0.714111
-1.91498,0.720215
-1.87531,0.720215
-1.83105,0.715637
-1.79596,0.715637
-1.75476,0.715637
-1.72424,0.721741
-1.69067,0.718689
-1.66168,0.717163
-1.63574,0.712585
-1.61438,0.715637
-1.59149,0.720215
-1.57623,0.715637
-1.5564,0.715637
-1.54877,0.717163
-1.53809,0.715637
-1.53046,0.721741
-1.52435,0.718689
-1.51978,0.715637
-1.51825,0.715637
-1.51825,0.714111
-1.51825,0.720215
-1.51978,0.714111
-1.52588,0.714111
-1.52893,0.717163
-1.53198,0.715637
-1.53809,0.721741
-1.54572,0.715637
-1.55487,0.714111
-1.55945,0.715637
-1.5686,0.715637
-1.57776,0.718689
-1.58539,0.715637
-1.58997,0.715637
-1.5976,0.714111
-1.60217,0.714111
-1.61133,0.721741
-1.61896,0.714111
-1.62354,0.717163
-1.63269,0.715637
-1.64032,0.715637
-1.64642,0.717163
-1.65558,0.714111
-1.66168,0.712585
-1.67236,0.712585
-1.68152,0.715637
-1.68915,0.717163
-1.69678,0.71106
-1.70288,0.714111
-1.71509,0.717163
-1.72119,0.712585
-1.72729,0.717163
-1.7334,0.712585
-1.7395,0.714111
-1.74561,0.712585
-1.75018,0.714111
-1.75781,0.715637
-1.76086,0.712585
-1.76392,0.71106
-1.76544,0.714111
-1.76697,0.714111
-1.76697,0.715637
-1.77002,0.714111
-1.77155,0.714111
-1.76697,0.714111
-1.76849,0.714111
-1.77002,0.71106
-1.76544,0.712585
-1.76239,0.71106
-1.75934,0.71106
-1.76239,0.714111
-1.75781,0.71106
-1.75934,0.712585
-1.75781,0.71106
-1.75781,0.715637
-1.75323,0.71106
-1.75476,0.709534
-1.75934,0.71106
-1.75476,0.715637
-1.75781,0.71106
-1.76086,0.712585
-1.75781,0.712585
-1.76392,0.712585
-1.76544,0.715637
-1.77002,0.712585
-1.7746,0.712585
-1.77917,0.71106
-1.78528,0.71106
-1.78833,0.71106
-1.79749,0.714111
-1.80359,0.71106
-1.80664,0.708008
-1.81274,0.714111
-1.8219,0.715637
-1.828,0.714111
-1.83716,0.714111
-1.84326,0.71106
-1.85089,0.709534
-1.86005,0.712585
-1.86615,0.714111
-1.87683,0.712585
-1.88446,0.71106
-1.88904,0.712585
-1.89972,0.712585
-1.90582,0.714111
-1.91345,0.71106
-1.92108,0.71106
-1.92719,0.71106
-1.93481,0.712585
-1.94397,0.712585
-1.94855,0.717163
-1.95923,0.71106
-1.96686,0.715637
-1.97144,0.71106
-1.97906,0.71106
-1.98975,0.71106
-1.99585,0.708008
-2.00043,0.71106
-2.01263,0.712585
-2.01721,0.712585
-2.02637,0.709534
-2.03094,0.708008
-2.03857,0.71106
-2.04773,0.712585
-2.05231,0.71106
-2.05688,0.712585
-2.06604,0.706482
-2.06909,0.71106
-2.07672,0.712585
-2.08435,0.712585
-2.0874,0.712585
-2.09351,0.704956
-2.09808,0.71106
-2.10571,0.712585
-2.11182,0.71106
-2.11334,0.709534
-2.11945,0.709534
-2.1225,0.71106
-2.12708,0.71106
-2.13165,0.712585
-2.13928,0.708008
-2.14081,0.708008
-2.14844,0.712585
-2.15149,0.71106
-2.15607,0.714111
-2.16217,0.71106
-2.16522,0.70343
-2.1698,0.71106
-2.17438,0.71106
-2.17896,0.714111
-2.18353,0.71106
-2.18506,0.706482
-2.18811,0.712585
-2.18658,0.71106
-2.18658,0.709534
-2.18048,0.709534
-2.17133,0.704956
-2.16064,0.71106
-2.14386,0.71106
-2.11945,0.712585
-2.08893,0.71106
-2.05383,0.706482
-2.01569,0.71106
-1.97449,0.71106
-1.93329,0.71106
-1.88904,0.712585
-1.84937,0.706482
-1.80511,0.709534
-1.76849,0.71106
-1.73492,0.708008
-1.70135,0.712585
-1.66931,0.706482
-1.64642,0.709534
-1.62506,0.71106
-1.5976,0.709534
-1.58234,0.709534
-1.5686,0.704956
-1.55487,0.709534
-1.54419,0.709534
-1.53809,0.709534
-1.53198,0.71106
-1.52283,0.709534
-1.5213,0.71106
-1.52283,0.708008
-1.52588,0.709534
-1.53046,0.712585
-1.53046,0.704956
-1.53809,0.71106
-1.54419,0.708008
-1.55029,0.708008
-1.5564,0.71106
-1.55945,0.706482
-1.57318,0.712585
-1.58081,0.708008
-1.58844,0.708008
-1.5976,0.71106
-1.60675,0.709534
-1.62048,0.712585
-1.62811,0.708008
-1.63574,0.709534
-1.64642,0.709534
-1.651,0.71106
-1.66321,0.709534
-1.67236,0.704956
-1.68152,0.709534
-1.68915,0.709534
-1.69678,0.708008
-1.70746,0.71106
-1.71661,0.709534
-1.72577,0.71106
-1.73492,0.708008
-1.74561,0.708008
-1.75323,0.71106
-1.76392,0.709534
-1.7746,0.709534
-1.7807,0.71106
-1.7868,0.709534
-1.79596,0.712585
-1.80206,0.708008
-1.80664,0.71106
-1.81122,0.708008
-1.81274,0.708008
-1.81274,0.712585
-1.8158,0.709534
-1.8158,0.709534
-1.81274,0.71106
-1.81274,0.708008
-1.80817,0.709534
-1.80817,0.708008
-1.80359,0.71106
-1.80359,0.709534
-1.79901,0.709534
-1.79749,0.709534
-1.79291,0.709534
-1.78833,0.708008
-1.7868,0.71106
-1.7868,0.709534
-1.78375,0.712585
-1.78223,0.704956
-1.78375,0.708008
-1.78223,0.71106
-1.7807,0.709534
-1.77765,0.708008
-1.77917,0.706482
-1.78375,0.709534
-1.7868,0.709534
-1.78833,0.709534
-1.79596,0.71106
-1.79901,0.706482
-1.80359,0.708008
-1.80817,0.708008
-1.80969,0.709534
-1.81274,0.709534
-1.8219,0.706482
-1.82953,0.71106
-1.84174,0.70343
-1.84479,0.709534
-1.85394,0.71106
-1.86157,0.709534
-1.86615,0.708008
-1.87836,0.709534
-1.88446,0.708008
-1.89056,0.708008
-1.90125,0.709534
-1.9104,0.709534
-1.91498,0.706482
-1.92261,0.714111
-1.92719,0.71106
-1.93634,0.71106
-1.94397,0.708008
-1.95007,0.70343
-1.9577,0.709534
-1.96686,0.712585
-1.97296,0.709534
-1.98059,0.709534
-1.98975,0.706482
-1.99738,0.714111
-2.00195,0.709534
-2.00958,0.71106
-2.01721,0.708008
-2.02179,0.70343
-2.03094,0.71106
-2.0401,0.709534
-2.04468,0.708008
-2.04926,0.709534
-2.05536,0.70343
-2.06451,0.712585
-2.07214,0.709534
-2.07825,0.706482
-2.08588,0.709534
-2.08893,0.704956
-2.09503,0.71106
-2.10419,0.704956
-2.11029,0.708008
-2.11334,0.709534
-2.11945,0.71106
-2.12555,0.714111
-2.13318,0.709534
-2.13623,0.709534
-2.14081,0.709534
-2.14233,0.706482
-2.14386,0.71106
-2.14386,0.709534
-2.14844,0.708008
-2.14539,0.704956
-2.1347,0.708008
-2.12708,0.712585
-2.11487,0.704956
-2.09656,0.709534
-2.07367,0.71106
-2.04468,0.71106
-2.01111,0.714111
-1.97296,0.708008
-1.93481,0.71106
-1.89514,0.708008
-1.85699,0.709534
-1.82037,0.712585
-1.7807,0.706482
-1.75018,0.706482
-1.71509,0.71106
-1.68762,0.71106
-1.66016,0.712585
-1.63574,0.708008
-1.61438,0.708008
-1.59607,0.708008
-1.58081,0.714111
-1.56708,0.71106
-1.5564,0.708008
-1.54877,0.708008
-1.54114,0.706482
-1.53351,0.715637
-1.53351,0.712585
-1.53198,0.709534
-1.53046,0.708008
-1.53351,0.709534
-1.53503,0.715637
-1.54114,0.712585
-1.54419,0.706482
-1.55334,0.709534
-1.55792,0.706482
-1.56708,0.717163
-1.57318,0.712585
-1.57928,0.708008
-1.58844,0.704956
-1.5976,0.706482
-1.60675,0.715637
-1.61591,0.71106
-1.62659,0.708008
-1.63422,0.706482
-1.6449,0.708008
-1.65253,0.714111
-1.66321,0.712585
-1.67542,0.706482
-1.6861,0.706482
-1.69525,0.709534
-1.70746,0.71106
-1.71356,0.709534
-1.72882,0.704956
-1.7395,0.708008
-1.75018,0.706482
-1.76239,0.712585
-1.77307,0.708008
-1.78528,0.704956
-1.79596,0.706482
-1.80206,0.709534
-1.81427,0.71106
-1.82037,0.709534
-1.82648,0.708008
-1.83411,0.704956
-1.84021,0.706482
-1.84326,0.708008
-1.84784,0.709534
-1.84631,0.70343
-1.84937,0.706482
-1.85089,0.706482
-1.85089,0.709534
-1.84631,0.709534
-1.84631,0.708008
-1.84479,0.709534
-1.83868,0.706482
-1.83868,0.709534
-1.83411,0.708008
-1.828,0.708008
-1.82343,0.706482
-1.8219,0.706482
-1.82037,0.708008
-1.8158,0.706482
-1.8158,0.706482
-1.81427,0.708008
-1.81274,0.704956
-1.81122,0.706482
-1.81274,0.708008
-1.81274,0.708008
-1.81732,0.706482
-1.81885,0.706482
-1.81885,0.708008
-1.82495,0.704956
-1.82648,0.704956
-1.83563,0.706482
-1.84021,0.706482
-1.84784,0.706482
-1.84937,0.704956
-1.85852,0.709534
-1.8631,0.708008
-1.87225,0.706482
-1.88141,0.706482
-1.88751,0.708008
-1.89514,0.708008
-1.90277,0.704956
-1.91345,0.704956
-1.92108,0.70343
-1.93024,0.704956
-1.93634,0.704956
-1.94397,0.706482
-1.95465,0.709534
-1.96381,0.708008
-1.97144,0.706482
-1.97754,0.706482
-1.98822,0.709534
-1.99585,0.708008
-2.00195,0.706482
-2.01263,0.704956
-2.01721,0.70343
-2.02942,0.704956
-2.03552,0.708008
-2.04315,0.70343
-2.05078,0.70343
-2.05841,0.704956
-2.06299,0.704956
-2.07062,0.706482
-2.0813,0.704956
-2.08588,0.704956
-2.09351,0.704956
-2.09808,0.704956
-2.10876,0.704956
-2.11182,0.70343
-2.12097,0.700378
-2.12708,0.70343
-2.1347,0.704956
-2.14233,0.708008
-2.14691,0.70343
-2.15607,0.704956
-2.16217,0.701904
-2.16675,0.704956
-2.17285,0.704956
-2.18201,0.704956
-2.18658,0.704956
-2.19269,0.701904
-2.19727,0.704956
-2.19879,0.704956
-2.20337,0.706482
-2.2049,0.701904
-2.20795,0.701904
-2.20795,0.706482
-2.20337,0.704956
-2.19727,0.701904
-2.18506,0.706482
-2.1698,0.70343
-2.14691,0.706482
-2.11334,0.706482
-2.07825,0.701904
-2.0401,0.704956
-1.99127,0.70343
-1.9455,0.70343
-1.89819,0.704956
-1.85394,0.70343
-1.80969,0.704956
-1.76544,0.706482
-1.72424,0.704956
-1.69067,0.704956
-1.65558,0.701904
-1.62659,0.704956
-1.59607,0.704956
-1.57776,0.704956
-1.55182,0.704956
-1.53351,0.704956
-1.51672,0.701904
-1.50452,0.706482
-1.49231,0.70343
-1.48315,0.704956
-1.4801,0.704956
-1.47552,0.704956
-1.47552,0.70343
-1.474,0.704956
-1.474,0.70343
-1.474,0.704956
-1.47705,0.704956
-1.48163,0.70343
-1.48773,0.704956
-1.49384,0.704956
-1.49841,0.70343
-1.50604,0.70343
-1.51062,0.704956
-1.51672,0.704956
-1.52435,0.70343
-1.53503,0.70343
-1.54114,0.70343
-1.54572,0.704956
-1.55182,0.70343
-1.55945,0.704956
-1.5686,0.70343
-1.57623,0.704956
-1.58081,0.704956
-1.59149,0.704956
-1.5976,0.701904
-1.60675,0.70343
-1.61285,0.704956
-1.62201,0.706482
-1.62964,0.708008
-1.64032,0.704956
-1.64948,0.70343
-1.65558,0.706482
-1.66626,0.70343
-1.67694,0.706482
-1.68762,0.70343
-1.69373,0.70343
-1.70441,0.70343
-1.71051,0.704956
-1.71661,0.701904
-1.72424,0.704956
-1.72729,0.701904
-1.73187,0.70343
-1.73645,0.706482
-1.73798,0.704956
-1.74103,0.704956
-1.7395,0.704956
-1.74255,0.704956
-1.74255,0.708008
-1.7395,0.704956
-1.73645,0.706482
-1.73798,0.70343
-1.73492,0.704956
-1.7334,0.706482
-1.73035,0.70343
-1.73035,0.706482
-1.72882,0.704956
-1.72729,0.704956
-1.72729,0.704956
-1.72424,0.70343
-1.72424,0.70343
-1.72424,0.704956
-1.72729,0.701904
-1.72577,0.704956
-1.73035,0.70343
-1.72882,0.704956
-1.7334,0.706482
-1.73645,0.704956
-1.7395,0.706482
-1.74408,0.706482
-1.74866,0.706482
-1.75171,0.701904
-1.76086,0.70343
-1.76697,0.706482
-1.77307,0.706482
-1.77917,0.70343
-1.78528,0.704956
-1.79291,0.70343
-1.80359,0.70343
-1.81122,0.704956
-1.81732,0.700378
-1.82648,0.706482
-1.82953,0.70343
-1.84174,0.70343
-1.85089,0.704956
-1.85699,0.704956
-1.86462,0.704956
-1.87531,0.70343
-1.88446,0.704956
-1.89362,0.700378
-1.90125,0.70343
-1.91193,0.70343
-1.91956,0.706482
-1.92871,0.708008
-1.93787,0.704956
-1.9455,0.704956
-1.95465,0.70343
-1.96533,0.704956
-1.97449,0.704956
-1.97906,0.704956
-1.9928,0.700378
-1.9989,0.701904
-2.00653,0.701904
-2.01569,0.704956
-2.02484,0.701904
-2.03094,0.701904
-2.04163,0.704956
-2.04468,0.706482
-2.05383,0.706482
-2.06451,0.701904
-2.06757,0.70343
-2.0752,0.704956
-2.08282,0.701904
-2.09045,0.704956
-2.09198,0.70343
-2.10419,0.700378
-2.10876,0.70343
-2.11792,0.704956
-2.1225,0.704956
-2.13013,0.701904
-2.13318,0.70343
-2.14081,0.704956
-2.14844,0.70343
-2.14844,0.704956
-2.15149,0.701904
-2.14844,0.701904
-2.14386,0.706482
-2.1347,0.701904
-2.12402,0.704956
-2.10571,0.701904
-2.08282,0.700378
-2.04926,0.704956
-2.01263,0.701904
-1.97296,0.706482
-1.92871,0.70343
-1.88293,0.701904
-1.83716,0.701904
-1.79138,0.700378
-1.74713,0.704956
-1.71051,0.70343
-1.66779,0.704956
-1.63116,0.70343
-1.59912,0.701904
-1.57318,0.706482
-1.54572,0.706482
-1.52588,0.698853
-1.50299,0.704956
-1.48468,0.701904
-1.46637,0.704956
-1.45721,0.704956
-1.44806,0.704956
-1.43738,0.70343
-1.43585,0.700378
-1.43127,0.704956
-1.4328,0.701904
-1.42975,0.701904
-1.43127,0.70343
-1.4328,0.701904
-1.4389,0.704956
-1.4389,0.704956
-1.44806,0.701904
-1.45264,0.704956
-1.45721,0.700378
-1.46484,0.706482
-1.47095,0.704956
-1.47858,0.704956
-1.48621,0.701904
-1.49384,0.700378
-1.50299,0.706482
-1.51367,0.70343
-1.51672,0.70343
-1.52588,0.70343
-1.53351,0.700378
-1.53961,0.706482
-1.54572,0.701904
-1.55487,0.701904
-1.56097,0.70343
-1.56708,0.700378
-1.58234,0.704956
-1.58844,0.700378
-1.5976,0.704956
-1.60828,0.701904
-1.61438,0.701904
-1.62506,0.70343
-1.63269,0.700378
-1.64032,0.700378
-1.6449,0.706482
-1.6571,0.701904
-1.66473,0.704956
-1.66931,0.701904
-1.67694,0.700378
-1.68457,0.706482
-1.69067,0.701904
-1.69373,0.701904
-1.69678,0.701904
-1.6983,0.697327
-1.69983,0.70343
-1.70135,0.700378
-1.70288,0.70343
-1.70135,0.701904
-1.69678,0.697327
-1.69983,0.704956
-1.70135,0.698853
-1.69983,0.70343
-1.70135,0.700378
-1.69983,0.694275
-1.69525,0.704956
-1.6983,0.70343
-1.69678,0.70343
-1.6983,0.706482
-1.6983,0.692749
-1.69983,0.70343
-1.69983,0.700378
-1.70288,0.70343
-1.70593,0.701904
-1.70898,0.692749
-1.71204,0.704956
-1.71356,0.70343
-1.71967,0.706482
-1.72729,0.701904
-1.72882,0.691223
-1.73645,0.704956
-1.7395,0.70343
-1.74713,0.706482
-1.75323,0.701904
-1.76239,0.691223
-1.76849,0.704956
-1.7746,0.701904
-1.78528,0.70343
-1.79291,0.701904
-1.80054,0.692749
-1.80969,0.70343
-1.81427,0.70343
-1.82037,0.706482
-1.83411,0.70343
-1.84326,0.697327
-1.85242,0.70343
-1.86157,0.701904
-1.8692,0.704956
-1.87378,0.70343
-1.88751,0.700378
-1.89514,0.700378
-1.90277,0.70343
-1.91345,0.706482
-1.92261,0.70343
-1.93024,0.701904
-1.93634,0.704956
-1.9455,0.704956
-1.95313,0.70343
-1.96381,0.70343
-1.97296,0.701904
-1.97754,0.70343
-1.98364,0.704956
-1.99432,0.706482
-2.00043,0.701904
-2.00958,0.70343
-2.01721,0.70343
-2.02637,0.700378
-2.03247,0.704956
-2.04315,0.706482
-2.04773,0.708008
-2.05383,0.704956
-2.05841,0.701904
-2.06909,0.706482
-2.07214,0.70343
-2.07977,0.706482
-2.08435,0.70343
-2.08893,0.704956
-2.09656,0.70343
-2.10571,0.704956
-2.11182,0.709534
-2.12097,0.70343
-2.12708,0.70343
-2.13318,0.701904
-2.13928,0.70343
-2.14844,0.708008
-2.15454,0.70343
-2.16217,0.70343
-2.16064,0.708008
-2.1637,0.704956
-2.16827,0.709534
-2.16675,0.70343
-2.1637,0.704956
-2.15759,0.70343
-2.14539,0.70343
-2.13013,0.708008
-2.10876,0.704956
-2.08435,0.70343
-2.05078,0.70343
-2.00806,0.70343
-1.96991,0.712585
-1.92566,0.706482
-1.87836,0.706482
-1.83105,0.701904
-1.78833,0.706482
-1.74408,0.715637
-1.70441,0.70343
-1.66626,0.701904
-1.63269,0.704956
-1.5976,0.708008
-1.57013,0.714111
-1.54877,0.701904
-1.52435,0.706482
-1.50757,0.704956
-1.49078,0.704956
-1.47858,0.712585
-1.47095,0.706482
-1.46179,0.704956
-1.45721,0.704956
-1.45416,0.704956
-1.45264,0.717163
-1.45416,0.704956
-1.45721,0.706482
-1.45721,0.706482
-1.46179,0.706482
-1.46637,0.715637
-1.47095,0.704956
-1.47705,0.706482
-1.48315,0.704956
-1.49078,0.706482
-1.49841,0.714111
-1.50757,0.704956
-1.5152,0.706482
-1.52283,0.706482
-1.53046,0.704956
-1.54419,0.717163
-1.54877,0.704956
-1.55945,0.708008
-1.56708,0.704956
-1.57776,0.708008
-1.58386,0.718689
-1.59149,0.708008
-1.60065,0.708008
-1.6098,0.706482
-1.61896,0.708008
-1.63269,0.718689
-1.63727,0.706482
-1.64948,0.704956
-1.65863,0.704956
-1.66931,0.709534
-1.68152,0.718689
-1.69067,0.706482
-1.70135,0.706482
-1.70898,0.706482
-1.71967,0.708008
-1.72729,0.717163
-1.73492,0.706482
-1.74408,0.708008
-1.74255,0.706482
-1.74866,0.708008
-1.75171,0.712585
-1.75781,0.704956
-1.75781,0.708008
-1.76239,0.708008
-1.76086,0.706482
-1.76392,0.714111
-1.75934,0.704956
-1.76086,0.708008
-1.75934,0.704956
-1.75934,0.708008
-1.75476,0.715637
-1.75476,0.704956
-1.75476,0.709534
-1.74866,0.709534
-1.74866,0.708008
-1.74408,0.71106
-1.74713,0.70343
-1.74408,0.706482
-1.74408,0.706482
-1.74713,0.708008
-1.74713,0.712585
-1.74866,0.706482
-1.75018,0.708008
-1.75323,0.709534
-1.75934,0.709534
-1.76239,0.71106
-1.76849,0.706482
-1.77002,0.71106
-1.77765,0.709534
-1.7868,0.709534
-1.79138,0.712585
-1.79596,0.708008
-1.80359,0.709534
-1.80969,0.708008
-1.81732,0.708008
-1.828,0.71106
-1.82953,0.706482
-1.83716,0.706482
-1.85089,0.71106
-1.86005,0.712585
-1.8692,0.71106
-1.87836,0.706482
-1.88599,0.704956
-1.89819,0.708008
-1.9043,0.71106
-1.91498,0.709534
-1.92719,0.709534
-1.93481,0.708008
-1.94092,0.708008
-1.95313,0.709534
-1.96381,0.709534
-1.97296,0.706482
-1.98212,0.709534
-1.99432,0.709534
-2.005,0.71106
-2.01416,0.71106
-2.02179,0.704956
-2.03247,0.708008
-2.04163,0.704956
-2.05231,0.71106
-2.05841,0.709534
-2.06757,0.704956
-2.0752,0.708008
-2.08282,0.71106
-2.09045,0.71106
-2.09808,0.709534
-2.10419,0.706482
-2.11029,0.712585
-2.11639,0.708008
-2.12402,0.712585
-2.13318,0.708008
-2.14081,0.708008
-2.14081,0.709534
-2.15302,0.71106
-2.15759,0.712585
-2.16217,0.709534
-2.1698,0.706482
-2.17896,0.709534
-2.18353,0.712585
-2.19116,0.712585
-2.19879,0.708008
-2.2049,0.708008
-2.21252,0.709534
-2.2171,0.71106
-2.22473,0.712585
-2.22473,0.708008
-2.23083,0.71106
-2.23236,0.71106
-2.22931,0.712585
-2.22626,0.709534
-2.21863,0.708008
-2.2049,0.708008
-2.18658,0.71106
-2.16217,0.71106
-2.13165,0.712585
-2.09351,0.706482
-2.05536,0.706482
-2.01263,0.708008
-1.96991,0.714111
-1.92108,0.712585
-1.87531,0.708008
-1.82953,0.708008
-1.78528,0.71106
-1.75018,0.71106
-1.71051,0.71106
-1.68152,0.706482
-1.6449,0.709534
-1.61896,0.71106
-1.5976,0.712585
-1.57471,0.712585
-1.55792,0.708008
-1.54419,0.709534
-1.53198,0.71106
-1.52435,0.71106
-1.51825,0.71106
-1.5152,0.708008
-1.51367,0.709534
-1.51215,0.712585
-1.51215,0.709534
-1.51825,0.71106
-1.51672,0.706482
-1.52588,0.71106
-1.53198,0.714111
-1.53809,0.71106
-1.54724,0.709534
-1.5564,0.71106
-1.56403,0.71106
-1.57318,0.71106
-1.58844,0.712585
-1.59302,0.715637
-1.60522,0.706482
-1.61743,0.708008
-1.62811,0.71106
-1.63879,0.712585
-1.65253,0.71106
-1.65863,0.708008
-1.67084,0.706482
-1.68152,0.714111
-1.69373,0.715637
-1.70746,0.71106
-1.71661,0.709534
-1.73187,0.71106
-1.74255,0.714111
-1.75323,0.714111
-1.76697,0.714111
-1.77612,0.71106
-1.78833,0.71106
-1.80054,0.715637
-1.80969,0.71106
-1.81885,0.712585
-1.82495,0.71106
-1.83716,0.709534
-1.84479,0.714111
-1.84937,0.714111
-1.85547,0.712585
-1.85852,0.71106
-1.8631,0.712585
-1.86157,0.709534
-1.86462,0.712585
-1.86615,0.714111
-1.86768,0.714111
-1.86615,0.71106
-1.8631,0.712585
-1.86157,0.714111
-1.86157,0.714111
-1.85699,0.709534
-1.85394,0.712585
-1.84937,0.715637
-1.84784,0.718689
-1.84631,0.712585
-1.84021,0.71106
-1.83868,0.71106
-1.83868,0.715637
-1.83716,0.720215
-1.83563,0.714111
-1.83563,0.714111
-1.83411,0.71106
-1.83563,0.718689
-1.83868,0.715637
-1.84326,0.712585
-1.84479,0.715637
-1.84784,0.712585
-1.85242,0.717163
-1.85852,0.718689
-1.86462,0.714111
-1.8692,0.715637
-1.87836,0.714111
-1.88293,0.715637
-1.88751,0.717163
-1.89667,0.714111
-1.9043,0.712585
-1.91498,0.712585
-1.92261,0.717163
-1.93024,0.718689
-1.93939,0.717163
-1.94855,0.712585
-1.9577,0.709534
-1.96228,0.717163
-1.97296,0.721741
-1.98212,0.71106
-1.98822,0.712585
-1.99738,0.712585
-2.00653,0.717163
-2.01721,0.720215
-2.02637,0.715637
-2.03552,0.717163
-2.04468,0.71106
-2.04926,0.717163
-2.05841,0.718689
-2.06757,0.715637
-2.07367,0.717163
-2.08435,0.71106
-2.09198,0.717163
-2.09808,0.720215
-2.10724,0.714111
-2.11639,0.715637
-2.12708,0.714111
-2.13013,0.718689
-2.13623,0.714111
-2.14386,0.717163
-2.15302,0.714111
-2.15759,0.714111
-2.16827,0.720215
-2.17438,0.718689
-2.18201,0.714111
-2.18811,0.717163
-2.19421,0.717163
-2.20184,0.715637
-2.20947,0.714111
-2.21252,0.717163
-2.22015,0.717163
-2.22321,0.715637
-2.22778,0.718689
-2.22778,0.715637
-2.22626,0.715637
-2.22473,0.718689
-2.21863,0.715637
-2.20947,0.718689
-2.19421,0.718689
-2.17133,0.717163
-2.14844,0.718689
-2.11029,0.715637
-2.07367,0.718689
-2.03705,0.718689
-1.99432,0.718689
-1.94397,0.718689
-1.90125,0.715637
-1.85242,0.717163
-1.81274,0.718689
-1.77155,0.718689
-1.73645,0.720215
-1.70288,0.715637
-1.66779,0.718689
-1.63727,0.720215
-1.61743,0.714111
-1.59302,0.720215
-1.57776,0.717163
-1.56403,0.717163
-1.55029,0.717163
-1.53809,0.715637
-1.53351,0.721741
-1.52893,0.717163
-1.52435,0.721741
-1.52435,0.717163
-1.52283,0.715637
-1.52588,0.720215
-1.52893,0.715637
-1.53503,0.720215
-1.53809,0.721741
-1.54419,0.715637
-1.55182,0.720215
-1.55945,0.718689
-1.57013,0.718689
-1.57776,0.720215
-1.58844,0.712585
-1.59607,0.718689
-1.60828,0.718689
-1.61896,0.723267
-1.62964,0.720215
-1.63879,0.715637
-1.651,0.720215
-1.66626,0.720215
-1.67542,0.720215
-1.68915,0.721741
-1.69983,0.712585
-1.71204,0.721741
-1.72424,0.717163
-1.73645,0.720215
-1.75018,0.720215
-1.76239,0.714111
-1.77307,0.720215
-1.78833,0.718689
-1.80359,0.723267
-1.81274,0.721741
-1.82648,0.715637
-1.83411,0.720215
-1.84479,0.721741
-1.85242,0.720215
-1.86157,0.718689
-1.87225,0.714111
-1.87683,0.717163
-1.88293,0.721741
-1.88599,0.721741
-1.89209,0.718689
-1.89514,0.717163
-1.89667,0.723267
-1.89819,0.720215
-1.89667,0.720215
-1.89819,0.720215
-1.89667,0.714111
-1.89667,0.723267
-1.89514,0.721741
-1.89056,0.723267
-1.89209,0.720215
-1.89056,0.717163
-1.88599,0.721741
-1.88751,0.718689
-1.88904,0.720215
-1.88293,0.720215
-1.88293,0.723267
-1.88293,0.721741
-1.88446,0.720215
-1.88751,0.721741
-1.88751,0.718689
-1.88904,0.720215
-1.89209,0.723267
-1.89209,0.720215
-1.89819,0.718689
-1.90125,0.724792
-1.90582,0.723267
-1.91193,0.723267
-1.91803,0.724792
-1.92261,0.720215
-1.92871,0.720215
-1.93481,0.724792
-1.94092,0.720215
-1.94855,0.723267
-1.9516,0.718689
-1.9577,0.723267
-1.96533,0.724792
-1.97601,0.724792
-1.98059,0.720215
-1.98975,0.720215
-1.99585,0.718689
-2.00348,0.726318
-2.00958,0.724792
-2.02026,0.721741
-2.02942,0.718689
-2.03705,0.721741
-2.04163,0.726318
-2.04926,0.723267
-2.05994,0.723267
-2.06604,0.721741
-2.07672,0.723267
-2.08282,0.727844
-2.08893,0.721741
-2.10114,0.723267
-2.10724,0.721741
-2.11792,0.723267
-2.12097,0.726318
-2.1286,0.721741
-2.13318,0.723267
-2.14233,0.720215
-2.14844,0.723267
-2.15607,0.723267
-2.16522,0.720215
-2.1698,0.720215
-2.17743,0.721741
-2.18506,0.723267
-2.19269,0.726318
-2.19727,0.718689
-2.2049,0.721741
-2.21558,0.724792
-2.22168,0.721741
-2.22778,0.721741
-2.23541,0.721741
-2.23846,0.723267
-2.24762,0.720215
-2.25372,0.721741
-2.25525,0.721741
-2.25677,0.721741
-2.25677,0.721741
-2.24457,0.723267
-2.24152,0.723267
-2.22778,0.720215
-2.20947,0.721741
-2.18506,0.723267
-2.15302,0.721741
-2.11487,0.723267
-2.0752,0.723267
-2.02637,0.721741
-1.97601,0.721741
-1.92719,0.723267
-1.87378,0.720215
-1.82495,0.723267
-1.77612,0.720215
-1.73035,0.723267
-1.69373,0.721741
-1.65558,0.721741
-1.62201,0.720215
-1.59149,0.718689
-1.56403,0.721741
-1.54266,0.721741
-1.52435,0.724792
-1.51062,0.721741
-1.49384,0.721741
-1.48468,0.720215
-1.474,0.721741
-1.46942,0.724792
-1.46637,0.723267
-1.46637,0.718689
-1.46027,0.723267
-1.46332,0.720215
-1.46637,0.723267
-1.46942,0.723267
-1.47552,0.721741
-1.4801,0.721741
-1.48315,0.721741
-1.49384,0.724792
-1.49689,0.723267
-1.50909,0.718689
-1.51367,0.723267
-1.52588,0.721741
-1.53198,0.723267
-1.53961,0.724792
-1.54877,0.718689
-1.55792,0.724792
-1.5686,0.723267
-1.57623,0.727844
-1.58844,0.724792
-1.59454,0.717163
-1.60828,0.724792
-1.61743,0.721741
-1.62354,0.721741
-1.63574,0.721741
-1.64948,0.718689
-1.66016,0.724792
-1.66779,0.723267
-1.68152,0.720215
-1.68915,0.720215
-1.70135,0.720215
-1.70898,0.724792
-1.71967,0.721741
-1.73187,0.723267
-1.74103,0.720215
-1.74713,0.720215
-1.75476,0.723267
-1.76392,0.723267
-1.77002,0.721741
-1.77612,0.718689
-1.78223,0.718689
-1.78528,0.723267
-1.78986,0.721741
-1.79291,0.727844
-1.79596,0.717163
-1.79749,0.720215
-1.79596,0.724792
-1.79596,0.723267
-1.79749,0.726318
-1.79749,0.717163
-1.79596,0.720215
-1.79291,0.726318
-1.79138,0.721741
-1.79138,0.724792
-1.79138,0.717163
-1.78833,0.721741
-1.78833,0.723267
-1.78986,0.721741
-1.78986,0.723267
-1.78986,0.717163
-1.78986,0.724792
-1.79138,0.721741
-1.79749,0.723267
-1.79749,0.723267
-1.79901,0.715637
-1.80359,0.723267
-1.80817,0.724792
-1.81427,0.721741
-1.82037,0.726318
-1.82495,0.718689
-1.82953,0.720215
-1.83563,0.723267
-1.84174,0.721741
-1.84937,0.724792
-1.86005,0.718689
-1.86462,0.718689
-1.87378,0.723267
-1.88141,0.720215
-1.89056,0.723267
-1.89819,0.715637
-1.9104,0.721741
-1.91345,0.723267
-1.92566,0.721741
-1.93329,0.723267
-1.94092,0.717163
-1.94855,0.718689
-1.9577,0.723267
-1.96838,0.720215
-1.97601,0.723267
-1.98822,0.715637
-1.9928,0.723267
-2.00195,0.723267
-2.01111,0.721741
-2.02179,0.724792
-2.03094,0.720215
-2.0401,0.720215
-2.0462,0.723267
-2.05536,0.721741
-2.06451,0.723267
-2.07062,0.718689
-2.07672,0.720215
-2.08588,0.721741
-2.09198,0.721741
-2.10419,0.720215
-2.11029,0.720215
-2.11334,0.720215
-2.1225,0.723267
-2.1286,0.723267
-2.13928,0.718689
-2.14691,0.718689
-2.15302,0.718689
-2.15759,0.723267
-2.16827,0.721741
-2.17438,0.724792
-2.18048,0.717163
-2.18506,0.721741
-2.18964,0.721741
-2.19421,0.720215
-2.19269,0.726318
-2.19116,0.720215
-2.18048,0.723267
-2.17743,0.723267
-2.16064,0.720215
-2.13623,0.721741
-2.11029,0.718689
-2.07672,0.721741
-2.03857,0.723267
-1.99585,0.723267
-1.95007,0.724792
-1.90277,0.718689
-1.85547,0.720215
-1.80969,0.721741
-1.76544,0.723267
-1.72729,0.721741
-1.68915,0.718689
-1.65253,0.723267
-1.62201,0.723267
-1.58997,0.721741
-1.5686,0.723267
-1.54419,0.721741
-1.52588,0.721741
-1.50757,0.723267
-1.49078,0.721741
-1.48315,0.721741
-1.474,0.720215
-1.46637,0.721741
-1.46332,0.724792
-1.46027,0.721741
-1.45721,0.723267
-1.45874,0.724792
-1.46332,0.724792
-1.4679,0.720215
-1.47247,0.721741
-1.47705,0.721741
-1.48468,0.724792
-1.48773,0.721741
-1.49841,0.724792
-1.50909,0.723267
-1.5152,0.721741
-1.5213,0.723267
-1.53351,0.723267
-1.53809,0.724792
-1.55029,0.723267
-1.5564,0.723267
-1.56708,0.723267
-1.57471,0.724792
-1.58234,0.726318
-1.58997,0.724792
-1.60065,0.723267
-1.6098,0.723267
-1.61896,0.720215
-1.62659,0.723267
-1.63574,0.724792
-1.64642,0.720215
-1.65405,0.723267
-1.66473,0.723267
-1.67236,0.723267
-1.68457,0.723267
-1.6922,0.726318
-1.70135,0.724792
-1.70898,0.723267
-1.71661,0.721741
-1.72577,0.723267
-1.73187,0.724792
-1.74103,0.726318
-1.74408,0.720215
-1.75171,0.723267
-1.75781,0.723267
-1.75934,0.723267
-1.76392,0.726318
-1.76544,0.724792
-1.76697,0.721741
-1.76697,0.721741
-1.76849,0.723267
-1.76849,0.726318
-1.76849,0.723267
-1.76849,0.724792
-1.76697,0.723267
-1.76544,0.724792
-1.76392,0.724792
-1.76239,0.721741
-1.76086,0.724792
-1.75934,0.723267
-1.76086,0.724792
-1.76239,0.726318
-1.76392,0.723267
-1.76086,0.723267
-1.76086,0.723267
-1.76544,0.724792
-1.76849,0.72937
-1.77002,0.724792
-1.7746,0.724792
-1.77765,0.724792
-1.7807,0.723267
-1.78528,0.732422
-1.79291,0.723267
-1.80054,0.724792
-1.80664,0.721741
-1.81122,0.723267
-1.81732,0.72937
-1.82495,0.726318
-1.82953,0.723267
-1.83716,0.723267
-1.84631,0.721741
-1.85242,0.726318
-1.86005,0.721741
-1.8692,0.724792
-1.87988,0.726318
-1.88446,0.721741
-1.89362,0.726318
-1.89972,0.718689
-1.90582,0.724792
-1.9165,0.721741
-1.92413,0.726318
-1.93024,0.732422
-1.93939,0.721741
-1.94855,0.726318
-1.9577,0.724792
-1.96228,0.723267
-1.97296,0.727844
-1.97906,0.720215
-1.98975,0.724792
-1.99585,0.726318
-2.00653,0.723267
-2.01416,0.727844
-2.02026,0.723267
-2.02942,0.723267
-2.03705,0.726318
-2.04163,0.724792
-2.04926,0.726318
-2.05841,0.723267
-2.06909,0.726318
-2.0752,0.721741
-2.0813,0.723267
-2.0874,0.727844
-2.09808,0.723267
-2.10571,0.726318
-2.10876,0.724792
-2.11792,0.723267
-2.12555,0.726318
-2.13165,0.723267
-2.13928,0.724792
-2.14233,0.723267
-2.14996,0.723267
-2.15607,0.724792
-2.16217,0.723267
-2.16827,0.724792
-2.17285,0.724792
-2.17896,0.726318
-2.17896,0.724792
-2.18048,0.724792
-2.18048,0.724792
-2.17285,0.721741
-2.16217,0.723267
-2.15149,0.721741
-2.13318,0.721741
-2.10724,0.726318
-2.0752,0.724792
-2.04163,0.723267
-2.00348,0.724792
-1.96075,0.723267
-1.91345,0.727844
-1.86615,0.723267
-1.82343,0.727844
-1.77765,0.727844
-1.7334,0.726318
-1.69983,0.724792
-1.66321,0.724792
-1.63116,0.726318
-1.5976,0.724792
-1.57776,0.723267
-1.55182,0.726318
-1.53351,0.723267
-1.5152,0.723267
-1.50299,0.724792
-1.49078,0.721741
-1.48163,0.723267
-1.47552,0.723267
-1.47705,0.724792
-1.47247,0.724792
-1.47552,0.721741
-1.474,0.724792
-1.4801,0.723267
-1.48468,0.724792
-1.49078,0.723267
-1.49536,0.721741
-1.50146,0.724792
-1.51062,0.723267
-1.5152,0.723267
-1.52435,0.723267
-1.53198,0.723267
-1.54266,0.723267
-1.54877,0.720215
-1.55792,0.721741
-1.56708,0.721741
-1.57471,0.723267
-1.58691,0.724792
-1.59607,0.723267
-1.60675,0.724792
-1.61438,0.721741
-1.62659,0.721741
-1.63727,0.724792
-1.64642,0.721741
-1.6571,0.721741
-1.66931,0.721741
-1.67694,0.721741
-1.69067,0.721741
-1.69983,0.723267
-1.71204,0.726318
-1.72272,0.721741
-1.73035,0.724792
-1.7395,0.726318
-1.75018,0.723267
-1.76239,0.726318
-1.76697,0.720215
-1.77612,0.724792
-1.78223,0.723267
-1.78833,0.723267
-1.79749,0.727844
-1.79901,0.720215
-1.80054,0.724792
-1.80206,0.720215
-1.80511,0.724792
-1.80511,0.724792
-1.80817,0.718689
-1.80664,0.723267
-1.80511,0.723267
-1.80359,0.724792
-1.80206,0.727844
-1.79901,0.720215
-1.79596,0.723267
-1.79749,0.721741
-1.79138,0.724792
-1.79138,0.727844
-1.78986,0.723267
-1.78986,0.723267
-1.79138,0.726318
-1.78986,0.723267
-1.78986,0.72937
-1.79138,0.720215
-1.79291,0.723267
-1.79291,0.723267
-1.79901,0.724792
-1.80054,0.726318
-1.80206,0.720215
-1.80817,0.721741
-1.81274,0.723267
-1.81732,0.724792
-1.8219,0.727844
-1.82953,0.720215
-1.83105,0.723267
-1.84021,0.724792
-1.84784,0.723267
-1.85089,0.724792
-1.85699,0.720215
-1.86157,0.727844
-1.86768,0.724792
-1.87836,0.720215
-1.88141,0.724792
-1.89362,0.718689
-1.89667,0.723267
-1.90735,0.724792
-1.9165,0.723267
-1.92413,0.724792
-1.93024,0.715637
-1.94092,0.721741
-1.95007,0.726318
-1.95618,0.723267
-1.96533,0.721741
-1.97296,0.721741
-1.98059,0.723267
-1.99127,0.724792
-1.9989,0.723267
-2.00348,0.720215
-2.01569,0.721741
-2.01721,0.726318
-2.03094,0.723267
-2.03552,0.723267
-2.04315,0.717163
-2.05231,0.718689
-2.05688,0.724792
-2.06451,0.727844
-2.07214,0.721741
-2.07977,0.721741
-2.08282,0.718689
-2.08893,0.723267
-2.09503,0.726318
-2.10571,0.723267
-2.11029,0.718689
-2.11334,0.720215
-2.11945,0.723267
-2.1286,0.721741
-2.13623,0.723267
-2.14386,0.715637
-2.15302,0.718689
-2.15607,0.723267
-2.1637,0.724792
-2.1698,0.723267
-2.17743,0.715637
-2.18201,0.720215
-2.18658,0.724792
-2.19269,0.724792
-2.19116,0.723267
-2.19116,0.715637
-2.18353,0.720215
-2.17743,0.724792
-2.1637,0.724792
-2.14386,0.723267
-2.11487,0.715637
-2.08435,0.721741
-2.04773,0.723267
-2.00806,0.721741
-1.96381,0.723267
-1.92261,0.717163
-1.87531,0.718689
-1.83411,0.726318
-1.78833,0.724792
-1.75018,0.724792
-1.71356,0.717163
-1.6861,0.720215
-1.64948,0.723267
-1.62354,0.723267
-1.59607,0.721741
-1.57776,0.715637
-1.56097,0.720215
-1.54419,0.721741
-1.53656,0.726318
-1.52283,0.723267
-1.51367,0.717163
-1.51367,0.724792
-1.51215,0.723267
-1.50757,0.721741
-1.50757,0.723267
-1.50757,0.720215
-1.5152,0.720215
-1.51978,0.724792
-1.52588,0.724792
-1.53351,0.721741
-1.54114,0.717163
-1.54877,0.721741
-1.5564,0.724792
-1.56403,0.721741
-1.57623,0.724792
-1.58539,0.718689
-1.59454,0.720215
-1.60522,0.723267
-1.61896,0.724792
-1.62811,0.723267
-1.63574,0.723267
-1.64795,0.723267
-1.6571,0.721741
-1.66473,0.721741
-1.67542,0.720215
-1.68457,0.720215
-1.6983,0.718689
-1.70593,0.721741
-1.71967,0.723267
-1.72882,0.723267
-1.74103,0.721741
-1.75171,0.721741
-1.76086,0.723267
-1.77002,0.723267
-1.78223,0.721741
-1.7868,0.721741
-1.79749,0.723267
-1.80511,0.724792
-1.81122,0.723267
-1.81732,0.721741
-1.82343,0.721741
-1.83105,0.723267
-1.83563,0.720215
-1.83868,0.721741
-1.84021,0.721741
-1.84479,0.721741
-1.84631,0.721741
-1.84631,0.723267
-1.84631,0.720215
-1.84784,0.721741
-1.84326,0.721741
-1.84174,0.723267
-1.84174,0.721741
-1.84174,0.721741
-1.83716,0.723267
-1.83716,0.720215
-1.83411,0.724792
-1.83411,0.721741
-1.82953,0.720215
-1.82648,0.720215
-1.82648,0.721741
-1.82495,0.723267
-1.82648,0.724792
-1.82495,0.720215
-1.828,0.721741
-1.82953,0.721741
-1.83411,0.723267
-1.83868,0.721741
-1.84326,0.720215
-1.84784,0.721741
-1.85394,0.721741
-1.85699,0.721741
-1.86005,0.723267
-1.8692,0.723267
-1.87531,0.721741
-1.87836,0.723267
-1.88751,0.721741
-1.89362,0.721741
-1.90125,0.721741
-1.90735,0.720215
-1.91803,0.724792
-1.92108,0.723267
-1.93024,0.723267
-1.93329,0.720215
-1.94244,0.721741
-1.95007,0.723267
-1.9577,0.721741
-1.96686,0.724792
-1.97449,0.723267
-1.98059,0.721741
-1.98975,0.721741
-1.99738,0.723267
-2.00653,0.723267
-2.01416,0.720215
-2.02026,0.720215
-2.02942,0.726318
-2.03705,0.723267
-2.04163,0.720215
-2.05078,0.721741
-2.05841,0.723267
-2.06451,0.724792
-2.0752,0.724792
-2.07977,0.723267
-2.08588,0.723267
-2.09198,0.724792
-2.10114,0.720215
-2.10876,0.720215
-2.11487,0.723267
-2.12097,0.721741
-2.12402,0.721741
-2.13165,0.721741
-2.14081,0.723267
-2.14844,0.721741
-2.15607,0.723267
-2.1637,0.718689
-2.16827,0.720215
-2.17438,0.724792
-2.18353,0.723267
-2.18658,0.721741
-2.19269,0.721741
-2.19421,0.721741
-2.19421,0.720215
-2.18964,0.721741
-2.18658,0.721741
-2.18201,0.720215
-2.17133,0.717163
-2.14844,0.720215
-2.12402,0.720215
-2.09656,0.723267
-2.06451,0.720215
-2.02484,0.721741
-1.98669,0.723267
-1.94397,0.720215
-1.90125,0.721741
-1.86005,0.721741
-1.81885,0.720215
-1.78375,0.718689
-1.74866,0.724792
-1.71661,0.720215
-1.69067,0.720215
-1.66168,0.723267
-1.64032,0.720215
-1.62201,0.720215
-1.60675,0.721741
-1.58997,0.720215
-1.57928,0.724792
-1.57013,0.721741
-1.5625,0.721741
-1.55792,0.724792
-1.55334,0.720215
-1.55487,0.723267
-1.55487,0.723267
-1.55792,0.718689
-1.55945,0.718689
-1.56708,0.721741
-1.57623,0.720215
-1.58081,0.721741
-1.58691,0.720215
-1.59454,0.720215
-1.60217,0.721741
-1.61438,0.724792
-1.62201,0.723267
-1.63422,0.720215
-1.6449,0.721741
-1.64948,0.721741
-1.66168,0.718689
-1.67389,0.717163
-1.68457,0.720215
-1.69373,0.720215
-1.70288,0.720215
-1.71509,0.718689
-1.72577,0.723267
-1.7395,0.718689
-1.75018,0.720215
-1.76697,0.718689
-1.7746,0.721741
-1.78986,0.723267
-1.80054,0.718689
-1.81274,0.723267
-1.82648,0.718689
-1.83411,0.720215
-1.84631,0.720215
-1.85394,0.724792
-1.86157,0.720215
-1.87378,0.718689
-1.87836,0.720215
-1.88751,0.723267
-1.89514,0.721741
-1.89514,0.723267
-1.90125,0.720215
-1.9043,0.720215
-1.90582,0.718689
-1.90735,0.718689
-1.91345,0.721741
-1.91193,0.718689
-1.91345,0.720215
-1.90735,0.717163
-1.9043,0.720215
-1.90277,0.718689
-1.89972,0.721741
-1.89667,0.720215
-1.89056,0.720215
-1.88904,0.715637
-1.88599,0.720215
-1.88446,0.723267
-1.88141,0.717163
-1.88141,0.720215
-1.87836,0.718689
-1.88141,0.718689
-1.87836,0.721741
-1.87836,0.720215
-1.87988,0.720215
-1.87988,0.718689
-1.88141,0.718689
-1.88599,0.718689
-1.88751,0.720215
-1.89056,0.718689
-1.89667,0.718689
-1.90125,0.718689
-1.9043,0.720215
-1.91345,0.720215
-1.91498,0.720215
-1.92261,0.717163
-1.92719,0.720215
-1.93481,0.720215
-1.94092,0.718689
-1.94855,0.717163
-1.9577,0.720215
-1.96228,0.723267
-1.96991,0.721741
-1.97906,0.720215
-1.98669,0.720215
-1.99432,0.717163
-2.00195,0.720215
-2.00806,0.720215
-2.01569,0.717163
-2.02179,0.718689
-2.02942,0.720215
-2.03705,0.721741
-2.0462,0.720215
-2.05231,0.718689
-2.05536,0.717163
-2.06757,0.720215
-2.07367,0.720215
-2.0813,0.720215
-2.0874,0.720215
-2.09503,0.720215
-2.10266,0.715637
-2.11182,0.721741
-2.11792,0.723267
-2.12555,0.718689
-2.13318,0.717163
-2.14386,0.718689
-2.14996,0.720215
-2.15759,0.720215
-2.16522,0.718689
-2.17133,0.717163
-2.17896,0.720215
-2.18506,0.721741
-2.18964,0.721741
-2.19879,0.714111
-2.20184,0.718689
-2.20337,0.717163
-2.19879,0.720215
-2.19574,0.717163
-2.18811,0.717163
-2.17133,0.721741
-2.15607,0.715637
-2.13318,0.718689
-2.10571,0.720215
-2.07214,0.720215
-2.034,0.718689
-1.99127,0.718689
-1.9455,0.718689
-1.9043,0.718689
-1.8631,0.720215
-1.82037,0.717163
-1.78223,0.718689
-1.74866,0.717163
-1.71967,0.720215
-1.6861,0.717163
-1.66168,0.720215
-1.63574,0.717163
-1.61896,0.717163
-1.5976,0.718689
-1.58234,0.717163
-1.57166,0.720215
-1.56097,0.715637
-1.55182,0.718689
-1.54724,0.717163
-1.54266,0.717163
-1.54419,0.720215
-1.54114,0.717163
-1.54724,0.717163
-1.54724,0.720215
-1.55182,0.718689
-1.5564,0.720215
-1.56403,0.715637
-1.57013,0.718689
-1.58081,0.718689
-1.58539,0.717163
-1.59454,0.721741
-1.60522,0.714111
-1.61438,0.718689
-1.62354,0.717163
-1.63269,0.717163
-1.64032,0.723267
-1.65253,0.717163
-1.66168,0.717163
-1.66931,0.718689
-1.68152,0.715637
-1.69525,0.720215
-1.70746,0.715637
-1.71661,0.718689
-1.73035,0.717163
-1.74103,0.717163
-1.75018,0.721741
-1.76544,0.717163
-1.77765,0.717163
-1.78986,0.718689
-1.80054,0.718689
-1.80969,0.721741
-1.82037,0.717163
-1.83411,0.720215
-1.84326,0.718689
-1.85242,0.717163
-1.85852,0.721741
-1.86768,0.717163
-1.87531,0.717163
-1.87683,0.720215
-1.88293,0.717163
-1.88599,0.720215
-1.89056,0.712585
-1.88904,0.715637
-1.89209,0.718689
-1.89209,0.718689
-1.89362,0.718689
-1.89056,0.715637
-1.88904,0.720215
-1.88751,0.718689
-1.88599,0.715637
-1.88293,0.718689
-1.87988,0.714111
-1.87988,0.720215
-1.87836,0.717163
-1.87225,0.715637
-1.87531,0.718689
-1.87225,0.712585
-1.8692,0.717163
-1.8692,0.721741
-1.86768,0.714111
-1.86768,0.718689
-1.87378,0.717163
-1.87378,0.720215
-1.87378,0.721741
-1.88141,0.714111
-1.87988,0.718689
-1.88446,0.718689
-1.88904,0.718689
-1.89514,0.721741
-1.89819,0.718689
-1.90582,0.718689
-1.9104,0.714111
-1.91193,0.712585
-1.92261,0.723267
-1.92719,0.715637
-1.93329,0.718689
-1.93634,0.714111
-1.9455,0.717163
-1.95313,0.723267
-1.95923,0.717163
-1.96991,0.718689
-1.97754,0.714111
-1.98059,0.717163
-1.98822,0.723267
-1.99738,0.714111
-2.00348,0.718689
-2.01111,0.717163
-2.01721,0.717163
-2.02942,0.726318
-2.034,0.715637
-2.04468,0.717163
-2.05383,0.715637
-2.05994,0.714111
-2.06909,0.723267
-2.07672,0.714111
-2.0813,0.718689
-2.09045,0.714111
-2.09656,0.715637
-2.10724,0.726318
-2.11334,0.718689
-2.11945,0.717163
-2.1286,0.717163
-2.13623,0.715637
-2.14233,0.726318
-2.14996,0.715637
-2.15607,0.720215
-2.1637,0.717163
-2.1698,0.718689
-2.17896,0.727844
-2.18811,0.717163
-2.19269,0.717163
-2.19879,0.715637
-2.20337,0.714111
-2.20795,0.726318
-2.20795,0.714111
-2.20947,0.720215
-2.20642,0.714111
-2.20032,0.715637
-2.19269,0.720215
-2.17133,0.718689
-2.15149,0.718689
-2.12402,0.717163
-2.09045,0.718689
-2.04926,0.724792
-2.00806,0.717163
-1.95923,0.717163
-1.90582,0.714111
-1.85852,0.717163
-1.80969,0.721741
-1.76544,0.714111
-1.72424,0.714111
-1.68457,0.714111
-1.6449,0.717163
-1.61133,0.721741
-1.58081,0.717163
-1.55334,0.717163
-1.53198,0.71106
-1.51367,0.718689
-1.49384,0.721741
-1.4801,0.715637
-1.4679,0.715637
-1.46027,0.717163
-1.44958,0.715637
-1.44653,0.717163
-1.44348,0.715637
-1.44348,0.717163
-1.44501,0.712585
-1.44653,0.715637
-1.45264,0.715637
-1.45874,0.715637
-1.4679,0.714111
-1.474,0.712585
-1.48163,0.714111
-1.49231,0.712585
-1.49841,0.712585
-1.50452,0.715637
-1.51367,0.714111
-1.52588,0.715637
-1.53503,0.712585
-1.54419,0.715637
-1.55029,0.714111
-1.56403,0.717163
-1.57013,0.714111
-1.58081,0.71106
-1.59149,0.712585
-1.60065,0.715637
-1.61133,0.717163
-1.62201,0.712585
-1.63269,0.709534
-1.64032,0.718689
-1.6571,0.715637
-1.66473,0.715637
-1.67542,0.714111
-1.6861,0.709534
-1.69525,0.717163
-1.70593,0.718689
-1.71356,0.717163
-1.72424,0.714111
-1.73035,0.712585
-1.73645,0.714111
-1.74561,0.714111
-1.75171,0.714111
-1.75476,0.714111
-1.76392,0.708008
-1.76697,0.714111
-1.76849,0.71106
-1.77307,0.715637
-1.77155,0.715637
-1.77307,0.708008
-1.7746,0.712585
-1.7746,0.712585
-1.77002,0.714111
-1.77002,0.712585
-1.76697,0.709534
-1.76239,0.718689
-1.76392,0.712585
-1.76086,0.714111
-1.75934,0.717163
-1.75781,0.704956
-1.75476,0.714111
-1.75171,0.712585
-1.75476,0.712585
-1.75781,0.714111
-1.75781,0.70343
-1.75781,0.712585
-1.75781,0.714111
-1.75934,0.71106
-1.76392,0.715637
-1.76239,0.701904
-1.77002,0.714111
-1.77765,0.712585
-1.78223,0.71106
-1.7868,0.717163
-1.79138,0.708008
-1.79596,0.712585
-1.80206,0.71106
-1.80664,0.714111
-1.81427,0.717163
-1.82343,0.704956
-1.83105,0.714111
-1.83868,0.71106
-1.84784,0.712585
-1.85242,0.714111
-1.85852,0.706482
-1.86462,0.712585
-1.87683,0.712585
-1.88751,0.714111
-1.89209,0.714111
-1.89972,0.70343
-1.91193,0.71106
-1.91803,0.714111
-1.92566,0.714111
-1.93176,0.714111
-1.93939,0.70343
-1.9516,0.714111
-1.95465,0.712585
-1.96228,0.714111
-1.97296,0.71106
-1.97754,0.704956
-1.98975,0.714111
-1.99585,0.712585
-2.005,0.714111
-2.01111,0.712585
-2.01874,0.706482
-2.02942,0.714111
-2.034,0.714111
-2.03857,0.71106
-2.04773,0.712585
-2.05688,0.70343
-2.06299,0.71106
-2.07062,0.71106
-2.08282,0.709534
-2.0813,0.714111
-2.08893,0.704956
-2.09808,0.714111
-2.10571,0.709534
-2.10876,0.715637
-2.11792,0.709534
-2.12097,0.706482
-2.12402,0.712585
-2.12708,0.712585
-2.1286,0.714111
-2.12402,0.714111
-2.11639,0.706482
-2.10419,0.715637
-2.08588,0.712585
-2.06451,0.712585
-2.03857,0.714111
-2.00195,0.70343
-1.95923,0.71106
-1.9165,0.709534
-1.87225,0.71106
-1.82037,0.709534
-1.77917,0.706482
-1.7334,0.715637
-1.6922,0.714111
-1.65558,0.709534
-1.61591,0.71106
-1.58539,0.708008
-1.55334,0.715637
-1.52893,0.71106
-1.50757,0.712585
-1.48315,0.714111
-1.4679,0.706482
-1.45721,0.714111
-1.44043,0.71106
-1.42975,0.71106
-1.42059,0.71106
-1.42059,0.708008
-1.41144,0.714111
-1.40839,0.714111
-1.41449,0.714111
-1.41754,0.71106
-1.41907,0.71106
-1.42365,0.714111
-1.42975,0.712585
-1.43433,0.71106
-1.44043,0.71106
-1.44653,0.708008
-1.45569,0.714111
-1.46179,0.712585
-1.47095,0.71106
-1.47858,0.71106
-1.49078,0.706482
-1.49689,0.714111
-1.50604,0.71106
-1.51367,0.712585
-1.5213,0.712585
-1.53351,0.708008
-1.54114,0.714111
-1.54877,0.714111
-1.55945,0.71106
-1.57013,0.706482
-1.57928,0.708008
-1.58691,0.712585
-1.59912,0.709534
-1.60828,0.712585
-1.62048,0.709534
-1.62964,0.709534
-1.63727,0.712585
-1.64948,0.712585
-1.65863,0.71106
-1.66321,0.709534
-1.67084,0.708008
-1.68152,0.71106
-1.68762,0.712585
-1.69525,0.71106
-1.70288,0.706482
-1.71051,0.709534
-1.71204,0.71106
-1.71509,0.712585
-1.72119,0.71106
-1.72729,0.71106
-1.72424,0.709534
-1.72577,0.714111
-1.72729,0.712585
-1.72424,0.71106
-1.72272,0.709534
-1.72424,0.708008
-1.72119,0.71106
-1.71967,0.712585
-1.71661,0.71106
-1.71051,0.709534
-1.71356,0.712585
-1.71509,0.71106
-1.70746,0.71106
-1.70746,0.71106
-1.71051,0.708008
-1.71051,0.712585
-1.71509,0.71106
-1.71356,0.712585
-1.71661,0.708008
-1.71661,0.706482
-1.72424,0.71106
-1.72729,0.709534
-1.73187,0.71106
-1.73492,0.709534
-1.74103,0.709534
-1.74561,0.709534
-1.75018,0.709534
-1.75781,0.709534
-1.76239,0.71106
-1.77155,0.708008
-1.77612,0.712585
-1.7868,0.712585
-1.78833,0.712585
-1.79901,0.708008
-1.80817,0.708008
-1.8158,0.715637
-1.82037,0.712585
-1.83105,0.708008
-1.83716,0.708008
-1.84631,0.708008
-1.85547,0.712585
-1.86157,0.709534
-1.87225,0.709534
-1.87988,0.71106
-1.88751,0.706482
-1.89972,0.712585
-1.90735,0.712585
-1.91345,0.71106
-1.92261,0.708008
-1.93176,0.706482
-1.93939,0.71106
-1.95007,0.714111
-1.9577,0.71106
-1.96228,0.709534
-1.96991,0.709534
-1.98059,0.71106
-1.98975,0.712585
-1.99432,0.71106
-2.00348,0.706482
-2.005,0.708008
-2.01569,0.71106
-2.02179,0.71106
-2.03094,0.709534
-2.0401,0.708008
-2.04315,0.706482
-2.05078,0.714111
-2.05688,0.71106
-2.06757,0.71106
-2.0752,0.70343
-2.0813,0.709534
-2.0874,0.712585
-2.08893,0.714111
-2.10114,0.709534
-2.10419,0.709534
-2.11182,0.708008
-2.11639,0.712585
-2.11945,0.712585
-2.1225,0.709534
-2.12402,0.709534
-2.12402,0.706482
-2.12097,0.709534
-2.11334,0.712585
-2.10114,0.708008
-2.08282,0.708008
-2.06451,0.71106
-2.034,0.712585
-1.99585,0.712585
-1.96075,0.708008
-1.91498,0.709534
-1.86768,0.706482
-1.81885,0.712585
-1.77612,0.71106
-1.73035,0.709534
-1.68915,0.709534
-1.65253,0.706482
-1.61285,0.712585
-1.57928,0.712585
-1.55029,0.708008
-1.51978,0.708008
-1.49994,0.708008
-1.4801,0.712585
-1.46332,0.714111
-1.44806,0.708008
-1.43738,0.709534
-1.43127,0.706482
-1.42212,0.71106
-1.41754,0.71106
-1.41144,0.706482
-1.41449,0.704956
-1.41602,0.708008
-1.41602,0.71106
-1.42059,0.714111
-1.42517,0.708008
-1.43127,0.708008
-1.43738,0.709534
-1.44501,0.714111
-1.45416,0.712585
-1.46179,0.706482
-1.47095,0.706482
-1.4801,0.706482
-1.49231,0.71106
-1.49994,0.715637
-1.50757,0.708008
-1.51825,0.708008
-1.52893,0.708008
-1.53961,0.709534
-1.54877,0.714111
-1.56097,0.708008
-1.57013,0.706482
-1.57776,0.706482
-1.58997,0.709534
-1.59912,0.71106
-1.61133,0.704956
-1.62201,0.706482
-1.63116,0.708008
-1.6449,0.712585
-1.65863,0.71106
-1.66779,0.706482
-1.68152,0.709534
-1.69067,0.709534
-1.6983,0.708008
-1.70441,0.712585
-1.71356,0.708008
-1.72424,0.70343
-1.72729,0.709534
-1.73492,0.709534
-1.73645,0.71106
-1.74255,0.706482
-1.74408,0.709534
-1.74866,0.706482
-1.74866,0.704956
-1.74713,0.709534
-1.75018,0.706482
-1.75018,0.701904
-1.74866,0.706482
-1.75018,0.708008
-1.74561,0.71106
-1.74103,0.701904
-1.7395,0.708008
-1.74103,0.709534
-1.73645,0.709534
-1.73492,0.709534
-1.73798,0.70343
-1.73187,0.706482
-1.72882,0.709534
-1.72882,0.709534
-1.72882,0.709534
-1.7334,0.704956
-1.73187,0.70343
-1.7334,0.709534
-1.73492,0.706482
-1.74103,0.708008
-1.74255,0.70343
-1.74561,0.708008
-1.75476,0.708008
-1.75476,0.709534
-1.76239,0.708008
-1.76697,0.706482
-1.77307,0.701904
-1.77917,0.706482
-1.7807,0.706482
-1.78986,0.708008
-1.79749,0.700378
-1.80359,0.704956
-1.80969,0.709534
-1.81885,0.708008
-1.82495,0.708008
-1.82953,0.704956
-1.84174,0.709534
-1.84937,0.706482
-1.85852,0.708008
-1.86768,0.708008
-1.87531,0.70343
-1.88293,0.704956
-1.89056,0.706482
-1.89972,0.708008
-1.90582,0.708008
-1.91498,0.704956
-1.92413,0.700378
-1.92871,0.704956
-1.93634,0.706482
-1.94397,0.706482
-1.94855,0.706482
-1.9577,0.704956
-1.96533,0.706482
-1.97296,0.706482
-1.97906,0.709534
-1.98975,0.70343
-1.99585,0.701904
-1.9989,0.708008
-2.00806,0.704956
-2.01263,0.708008
-2.02484,0.70343
-2.02942,0.704956
-2.03094,0.706482
-2.04163,0.70343
-2.04468,0.708008
-2.05688,0.70343
-2.06299,0.704956
-2.06757,0.709534
-2.0752,0.704956
-2.07825,0.704956
-2.08282,0.70343
-2.09198,0.70343
-2.10266,0.706482
-2.10266,0.70343
-2.11334,0.708008
-2.11792,0.70343
-2.12097,0.70343
-2.1286,0.706482
-2.1347,0.700378
-2.14081,0.709534
-2.14233,0.708008
-2.14539,0.70343
-2.14233,0.704956
-2.13623,0.70343
-2.13013,0.708008
-2.1225,0.70343
-2.10571,0.700378
-2.08435,0.704956
-2.05383,0.701904
-2.02179,0.706482
-1.98822,0.701904
-1.94092,0.701904
-1.89819,0.704956
-1.85394,0.701904
-1.80969,0.708008
-1.76392,0.70343
-1.72272,0.700378
-1.68152,0.704956
-1.64337,0.70343
-1.6098,0.704956
-1.57776,0.701904
-1.55182,0.708008
-1.52435,0.704956
-1.50604,0.701904
-1.48468,0.706482
-1.47247,0.701904
-1.46179,0.70343
-1.44958,0.706482
-1.44043,0.700378
-1.43585,0.704956
-1.4328,0.700378
-1.43433,0.701904
-1.43433,0.708008
-1.4389,0.70343
-1.44196,0.706482
-1.44806,0.701904
-1.45264,0.706482
-1.46027,0.706482
-1.4679,0.700378
-1.47705,0.704956
-1.48315,0.704956
-1.49536,0.704956
-1.50452,0.704956
-1.5152,0.701904
-1.52588,0.706482
-1.53656,0.700378
-1.54572,0.701904
-1.55487,0.709534
-1.5625,0.701904
-1.57623,0.704956
-1.58691,0.701904
-1.5976,0.70343
-1.61133,0.709534
-1.62201,0.701904
-1.63269,0.706482
-1.64642,0.700378
-1.66016,0.704956
-1.66931,0.708008
-1.68152,0.701904
-1.69525,0.70343
-1.70746,0.700378
-1.71509,0.704956
-1.73035,0.71106
-1.73798,0.704956
-1.74713,0.706482
-1.75781,0.701904
-1.76239,0.704956
-1.77155,0.708008
-1.7746,0.700378
-1.77917,0.70343
-1.7868,0.701904
-1.78833,0.701904
-1.78986,0.709534
-1.78986,0.701904
-1.79138,0.706482
-1.79138,0.70343
-1.79291,0.701904
-1.78986,0.704956
-1.7868,0.701904
-1.78223,0.70343
-1.77917,0.701904
-1.77612,0.706482
-1.77307,0.709534
-1.76849,0.701904
-1.77155,0.701904
-1.76849,0.701904
-1.76544,0.704956
-1.76392,0.71106
-1.76086,0.700378
-1.76239,0.701904
-1.76392,0.698853
-1.76392,0.70343
-1.76544,0.708008
-1.77002,0.698853
-1.77155,0.704956
-1.7746,0.701904
-1.77765,0.704956
-1.7807,0.706482
-1.7868,0.700378
-1.78986,0.700378
-1.79749,0.70343
-1.80054,0.701904
-1.80817,0.704956
-1.81427,0.700378
-1.8219,0.701904
-1.82953,0.701904
-1.83563,0.700378
-1.84326,0.70343
-1.85089,0.700378
-1.85852,0.704956
-1.8692,0.704956
-1.87836,0.701904
-1.88446,0.70343
-1.89056,0.700378
-1.90277,0.701904
-1.9104,0.701904
-1.91803,0.700378
-1.92413,0.70343
-1.93481,0.694275
-1.94092,0.700378
-1.9516,0.701904
-1.95923,0.701904
-1.96686,0.700378
-1.97296,0.700378
-1.98212,0.70343
-1.9928,0.700378
-1.9989,0.701904
-2.005,0.698853
-2.01416,0.700378
-2.02484,0.700378
-2.03094,0.70343
-2.0401,0.700378
-2.0462,0.698853
-2.05383,0.700378
-2.06451,0.698853
-2.06909,0.70343
-2.07825,0.700378
-2.08588,0.700378
-2.09045,0.698853
-2.10419,0.698853
-2.10876,0.704956
-2.11792,0.701904
-2.1225,0.698853
-2.13013,0.698853
-2.13318,0.701904
-2.14233,0.70343
-2.13928,0.701904
-2.14386,0.697327
-2.13928,0.701904
-2.13165,0.700378
-2.12555,0.701904
-2.11029,0.698853
-2.09045,0.694275
-2.06604,0.70343
-2.03552,0.704956
-2.00043,0.701904
-1.96075,0.701904
-1.91803,0.691223
-1.87378,0.701904
-1.83411,0.701904
-1.79291,0.701904
-1.75171,0.701904
-1.71051,0.694275
-1.67236,0.700378
-1.64642,0.700378
-1.61591,0.701904
-1.58844,0.700378
-1.56097,0.692749
-1.54114,0.698853
-1.52435,0.700378
-1.51062,0.701904
-1.49841,0.697327
-1.49231,0.697327
-1.48163,0.700378
-1.47858,0.700378
-1.47552,0.70343
-1.474,0.698853
-1.47247,0.694275
-1.47552,0.70343
-1.47705,0.701904
-1.4801,0.701904
-1.48621,0.700378
-1.49384,0.697327
-1.50299,0.70343
-1.50757,0.70343
-1.51672,0.70343
-1.52588,0.698853
-1.53809,0.694275
-1.54419,0.700378
-1.55334,0.701904
-1.56708,0.700378
-1.57623,0.697327
-1.58539,0.700378
-1.59607,0.700378
-1.60828,0.700378
-1.61743,0.701904
-1.62659,0.698853
-1.63879,0.697327
-1.651,0.700378
-1.66473,0.698853
-1.67389,0.70343
-1.69067,0.697327
-1.70135,0.698853
-1.71356,0.700378
-1.72729,0.701904
-1.7395,0.700378
-1.75018,0.698853
-1.76239,0.698853
-1.77155,0.701904
-1.78375,0.698853
-1.78986,0.697327
-1.79749,0.697327
-1.80511,0.698853
-1.80969,0.70343
-1.81885,0.700378
-1.82343,0.70343
-1.82495,0.697327
-1.82648,0.701904
-1.82953,0.700378
-1.83411,0.698853
-1.83105,0.698853
-1.83105,0.700378
-1.83411,0.700378
-1.83105,0.701904
-1.82648,0.697327
-1.82648,0.700378
-1.82953,0.700378
-1.82495,0.698853
-1.82037,0.701904
-1.81732,0.698853
-1.81732,0.698853
-1.82037,0.698853
-1.8158,0.700378
-1.8158,0.701904
-1.8158,0.700378
-1.81732,0.700378
-1.81732,0.700378
-1.82037,0.700378
-1.82343,0.70343
-1.828,0.698853
-1.83411,0.698853
-1.83716,0.700378
-1.84174,0.701904
-1.84631,0.700378
-1.85394,0.700378
-1.85699,0.70343
-1.86462,0.698853
-1.87225,0.700378
-1.87683,0.701904
-1.88599,0.697327
-1.89209,0.701904
-1.89819,0.697327
-1.9043,0.698853
-1.91193,0.70343
-1.92108,0.700378
-1.93024,0.701904
-1.93787,0.700378
-1.94397,0.697327
-1.95465,0.70343
-1.96228,0.700378
-1.97144,0.700378
-1.97906,0.694275
-1.98669,0.698853
-1.99585,0.701904
-2.005,0.701904
-2.01263,0.700378
-2.01874,0.692749
-2.03094,0.700378
-2.03705,0.70343
-2.04926,0.700378
-2.05383,0.698853
-2.05841,0.70343
-2.07214,0.700378
-2.07672,0.701904
-2.08435,0.698853
-2.09351,0.698853
-2.09808,0.701904
-2.10571,0.697327
-2.11639,0.701904
-2.12555,0.698853
-2.13165,0.698853
-2.13623,0.694275
-2.14539,0.698853
-2.15454,0.701904
-2.16064,0.700378
-2.16522,0.698853
-2.17285,0.698853
-2.17438,0.701904
-2.18048,0.698853
-2.17743,0.697327
-2.17438,0.698853
-2.1698,0.700378
-2.15759,0.698853
-2.14233,0.70343
-2.11945,0.698853
-2.09045,0.698853
-2.05536,0.697327
-2.01569,0.701904
-1.97296,0.70343
-1.92566,0.698853
-1.87531,0.698853
-1.82648,0.698853
-1.77765,0.701904
-1.73035,0.700378
-1.6861,0.700378
-1.6449,0.698853
-1.60675,0.700378
-1.57471,0.700378
-1.54266,0.704956
-1.51672,0.698853
-1.49536,0.697327
-1.47247,0.700378
-1.45721,0.701904
-1.44196,0.701904
-1.43127,0.700378
-1.42365,0.697327
-1.41449,0.698853
-1.40991,0.700378
-1.40839,0.70343
-1.40839,0.697327
-1.40839,0.698853
-1.41144,0.692749
-1.41602,0.701904
-1.41907,0.701904
-1.42365,0.698853
-1.43127,0.700378
-1.43738,0.694275
-1.44196,0.70343
-1.45264,0.700378
-1.46027,0.697327
-1.4679,0.700378
-1.47705,0.694275
-1.48621,0.704956
-1.49536,0.701904
-1.50146,0.700378
-1.50909,0.700378
-1.51978,0.697327
-1.52588,0.706482
-1.53656,0.700378
-1.54877,0.694275
-1.56097,0.701904
-1.56708,0.694275
-1.57928,0.704956
-1.58691,0.701904
-1.59912,0.697327
-1.6098,0.700378
-1.62201,0.697327
-1.63116,0.704956
-1.64337,0.700378
-1.65405,0.698853
-1.66016,0.698853
-1.67389,0.694275
-1.67694,0.70343
-1.68457,0.700378
-1.69525,0.697327
-1.69983,0.698853
-1.70746,0.691223
-1.71356,0.70343
-1.71509,0.700378
-1.72272,0.698853
-1.72424,0.698853
-1.72729,0.697327
-1.72729,0.706482
-1.72729,0.700378
-1.72577,0.697327
-1.73035,0.701904
-1.72882,0.691223
-1.72729,0.701904
-1.72424,0.700378
-1.72424,0.698853
-1.72272,0.701904
-1.72119,0.698853
-1.71967,0.704956
-1.71967,0.700378
-1.71661,0.698853
-1.71661,0.694275
-1.71967,0.698853
-1.71661,0.700378
-1.72119,0.697327
-1.72424,0.692749
-1.72424,0.698853
-1.72882,0.694275
-1.73035,0.704956
-1.73492,0.697327
-1.73798,0.700378
-1.74255,0.698853
-1.75018,0.697327
-1.75476,0.704956
-1.76392,0.700378
-1.77002,0.700378
-1.77765,0.697327
-1.78528,0.692749
-1.79138,0.701904
-1.80206,0.697327
-1.80664,0.697327
-1.8158,0.697327
-1.82343,0.694275
-1.83411,0.701904
-1.83868,0.700378
-1.84937,0.697327
-1.85699,0.698853
-1.8692,0.698853
-1.87988,0.70343
-1.88904,0.698853
-1.89667,0.694275
-1.9043,0.697327
-1.9165,0.698853
-1.92719,0.70343
-1.93481,0.698853
-1.94092,0.697327
-1.95465,0.692749
-1.96381,0.698853
-1.97144,0.704956
-1.97601,0.700378
-1.98822,0.697327
-1.99432,0.698853
-2.00348,0.694275
-2.00958,0.701904
-2.01874,0.698853
-2.02789,0.700378
-2.034,0.698853
-2.04315,0.697327
-2.05078,0.701904
-2.05841,0.700378
-2.07062,0.698853
-2.0752,0.697327
-2.08282,0.694275
-2.09198,0.701904
-2.09808,0.697327
-2.10571,0.692749
-2.11182,0.698853
-2.11639,0.700378
-2.12402,0.704956
-2.12402,0.700378
-2.12555,0.698853
-2.1225,0.698853
-2.11639,0.697327
-2.10571,0.701904
-2.09198,0.697327
-2.06451,0.697327
-2.04163,0.697327
-2.00348,0.697327
-1.96381,0.700378
-1.9165,0.701904
-1.8692,0.697327
-1.82037,0.694275
-1.7746,0.694275
-1.72272,0.700378
-1.67847,0.697327
-1.63727,0.698853
-1.59454,0.698853
-1.56097,0.697327
-1.52588,0.70343
-1.49536,0.697327
-1.47095,0.692749
-1.44501,0.700378
-1.42822,0.697327
-1.40533,0.70343
-1.39465,0.692749
-1.38397,0.697327
-1.37177,0.698853
-1.36871,0.697327
-1.36108,0.700378
-1.35956,0.697327
-1.35651,0.698853
-1.35498,0.697327
-1.35803,0.697327
-1.35956,0.700378
-1.36566,0.694275
-1.36871,0.694275
-1.37024,0.700378
-1.37939,0.694275
-1.38702,0.698853
-1.3916,0.697327
-1.39771,0.697327
-1.40381,0.694275
-1.41144,0.697327
-1.42059,0.700378
-1.4267,0.697327
-1.4328,0.694275
-1.4389,0.694275
-1.44501,0.697327
-1.45569,0.698853
-1.46027,0.694275
-1.46637,0.694275
-1.47552,0.697327
-1.48163,0.692749
-1.49384,0.700378
-1.49994,0.694275
-1.51215,0.692749
-1.51978,0.697327
-1.53046,0.694275
-1.54266,0.697327
-1.55182,0.697327
-1.5625,0.697327
-1.57318,0.692749
-1.58234,0.694275
-1.59302,0.694275
-1.60065,0.694275
-1.60828,0.697327
-1.61591,0.698853
-1.62506,0.689697
-1.63269,0.692749
-1.63422,0.694275
-1.64032,0.694275
-1.6449,0.694275
-1.64795,0.692749
-1.64948,0.694275
-1.65405,0.691223
-1.65405,0.694275
-1.65863,0.694275
-1.6571,0.694275
-1.65863,0.694275
-1.65558,0.692749
-1.65558,0.694275
-1.65253,0.697327
-1.65253,0.694275
-1.65405,0.694275
-1.651,0.694275
-1.65253,0.691223
-1.64948,0.694275
-1.65405,0.697327
-1.65253,0.689697
-1.65405,0.691223
-1.6571,0.692749
-1.6571,0.692749
-1.66168,0.694275
-1.66321,0.694275
-1.66779,0.694275
-1.67236,0.694275
-1.67542,0.691223
-1.6861,0.697327
-1.68915,0.691223
-1.69373,0.691223
-1.69983,0.692749
-1.70746,0.697327
-1.71509,0.694275
-1.72424,0.692749
-1.73035,0.697327
-1.73645,0.694275
-1.74561,0.697327
-1.75323,0.694275
-1.76239,0.689697
-1.77155,0.692749
-1.77917,0.698853
-1.78986,0.697327
-1.79596,0.691223
-1.80664,0.691223
-1.81427,0.698853
-1.82495,0.694275
-1.83563,0.692749
-1.84479,0.691223
-1.85089,0.692749
-1.86157,0.697327
-1.8692,0.697327
-1.88293,0.694275
-1.89056,0.692749
-1.89667,0.691223
-1.90735,0.697327
-1.9165,0.694275
-1.92566,0.694275
-1.93481,0.688171
-1.94244,0.692749
-1.95313,0.692749
-1.9577,0.691223
-1.96686,0.691223
-1.98059,0.692749
-1.98364,0.691223
-1.9928,0.692749
-2.005,0.694275
-2.01569,0.697327
-2.02637,0.691223
-2.02942,0.688171
-2.04163,0.692749
-2.04926,0.692749
-2.06299,0.691223
-2.06757,0.692749
-2.07825,0.689697
-2.08588,0.694275
-2.0874,0.694275
-2.09656,0.692749
-2.10419,0.697327
-2.10419,0.691223
-2.10114,0.692749
-2.09656,0.698853
-2.09045,0.694275
-2.0752,0.694275
-2.05841,0.689697
-2.02789,0.692749
-2.00043,0.691223
-1.96228,0.694275
-1.92108,0.692749
-1.87225,0.688171
-1.8219,0.697327
-1.77307,0.692749
-1.72729,0.692749
-1.68152,0.689697
-1.63422,0.691223
-1.5976,0.694275
-1.5564,0.692749
-1.52283,0.698853
-1.49384,0.692749
-1.46484,0.688171
-1.44043,0.692749
-1.42212,0.694275
-1.40533,0.697327
-1.3916,0.692749
-1.38092,0.689697
-1.36566,0.694275
-1.36261,0.692749
-1.35498,0.694275
-1.3504,0.692749
-1.3504,0.689697
-1.35345,0.694275
-1.35651,0.692749
-1.35803,0.692749
-1.36108,0.692749
-1.36566,0.686646
-1.37329,0.694275
-1.38245,0.692749
-1.39008,0.692749
-1.39465,0.694275
-1.40228,0.688171
-1.41449,0.692749
-1.41907,0.691223
-1.4267,0.689697
-1.43585,0.692749
-1.44348,0.689697
-1.45416,0.694275
-1.46027,0.692749
-1.46637,0.694275
-1.47705,0.697327
-1.48621,0.691223
-1.49384,0.694275
-1.50452,0.691223
-1.51367,0.691223
-1.52435,0.692749
-1.53503,0.689697
-1.54572,0.694275
-1.55334,0.691223
-1.56097,0.694275
-1.57471,0.691223
-1.58386,0.688171
-1.59149,0.691223
-1.60217,0.692749
-1.61438,0.691223
-1.62048,0.691223
-1.62964,0.686646
-1.63269,0.697327
-1.64337,0.694275
-1.64795,0.692749
-1.65405,0.692749
-1.6571,0.686646
-1.66168,0.694275
-1.66473,0.694275
-1.66473,0.692749
-1.66779,0.691223
-1.66779,0.688171
-1.66626,0.694275
-1.66626,0.688171
-1.66779,0.691223
-1.66931,0.694275
-1.66321,0.689697
-1.66473,0.694275
-1.66321,0.692749
-1.66168,0.694275
-1.66168,0.694275
-1.65863,0.688171
-1.65863,0.694275
-1.66168,0.689697
-1.66168,0.692749
-1.66473,0.692749
-1.66626,0.689697
-1.66473,0.694275
-1.66931,0.689697
-1.67389,0.691223
-1.67694,0.691223
-1.68304,0.689697
-1.68762,0.692749
-1.69373,0.691223
-1.70135,0.689697
-1.70593,0.691223
-1.71356,0.686646
-1.72119,0.689697
-1.72424,0.689697
-1.73645,0.692749
-1.74255,0.689697
-1.75323,0.689697
-1.76392,0.691223
-1.77155,0.686646
-1.77917,0.691223
-1.78833,0.691223
-1.79749,0.691223
-1.80359,0.691223
-1.8158,0.689697
-1.82648,0.692749
-1.83716,0.689697
-1.84326,0.686646
-1.85242,0.694275
-1.86157,0.694275
-1.87531,0.692749
-1.88599,0.692749
-1.89209,0.689697
-1.9043,0.691223
-1.9104,0.691223
-1.92261,0.697327
-1.92871,0.691223
-1.93939,0.689697
-1.94855,0.697327
-1.95465,0.692749
-1.96686,0.691223
-1.96991,0.689697
-1.98212,0.686646
-1.98822,0.691223
-1.99585,0.694275
-2.00195,0.692749
-2.00958,0.692749
-2.01569,0.692749
-2.02637,0.689697
-2.034,0.692749
-2.04315,0.689697
-2.04773,0.689697
-2.05841,0.686646
-2.06604,0.691223
-2.0752,0.691223
-2.0813,0.691223
-2.09198,0.688171
-2.09503,0.689697
-2.10419,0.692749
-2.11182,0.689697
-2.11792,0.692749
-2.12402,0.691223
-2.13013,0.692749
-2.13623,0.692749
-2.13623,0.688171
-2.13318,0.689697
-2.13013,0.689697
-2.12097,0.688171
-2.10876,0.694275
-2.08893,0.691223
-2.06451,0.691223
-2.03247,0.692749
-1.9989,0.689697
-1.95618,0.692749
-1.91193,0.691223
-1.86005,0.688171
-1.81274,0.691223
-1.76544,0.691223
-1.71967,0.691223
-1.67236,0.689697
-1.63269,0.691223
-1.5976,0.688171
-1.56097,0.692749
-1.53351,0.694275
-1.50146,0.691223
-1.4801,0.689697
-1.45874,0.691223
-1.43738,0.689697
-1.42365,0.694275
-1.41449,0.689697
-1.40076,0.691223
-1.39465,0.689697
-1.38855,0.692749
-1.38397,0.691223
-1.38092,0.691223
-1.38397,0.692749
-1.38092,0.689697
-1.38397,0.692749
-1.39008,0.691223
-1.39465,0.691223
-1.40076,0.689697
-1.40686,0.691223
-1.41449,0.692749
-1.42212,0.692749
-1.42975,0.688171
-1.44043,0.691223
-1.44501,0.689697
-1.45569,0.691223
-1.46484,0.691223
-1.47552,0.691223
-1.48468,0.692749
-1.49384,0.688171
-1.50299,0.691223
-1.51367,0.691223
-1.51978,0.689697
-1.53351,0.691223
-1.54419,0.689697
-1.55487,0.691223
-1.56708,0.691223
-1.57776,0.689697
-1.59149,0.691223
-1.60522,0.689697
-1.61438,0.694275
-1.62354,0.691223
-1.63574,0.691223
-1.6449,0.692749
-1.6571,0.689697
-1.66626,0.694275
-1.67389,0.691223
-1.68304,0.688171
-1.69067,0.691223
-1.69678,0.686646
-1.70441,0.691223
-1.70898,0.689697
-1.71051,0.689697
-1.71661,0.689697
-1.71204,0.686646
-1.71204,0.692749
-1.71356,0.691223
-1.71509,0.691223
-1.71204,0.689697
-1.70898,0.689697
-1.70441,0.692749
-1.70135,0.691223
-1.69983,0.691223
-1.69525,0.689697
-1.69373,0.683594
-1.69373,0.689697
-1.6922,0.691223
-1.68762,0.688171
-1.68915,0.692749
-1.68762,0.689697
-1.68762,0.692749
-1.69373,0.691223
-1.68915,0.691223
-1.69373,0.691223
-1.69373,0.686646
-1.69983,0.692749
-1.70135,0.694275
-1.70746,0.691223
-1.70898,0.689697
-1.72119,0.686646
-1.72729,0.694275
-1.73187,0.692749
-1.73798,0.691223
-1.74561,0.692749
-1.75323,0.68512
-1.75476,0.694275
-1.76544,0.689697
-1.77155,0.689697
-1.7807,0.692749
-1.7868,0.686646
-1.79596,0.694275
-1.80664,0.689697
-1.81122,0.689697
-1.8219,0.691223
-1.83563,0.68512
-1.84174,0.691223
-1.84937,0.692749
-1.85852,0.689697
-1.8692,0.691223
-1.87988,0.688171
-1.88904,0.689697
-1.89819,0.691223
-1.90735,0.689697
-1.91956,0.691223
-1.92719,0.686646
-1.93481,0.694275
-1.94244,0.691223
-1.95465,0.688171
-1.95923,0.689697
-1.97144,0.683594
-1.97754,0.697327
-1.98975,0.691223
-1.99738,0.689697
-2.00348,0.689697
-2.01569,0.68512
-2.02026,0.698853
-2.03094,0.688171
-2.03857,0.691223
-2.04773,0.691223
-2.05383,0.688171
-2.06299,0.694275
-2.07062,0.689697
-2.0752,0.692749
-2.08588,0.692749
-2.09045,0.686646
-2.09656,0.697327
-2.10571,0.689697
-2.10724,0.689697
-2.11334,0.686646
-2.11792,0.688171
-2.11792,0.697327
-2.11792,0.692749
-2.11182,0.689697
-2.10571,0.691223
-2.09351,0.692749
-2.07825,0.692749
-2.05383,0.689697
-2.02789,0.689697
-1.99127,0.688171
-1.95618,0.692749
-1.91498,0.697327
-1.8692,0.688171
-1.82343,0.688171
-1.77917,0.689697
-1.7395,0.692749
-1.69525,0.697327
-1.65558,0.688171
-1.62201,0.688171
-1.58997,0.688171
-1.56097,0.692749
-1.53809,0.697327
-1.51367,0.691223
-1.48773,0.688171
-1.474,0.688171
-1.46332,0.692749
-1.44958,0.691223
-1.4389,0.689697
-1.42822,0.688171
-1.4267,0.686646
-1.42212,0.694275
-1.42059,0.697327
-1.42059,0.689697
-1.42365,0.686646
-1.42059,0.691223
-1.4267,0.694275
-1.43127,0.697327
-1.43738,0.686646
-1.44196,0.689697
-1.44806,0.689697
-1.45874,0.694275
-1.46332,0.697327
-1.474,0.691223
-1.47858,0.689697
-1.49231,0.689697
-1.50146,0.694275
-1.51062,0.694275
-1.51672,0.691223
-1.53046,0.688171
-1.53961,0.691223
-1.54572,0.700378
-1.55792,0.698853
-1.57013,0.691223
-1.57928,0.688171
-1.58997,0.688171
-1.60828,0.701904
-1.61438,0.692749
-1.62354,0.688171
-1.63269,0.686646
-1.64795,0.689697
-1.66016,0.698853
-1.66931,0.691223
-1.68304,0.686646
-1.69373,0.688171
-1.70135,0.688171
-1.71051,0.700378
-1.71967,0.694275
-1.72424,0.688171
-1.73035,0.692749
-1.73492,0.689697
-1.7395,0.700378
-1.73798,0.694275
-1.74255,0.688171
-1.74255,0.686646
-1.74103,0.689697
-1.7395,0.697327
-1.7395,0.697327
-1.7395,0.688171
-1.73492,0.691223
-1.73187,0.694275
-1.73035,0.698853
-1.72882,0.692749
-1.72577,0.688171
-1.71967,0.691223
-1.71661,0.689697
-1.71661,0.698853
-1.71204,0.691223
-1.71661,0.688171
-1.71204,0.689697
-1.71204,0.689697
-1.71204,0.700378
-1.71509,0.691223
-1.71356,0.686646
-1.72272,0.689697
-1.72882,0.688171
-1.73035,0.698853
-1.73645,0.691223
-1.74255,0.688171
-1.74561,0.68512
-1.75476,0.689697
-1.75781,0.698853
-1.77002,0.692749
-1.7746,0.686646
-1.7807,0.688171
-1.78833,0.689697
-1.79596,0.700378
-1.80664,0.691223
-1.81274,0.689697
-1.81885,0.688171
-1.82953,0.691223
-1.83868,0.694275
-1.84631,0.689697
-1.85547,0.68512
-1.86462,0.688171
-1.87531,0.689697
-1.87836,0.692749
-1.89209,0.691223
-1.9043,0.689697
-1.9104,0.688171
-1.91956,0.689697
-1.92871,0.697327
-1.93787,0.688171
-1.94855,0.68512
-1.95618,0.688171
-1.96381,0.688171
-1.97449,0.692749
-1.97906,0.686646
-1.99127,0.688171
-1.99585,0.691223
-2.005,0.688171
-2.01263,0.694275
-2.02026,0.691223
-2.02789,0.688171
-2.03094,0.688171
-2.0401,0.68512
-2.04468,0.692749
-2.05536,0.688171
-2.05994,0.686646
-2.06909,0.688171
-2.0752,0.691223
-2.08435,0.689697
-2.0874,0.686646
-2.09808,0.688171
-2.10571,0.686646
-2.11334,0.688171
-2.1225,0.691223
-2.1286,0.689697
-2.13928,0.68512
-2.14081,0.688171
-2.14996,0.686646
-2.15302,0.691223
-2.15607,0.689697
-2.15912,0.686646
-2.15912,0.686646
-2.15454,0.686646
-2.14539,0.691223
-2.13165,0.688171
-2.11334,0.68512
-2.0874,0.686646
-2.05536,0.688171
-2.01721,0.686646
-1.97449,0.689697
-1.92566,0.686646
-1.87683,0.689697
-1.82495,0.689697
-1.77612,0.691223
-1.72729,0.689697
-1.68457,0.686646
-1.63879,0.688171
-1.60217,0.686646
-1.56708,0.689697
-1.53656,0.688171
-1.50299,0.686646
-1.47858,0.688171
-1.45569,0.689697
-1.43433,0.688171
-1.42059,0.691223
-1.40686,0.688171
-1.39465,0.68512
-1.3855,0.68512
-1.37787,0.688171
-1.37024,0.686646
-1.37024,0.68512
-1.36871,0.68512
-1.36871,0.689697
-1.36871,0.691223
-1.36719,0.688171
-1.37329,0.686646
-1.38092,0.686646
-1.38245,0.68512
-1.3916,0.688171
-1.39618,0.688171
-1.40228,0.686646
-1.40839,0.688171
-1.42059,0.686646
-1.4267,0.686646
-1.4328,0.686646
-1.43585,0.68512
-1.44806,0.686646
-1.45721,0.688171
-1.46484,0.689697
-1.474,0.686646
-1.47552,0.686646
-1.48621,0.686646
-1.49384,0.683594
-1.50146,0.686646
-1.50909,0.688171
-1.51978,0.68512
-1.52893,0.688171
-1.53961,0.689697
-1.54266,0.688171
-1.55334,0.688171
-1.5625,0.686646
-1.57776,0.686646
-1.58539,0.688171
-1.59149,0.686646
-1.60217,0.686646
-1.60675,0.686646
-1.61285,0.688171
-1.62201,0.68512
-1.62354,0.686646
-1.62811,0.688171
-1.63422,0.68512
-1.63574,0.688171
-1.63879,0.68512
-1.63727,0.686646
-1.64032,0.683594
-1.64337,0.68512
-1.64032,0.682068
-1.64032,0.683594
-1.63727,0.686646
-1.64032,0.686646
-1.63574,0.686646
-1.63422,0.689697
-1.63116,0.686646
-1.63269,0.689697
-1.63269,0.683594
-1.62964,0.683594
-1.63116,0.688171
-1.63269,0.683594
-1.63269,0.68512
-1.63422,0.68512
-1.63269,0.686646
-1.63574,0.688171
-1.63727,0.68512
-1.64337,0.68512
-1.64642,0.68512
-1.651,0.686646
-1.65253,0.686646
-1.66016,0.686646
-1.66321,0.682068
-1.66931,0.686646
-1.67389,0.686646
-1.68152,0.68512
-1.68762,0.689697
-1.6922,0.686646
-1.70441,0.683594
-1.71204,0.68512
-1.71967,0.683594
