-1.90125	0.808716	
-1.90735	0.811768	
-1.90735	0.808716	
-1.91193	0.811768	
-1.91803	0.819397	
-1.91956	0.810242	
-1.92413	0.810242	
-1.92719	0.810242	
-1.93176	0.810242	
-1.93634	0.802612	
-1.93939	0.808716	
-1.94092	0.808716	
-1.9455	0.810242	
-1.95313	0.811768	
-1.95465	0.814819	
-1.9577	0.808716	
-1.95923	0.811768	
-1.96838	0.810242	
-1.97296	0.810242	
-1.97449	0.804138	
-1.97906	0.810242	
-1.98059	0.808716	
-1.98212	0.810242	
-1.98975	0.808716	
-1.9928	0.816345	
-1.99432	0.810242	
-1.99738	0.808716	
-1.9989	0.808716	
-2.00195	0.80719	
-2.005	0.808716	
-2.00195	0.810242	
-2.00195	0.808716	
-2.00653	0.810242	
-2.00195	0.810242	
-1.9989	0.817871	
-1.99585	0.808716	
-1.99127	0.808716	
-1.98059	0.80719	
-1.97601	0.810242	
-1.96991	0.802612	
-1.95923	0.810242	
-1.95313	0.810242	
-1.93634	0.810242	
-1.92719	0.813293	
-1.91498	0.813293	
-1.9043	0.808716	
-1.89056	0.810242	
-1.87683	0.80719	
-1.8631	0.808716	
-1.84784	0.804138	
-1.83563	0.80719	
-1.8219	0.80719	
-1.80511	0.808716	
-1.78833	0.810242	
-1.77612	0.817871	
-1.76239	0.808716	
-1.74866	0.810242	
-1.7395	0.811768	
-1.72424	0.808716	
-1.71204	0.805664	
-1.70135	0.810242	
-1.6922	0.808716	
-1.67694	0.810242	
-1.66626	0.810242	
-1.6571	0.817871	
-1.64642	0.811768	
-1.63574	0.80719	
-1.62811	0.811768	
-1.61591	0.80719	
-1.60828	0.802612	
-1.60217	0.80719	
-1.59302	0.808716	
-1.58844	0.80719	
-1.58081	0.808716	
-1.57776	0.817871	
-1.57166	0.810242	
-1.56708	0.808716	
-1.56097	0.80719	
-1.55334	0.810242	
-1.55334	0.802612	
-1.54877	0.804138	
-1.54419	0.808716	
-1.54114	0.811768	
-1.54114	0.810242	
-1.53809	0.816345	
-1.54114	0.80719	
-1.53656	0.808716	
-1.53656	0.810242	
-1.53351	0.80719	
-1.53351	0.804138	
-1.53351	0.808716	
-1.53503	0.808716	
-1.53503	0.810242	
-1.53656	0.811768	
-1.53961	0.811768	
-1.53809	0.810242	
-1.54114	0.808716	
-1.54266	0.80719	
-1.54419	0.808716	
-1.54724	0.804138	
-1.54877	0.80719	
-1.55182	0.80719	
-1.5564	0.808716	
-1.55487	0.810242	
-1.56097	0.813293	
-1.56708	0.811768	
-1.5686	0.808716	
-1.57318	0.810242	
-1.57623	0.804138	
-1.57776	0.804138	
-1.58081	0.80719	
-1.58234	0.808716	
-1.58844	0.810242	
-1.59607	0.810242	
-1.59607	0.810242	
-1.60065	0.808716	
-1.60217	0.808716	
-1.60675	0.805664	
-1.61133	0.808716	
-1.61438	0.801086	
-1.61896	0.80719	
-1.62354	0.80719	
-1.62659	0.811768	
-1.62811	0.80719	
-1.63422	0.811768	
-1.64032	0.810242	
-1.63879	0.810242	
-1.64795	0.808716	
-1.64948	0.810242	
-1.65253	0.802612	
-1.66016	0.80719	
-1.66168	0.80719	
-1.66779	0.80719	
-1.67236	0.808716	
-1.67847	0.811768	
-1.6861	0.808716	
-1.69067	0.810242	
-1.69525	0.80719	
-1.69983	0.808716	
-1.70288	0.802612	
-1.71204	0.80719	
-1.71356	0.80719	
-1.71967	0.805664	
-1.72577	0.80719	
-1.73187	0.811768	
-1.73492	0.80719	
-1.7395	0.808716	
-1.74103	0.804138	
-1.74713	0.808716	
-1.75476	0.804138	
-1.75476	0.805664	
-1.76239	0.808716	
-1.76544	0.805664	
-1.77002	0.811768	
-1.77002	0.810242	
-1.77307	0.810242	
-1.7807	0.80719	
-1.78375	0.808716	
-1.78528	0.808716	
-1.78528	0.804138	
-1.7868	0.805664	
-1.79138	0.805664	
-1.79596	0.808716	
-1.79291	0.80719	
-1.79596	0.810242	
-1.79596	0.810242	
-1.79901	0.808716	
-1.79749	0.80719	
-1.80206	0.804138	
-1.80206	0.802612	
-1.80359	0.80719	
-1.80206	0.80719	
-1.79901	0.80719	
-1.80054	0.80719	
-1.79901	0.810242	
-1.80054	0.808716	
-1.79901	0.80719	
-1.80054	0.805664	
-1.79596	0.804138	
-1.79901	0.804138	
-1.79138	0.80719	
-1.79291	0.804138	
-1.79138	0.80719	
-1.78986	0.810242	
-1.78833	0.811768	
-1.7868	0.808716	
-1.78528	0.80719	
-1.78375	0.808716	
-1.78223	0.80719	
-1.77917	0.804138	
-1.7807	0.80719	
-1.77917	0.804138	
-1.7746	0.80719	
-1.77307	0.808716	
-1.77002	0.808716	
-1.77155	0.810242	
-1.77002	0.80719	
-1.77002	0.805664	
-1.76849	0.805664	
-1.76544	0.80719	
-1.76697	0.805664	
-1.76544	0.808716	
-1.76697	0.808716	
-1.76392	0.804138	
-1.76392	0.808716	
-1.76392	0.808716	
-1.76086	0.805664	
-1.76392	0.80719	
-1.76392	0.808716	
-1.76239	0.804138	
-1.76392	0.808716	
-1.76392	0.80719	
-1.76392	0.80719	
-1.76544	0.805664	
-1.76544	0.808716	
-1.76697	0.80719	
-1.76849	0.808716	
-1.77155	0.80719	
-1.77002	0.804138	
-1.77002	0.801086	
-1.77155	0.805664	
-1.77612	0.80719	
-1.7746	0.80719	
-1.7746	0.80719	
-1.77917	0.808716	
-1.78223	0.80719	
-1.7807	0.808716	
-1.78375	0.805664	
-1.7868	0.805664	
-1.7868	0.802612	
-1.7868	0.805664	
-1.79138	0.80719	
-1.79291	0.805664	
-1.80054	0.805664	
-1.80054	0.813293	
-1.80206	0.80719	
-1.80359	0.80719	
-1.80817	0.80719	
-1.81122	0.805664	
-1.81427	0.804138	
-1.81732	0.80719	
-1.81732	0.805664	
-1.82037	0.804138	
-1.8219	0.810242	
-1.82648	0.808716	
-1.82648	0.80719	
-1.83105	0.805664	
-1.83411	0.80719	
-1.83716	0.805664	
-1.84174	0.804138	
-1.84326	0.805664	
-1.84631	0.805664	
-1.84784	0.810242	
-1.85547	0.80719	
-1.85547	0.808716	
-1.85852	0.80719	
-1.86005	0.80719	
-1.86615	0.808716	
-1.86768	0.810242	
-1.87225	0.805664	
-1.87531	0.80719	
-1.87836	0.80719	
-1.88446	0.808716	
-1.88446	0.811768	
-1.89056	0.808716	
-1.88751	0.810242	
-1.89362	0.808716	
-1.89819	0.808716	
-1.89972	0.808716	
-1.9043	0.805664	
-1.90582	0.808716	
-1.9104	0.805664	
-1.91193	0.808716	
-1.91498	0.808716	
-1.92261	0.810242	
-1.92719	0.808716	
-1.92566	0.80719	
-1.92871	0.80719	
-1.93634	0.80719	
-1.93787	0.801086	
-1.93939	0.805664	
-1.94244	0.805664	
-1.9455	0.80719	
-1.95007	0.805664	
-1.94855	0.808716	
-1.95313	0.80719	
-1.95313	0.805664	
-1.95618	0.805664	
-1.9577	0.80719	
-1.9577	0.804138	
-1.95618	0.805664	
-1.9577	0.810242	
-1.9577	0.804138	
-1.95313	0.805664	
-1.95313	0.811768	
-1.95007	0.805664	
-1.94092	0.80719	
-1.93634	0.80719	
-1.93176	0.80719	
-1.92108	0.798035	
-1.91498	0.804138	
-1.90277	0.805664	
-1.89362	0.805664	
-1.88446	0.810242	
-1.87378	0.808716	
-1.86005	0.805664	
-1.84784	0.808716	
-1.83411	0.805664	
-1.81885	0.805664	
-1.80664	0.802612	
-1.79291	0.804138	
-1.7807	0.805664	
-1.76544	0.80719	
-1.75476	0.810242	
-1.7395	0.808716	
-1.72882	0.80719	
-1.71356	0.804138	
-1.70135	0.80719	
-1.68915	0.805664	
-1.67694	0.804138	
-1.66626	0.804138	
-1.65405	0.804138	
-1.63879	0.80719	
-1.62964	0.80719	
-1.62048	0.808716	
-1.60828	0.810242	
-1.59912	0.805664	
-1.59149	0.804138	
-1.57928	0.805664	
-1.57318	0.804138	
-1.56403	0.805664	
-1.55487	0.805664	
-1.55029	0.80719	
-1.54266	0.80719	
-1.53656	0.80719	
-1.53198	0.805664	
-1.52588	0.802612	
-1.51825	0.80719	
-1.51672	0.805664	
-1.51367	0.802612	
-1.50909	0.802612	
-1.50604	0.802612	
-1.50299	0.804138	
-1.49841	0.804138	
-1.49536	0.80719	
-1.49384	0.802612	
-1.49689	0.804138	
-1.49689	0.805664	
-1.49384	0.804138	
-1.49689	0.802612	
-1.49536	0.80719	
-1.49384	0.804138	
-1.49689	0.80719	
-1.49841	0.808716	
-1.49689	0.808716	
-1.49689	0.80719	
-1.49994	0.805664	
-1.49994	0.802612	
-1.50146	0.804138	
-1.50452	0.801086	
-1.50299	0.805664	
-1.51062	0.804138	
-1.51062	0.808716	
-1.51215	0.805664	
-1.51215	0.811768	
-1.51825	0.810242	
-1.5213	0.80719	
-1.52283	0.810242	
-1.52588	0.805664	
-1.53046	0.805664	
-1.53351	0.808716	
-1.53809	0.80719	
-1.54114	0.80719	
-1.53961	0.811768	
-1.54724	0.811768	
-1.55029	0.808716	
-1.55334	0.808716	
-1.55792	0.80719	
-1.55792	0.808716	
-1.5625	0.805664	
-1.56403	0.80719	
-1.57013	0.810242	
-1.57318	0.808716	
-1.57318	0.813293	
-1.58081	0.811768	
-1.58386	0.808716	
-1.58539	0.80719	
-1.58997	0.808716	
-1.59454	0.80719	
-1.59454	0.804138	
-1.60522	0.808716	
-1.60217	0.80719	
-1.61133	0.80719	
-1.61133	0.808716	
-1.61438	0.810242	
-1.62048	0.808716	
-1.62354	0.808716	
-1.62811	0.804138	
-1.62964	0.805664	
-1.63574	0.80719	
-1.64032	0.802612	
-1.64642	0.804138	
-1.64795	0.80719	
-1.64948	0.805664	
-1.65558	0.810242	
-1.6571	0.808716	
-1.66016	0.805664	
-1.66321	0.804138	
-1.66931	0.805664	
-1.66931	0.802612	
-1.67084	0.804138	
-1.67236	0.805664	
-1.67542	0.805664	
-1.67694	0.805664	
-1.68304	0.80719	
-1.67847	0.80719	
-1.68457	0.80719	
-1.68304	0.804138	
-1.68762	0.805664	
-1.68457	0.804138	
-1.68915	0.80719	
-1.6861	0.802612	
-1.68915	0.804138	
-1.69067	0.805664	
-1.68915	0.808716	
-1.68762	0.805664	
-1.68762	0.804138	
-1.68762	0.805664	
-1.68762	0.805664	
-1.68304	0.802612	
-1.68152	0.805664	
-1.67694	0.80719	
-1.67542	0.80719	
-1.67694	0.80719	
-1.67694	0.810242	
-1.67236	0.808716	
-1.67236	0.80719	
-1.66626	0.808716	
-1.66931	0.80719	
-1.66779	0.802612	
-1.66779	0.80719	
-1.66779	0.80719	
-1.66473	0.80719	
-1.66168	0.810242	
-1.66016	0.811768	
-1.6571	0.80719	
-1.65558	0.805664	
-1.65863	0.805664	
-1.65558	0.808716	
-1.65558	0.802612	
-1.65405	0.805664	
-1.651	0.805664	
-1.65253	0.80719	
-1.64948	0.804138	
-1.64642	0.80719	
-1.64948	0.805664	
-1.64642	0.802612	
-1.64642	0.805664	
-1.64795	0.804138	
-1.64642	0.801086	
-1.64642	0.804138	
-1.6449	0.805664	
-1.64337	0.802612	
-1.63879	0.804138	
-1.64032	0.804138	
-1.64337	0.80719	
-1.64337	0.80719	
-1.64337	0.802612	
-1.6449	0.805664	
-1.6449	0.802612	
-1.64642	0.801086	
-1.64948	0.805664	
-1.64795	0.804138	
-1.64948	0.804138	
-1.64948	0.805664	
-1.65253	0.804138	
-1.651	0.804138	
-1.65558	0.804138	
-1.65405	0.802612	
-1.65405	0.798035	
-1.6571	0.802612	
-1.6571	0.805664	
-1.65863	0.804138	
-1.66321	0.802612	
-1.66168	0.804138	
-1.66473	0.804138	
-1.66626	0.802612	
-1.66626	0.804138	
-1.67236	0.802612	
-1.67236	0.798035	
-1.67389	0.804138	
-1.67542	0.802612	
-1.67542	0.805664	
-1.68152	0.804138	
-1.68457	0.804138	
-1.68304	0.801086	
-1.68457	0.802612	
-1.68915	0.801086	
-1.6922	0.804138	
-1.6922	0.802612	
-1.69525	0.802612	
-1.69983	0.804138	
-1.70288	0.801086	
-1.70441	0.802612	
-1.70746	0.805664	
-1.70898	0.802612	
-1.71051	0.798035	
-1.71204	0.801086	
-1.71204	0.801086	
-1.71967	0.796509	
-1.72272	0.801086	
-1.72424	0.801086	
-1.72577	0.802612	
-1.73035	0.801086	
-1.73035	0.802612	
-1.73492	0.802612	
-1.73798	0.801086	
-1.74103	0.798035	
-1.74408	0.798035	
-1.74561	0.801086	
-1.74866	0.798035	
-1.75171	0.801086	
-1.75323	0.801086	
-1.76086	0.802612	
-1.76239	0.802612	
-1.76697	0.802612	
-1.77002	0.802612	
-1.77002	0.802612	
-1.77612	0.802612	
-1.7807	0.796509	
-1.78528	0.798035	
-1.7868	0.804138	
-1.78986	0.801086	
-1.79291	0.802612	
-1.79901	0.801086	
-1.80206	0.801086	
-1.80511	0.798035	
-1.80969	0.802612	
-1.81427	0.801086	
-1.81427	0.798035	
-1.81885	0.798035	
-1.8219	0.796509	
-1.82495	0.802612	
-1.828	0.802612	
-1.83105	0.805664	
-1.83411	0.801086	
-1.83716	0.801086	
-1.83868	0.801086	
-1.84174	0.802612	
-1.84326	0.794983	
-1.84174	0.801086	
-1.84174	0.802612	
-1.84326	0.802612	
-1.84326	0.801086	
-1.84021	0.804138	
-1.83105	0.804138	
-1.83411	0.801086	
-1.82648	0.798035	
-1.82037	0.802612	
-1.81427	0.796509	
-1.80817	0.798035	
-1.80206	0.802612	
-1.79596	0.802612	
-1.78223	0.801086	
-1.7746	0.798035	
-1.76544	0.801086	
-1.75934	0.798035	
-1.74561	0.801086	
-1.73645	0.802612	
-1.72577	0.798035	
-1.71356	0.796509	
-1.70288	0.802612	
-1.69067	0.798035	
-1.67847	0.802612	
-1.66931	0.805664	
-1.66016	0.801086	
-1.64948	0.798035	
-1.63879	0.801086	
-1.62506	0.802612	
-1.61743	0.798035	
-1.60675	0.801086	
-1.59302	0.798035	
-1.58691	0.798035	
-1.57471	0.802612	
-1.56708	0.804138	
-1.55945	0.802612	
-1.54877	0.801086	
-1.54114	0.801086	
-1.53503	0.801086	
-1.52435	0.798035	
-1.51672	0.802612	
-1.51215	0.802612	
-1.50452	0.802612	
-1.49689	0.801086	
-1.49231	0.801086	
-1.48773	0.802612	
-1.48315	0.796509	
-1.47858	0.801086	
-1.47247	0.801086	
-1.4679	0.798035	
-1.46484	0.801086	
-1.46332	0.801086	
-1.45874	0.801086	
-1.45721	0.801086	
-1.45569	0.796509	
-1.45721	0.801086	
-1.45416	0.798035	
-1.44958	0.802612	
-1.44806	0.805664	
-1.44958	0.796509	
-1.44653	0.801086	
-1.44806	0.798035	
-1.44653	0.801086	
-1.44653	0.801086	
-1.44806	0.802612	
-1.44653	0.802612	
-1.44501	0.798035	
-1.44806	0.801086	
-1.44806	0.802612	
-1.44958	0.802612	
-1.45721	0.804138	
-1.45416	0.801086	
-1.45416	0.802612	
-1.45721	0.804138	
-1.45874	0.801086	
-1.45874	0.805664	
-1.46179	0.802612	
-1.46027	0.802612	
-1.46484	0.802612	
-1.46637	0.802612	
-1.4679	0.801086	
-1.47095	0.801086	
-1.474	0.801086	
-1.47247	0.801086	
-1.4801	0.802612	
-1.48163	0.802612	
-1.48315	0.801086	
-1.48468	0.804138	
-1.48773	0.802612	
-1.49536	0.804138	
-1.49689	0.802612	
-1.49841	0.804138	
-1.50146	0.801086	
-1.50452	0.801086	
-1.50604	0.804138	
-1.51215	0.805664	
-1.51367	0.802612	
-1.51672	0.804138	
-1.5213	0.802612	
-1.5213	0.802612	
-1.53046	0.798035	
-1.53046	0.801086	
-1.53503	0.802612	
-1.53503	0.798035	
-1.54266	0.801086	
-1.54419	0.802612	
-1.54419	0.801086	
-1.54877	0.802612	
-1.55182	0.802612	
-1.55487	0.802612	
-1.55792	0.802612	
-1.56403	0.802612	
-1.5686	0.801086	
-1.57013	0.801086	
-1.57166	0.802612	
-1.57471	0.804138	
-1.58234	0.805664	
-1.58234	0.804138	
-1.58539	0.802612	
-1.58844	0.801086	
-1.59149	0.804138	
-1.59302	0.805664	
-1.59607	0.802612	
-1.5976	0.804138	
-1.5976	0.80719	
-1.60217	0.805664	
-1.6098	0.802612	
-1.60828	0.805664	
-1.60828	0.804138	
-1.6098	0.804138	
-1.61591	0.801086	
-1.61133	0.804138	
-1.61438	0.804138	
-1.61896	0.80719	
-1.61743	0.80719	
-1.62048	0.805664	
-1.61896	0.802612	
-1.62201	0.80719	
-1.62048	0.805664	
-1.62201	0.802612	
-1.62048	0.80719	
-1.62048	0.804138	
-1.62354	0.804138	
-1.62354	0.805664	
-1.62048	0.802612	
-1.62354	0.80719	
-1.62354	0.804138	
-1.62354	0.804138	
-1.62354	0.804138	
-1.62354	0.804138	
-1.62201	0.804138	
-1.62201	0.805664	
-1.62048	0.801086	
-1.62048	0.804138	
-1.62048	0.802612	
-1.61896	0.804138	
-1.61896	0.801086	
-1.61896	0.804138	
-1.61896	0.801086	
-1.61896	0.801086	
-1.61591	0.802612	
-1.61591	0.801086	
-1.61591	0.798035	
-1.61438	0.798035	
-1.61743	0.798035	
-1.61591	0.798035	
-1.61438	0.801086	
-1.61285	0.801086	
-1.61285	0.796509	
-1.61438	0.798035	
-1.61438	0.796509	
-1.61438	0.798035	
-1.61285	0.796509	
-1.61438	0.796509	
-1.61285	0.798035	
-1.61285	0.798035	
-1.61591	0.798035	
-1.61438	0.796509	
-1.61438	0.796509	
-1.61438	0.796509	
-1.61285	0.796509	
-1.61438	0.796509	
-1.61285	0.796509	
-1.61591	0.793457	
-1.61438	0.796509	
-1.61743	0.796509	
-1.61438	0.796509	
-1.61591	0.798035	
-1.61591	0.796509	
-1.61743	0.798035	
-1.61743	0.793457	
-1.61743	0.796509	
-1.61896	0.794983	
-1.62048	0.798035	
-1.61896	0.801086	
-1.62659	0.798035	
-1.62659	0.798035	
-1.62659	0.794983	
-1.62659	0.794983	
-1.62811	0.794983	
-1.62659	0.794983	
-1.63116	0.796509	
-1.63422	0.794983	
-1.62964	0.796509	
-1.63574	0.798035	
-1.63727	0.796509	
-1.63727	0.796509	
-1.64032	0.794983	
-1.63879	0.794983	
-1.64337	0.793457	
-1.64642	0.796509	
-1.64642	0.794983	
-1.64948	0.793457	
-1.64948	0.798035	
-1.65253	0.790405	
-1.65405	0.794983	
-1.65558	0.791931	
-1.65863	0.793457	
-1.66016	0.794983	
-1.66168	0.793457	
-1.66168	0.793457	
-1.66626	0.793457	
-1.67084	0.794983	
-1.67236	0.791931	
-1.67389	0.793457	
-1.67389	0.798035	
-1.68152	0.793457	
-1.68762	0.794983	
-1.6861	0.793457	
-1.68762	0.793457	
-1.68915	0.796509	
-1.69373	0.796509	
-1.6983	0.794983	
-1.6983	0.794983	
-1.70135	0.796509	
-1.70441	0.791931	
-1.70441	0.793457	
-1.70746	0.794983	
-1.71204	0.794983	
-1.71051	0.791931	
-1.71509	0.796509	
-1.72119	0.794983	
-1.72272	0.793457	
-1.72272	0.794983	
-1.72577	0.793457	
-1.73035	0.793457	
-1.73035	0.796509	
-1.7334	0.793457	
-1.73187	0.794983	
-1.73187	0.796509	
-1.7334	0.793457	
-1.73645	0.793457	
-1.73492	0.790405	
-1.73645	0.794983	
-1.73645	0.791931	
-1.73645	0.798035	
-1.73492	0.794983	
-1.72882	0.794983	
-1.72882	0.793457	
-1.72577	0.790405	
-1.71967	0.791931	
-1.71509	0.794983	
-1.71356	0.794983	
-1.70441	0.796509	
-1.69983	0.794983	
-1.69373	0.798035	
-1.68304	0.796509	
-1.67542	0.794983	
-1.66473	0.794983	
-1.65558	0.801086	
-1.64795	0.793457	
-1.63727	0.793457	
-1.62201	0.798035	
-1.61591	0.798035	
-1.60675	0.793457	
-1.5976	0.794983	
-1.58539	0.793457	
-1.57318	0.796509	
-1.5625	0.791931	
-1.55487	0.796509	
-1.54419	0.793457	
-1.53503	0.794983	
-1.52283	0.794983	
-1.5152	0.794983	
-1.50299	0.794983	
-1.49384	0.794983	
-1.48468	0.796509	
-1.47552	0.793457	
-1.46637	0.793457	
-1.46179	0.794983	
-1.45569	0.793457	
-1.4389	0.796509	
-1.4328	0.794983	
-1.42975	0.794983	
-1.42212	0.793457	
-1.41449	0.796509	
-1.40839	0.794983	
-1.40381	0.793457	
-1.39618	0.793457	
-1.3916	0.793457	
-1.38855	0.790405	
-1.38245	0.791931	
-1.38092	0.793457	
-1.37024	0.794983	
-1.37177	0.790405	
-1.36414	0.793457	
-1.36261	0.794983	
-1.36261	0.796509	
-1.35956	0.794983	
-1.35345	0.794983	
-1.35498	0.791931	
-1.35345	0.793457	
-1.3504	0.796509	
-1.35345	0.796509	
-1.35345	0.794983	
-1.34888	0.794983	
-1.3504	0.794983	
-1.34735	0.794983	
-1.34888	0.793457	
-1.34735	0.794983	
-1.3504	0.794983	
-1.35193	0.793457	
-1.34888	0.788879	
-1.35193	0.796509	
-1.35193	0.793457	
-1.35498	0.798035	
-1.35498	0.794983	
-1.35803	0.791931	
-1.35803	0.796509	
-1.36108	0.793457	
-1.36261	0.794983	
-1.36414	0.794983	
-1.36871	0.794983	
-1.36871	0.798035	
-1.37177	0.791931	
-1.37634	0.796509	
-1.37787	0.791931	
-1.38245	0.793457	
-1.3855	0.794983	
-1.38397	0.796509	
-1.39008	0.794983	
-1.3916	0.793457	
-1.39465	0.793457	
-1.39923	0.794983	
-1.39771	0.794983	
-1.40076	0.796509	
-1.40533	0.796509	
-1.40991	0.793457	
-1.40991	0.794983	
-1.41602	0.793457	
-1.41907	0.793457	
-1.42212	0.794983	
-1.42517	0.791931	
-1.4267	0.793457	
-1.4328	0.794983	
-1.43433	0.794983	
-1.4389	0.791931	
-1.44196	0.793457	
-1.44806	0.794983	
-1.44958	0.798035	
-1.45874	0.794983	
-1.45874	0.794983	
-1.46484	0.793457	
-1.46942	0.793457	
-1.47247	0.791931	
-1.47705	0.793457	
-1.48163	0.790405	
-1.4801	0.791931	
-1.48621	0.794983	
-1.49231	0.794983	
-1.49536	0.790405	
-1.49841	0.794983	
-1.49689	0.793457	
-1.50452	0.794983	
-1.50604	0.788879	
-1.50909	0.794983	
-1.51215	0.788879	
-1.51367	0.793457	
-1.51672	0.791931	
-1.51825	0.798035	
-1.51978	0.790405	
-1.52283	0.790405	
-1.52283	0.793457	
-1.52435	0.794983	
-1.52283	0.794983	
-1.52588	0.798035	
-1.53046	0.794983	
-1.52588	0.796509	
-1.53046	0.796509	
-1.52893	0.794983	
-1.53046	0.793457	
-1.52588	0.793457	
-1.52893	0.794983	
-1.52435	0.793457	
-1.52893	0.793457	
-1.52588	0.798035	
-1.52893	0.790405	
-1.52588	0.796509	
-1.52588	0.794983	
-1.5213	0.798035	
-1.52435	0.796509	
-1.51978	0.794983	
-1.51825	0.796509	
-1.51978	0.796509	
-1.51825	0.794983	
-1.51672	0.796509	
-1.5152	0.796509	
-1.5152	0.794983	
-1.51062	0.794983	
-1.51215	0.798035	
-1.51215	0.791931	
-1.51215	0.794983	
-1.50604	0.796509	
-1.50909	0.796509	
-1.50604	0.794983	
-1.50604	0.796509	
-1.50452	0.796509	
-1.50604	0.793457	
-1.50604	0.793457	
-1.50604	0.796509	
-1.50299	0.794983	
-1.50299	0.793457	
-1.50146	0.794983	
-1.50146	0.801086	
-1.50299	0.794983	
-1.50146	0.798035	
-1.50452	0.794983	
-1.50452	0.796509	
-1.50452	0.796509	
-1.50604	0.798035	
-1.50452	0.793457	
-1.50604	0.796509	
-1.50604	0.794983	
-1.50909	0.796509	
-1.51367	0.793457	
-1.51215	0.796509	
-1.51367	0.794983	
-1.5152	0.794983	
-1.51367	0.798035	
-1.51672	0.798035	
-1.5213	0.794983	
-1.52283	0.796509	
-1.52283	0.796509	
-1.52893	0.794983	
-1.52588	0.794983	
-1.53198	0.798035	
-1.53351	0.796509	
-1.53809	0.794983	
-1.54114	0.796509	
-1.54266	0.796509	
-1.54419	0.793457	
-1.54572	0.796509	
-1.55029	0.794983	
-1.55334	0.796509	
-1.5564	0.791931	
-1.55945	0.796509	
-1.5625	0.794983	
-1.56403	0.794983	
-1.56708	0.793457	
-1.57166	0.794983	
-1.57471	0.790405	
-1.57776	0.796509	
-1.58386	0.793457	
-1.58386	0.793457	
-1.58997	0.794983	
-1.59149	0.796509	
-1.59607	0.793457	
-1.5976	0.794983	
-1.60217	0.794983	
-1.60675	0.796509	
-1.6098	0.790405	
-1.61438	0.794983	
-1.61438	0.796509	
-1.62201	0.796509	
-1.62506	0.793457	
-1.63116	0.796509	
-1.63116	0.796509	
-1.63727	0.793457	
-1.64032	0.793457	
-1.64795	0.796509	
-1.65253	0.796509	
-1.65253	0.794983	
-1.66016	0.794983	
-1.66473	0.796509	
-1.67236	0.788879	
-1.67542	0.796509	
-1.67847	0.794983	
-1.6861	0.796509	
-1.69067	0.794983	
-1.6922	0.796509	
-1.69678	0.793457	
-1.70135	0.798035	
-1.70746	0.793457	
-1.70746	0.794983	
-1.71356	0.794983	
-1.71967	0.796509	
-1.72272	0.793457	
-1.72577	0.801086	
-1.73035	0.793457	
-1.73492	0.798035	
-1.7395	0.793457	
-1.74103	0.794983	
-1.74561	0.796509	
-1.74713	0.793457	
-1.75171	0.791931	
-1.75171	0.801086	
-1.75323	0.794983	
-1.76086	0.791931	
-1.76392	0.794983	
-1.76239	0.798035	
-1.76392	0.794983	
-1.76239	0.794983	
-1.75934	0.798035	
-1.76086	0.793457	
-1.75781	0.794983	
-1.75018	0.794983	
-1.75171	0.793457	
-1.74408	0.791931	
-1.73798	0.796509	
-1.7334	0.794983	
-1.72577	0.793457	
-1.71356	0.796509	
-1.70746	0.794983	
-1.69525	0.794983	
-1.69067	0.794983	
-1.67389	0.794983	
-1.66626	0.791931	
-1.65253	0.794983	
-1.64032	0.793457	
-1.62811	0.796509	
-1.61743	0.791931	
-1.60522	0.794983	
-1.59302	0.793457	
-1.58234	0.791931	
-1.57013	0.790405	
-1.55487	0.794983	
-1.54724	0.793457	
-1.53656	0.793457	
-1.52283	0.791931	
-1.5152	0.798035	
-1.50604	0.788879	
-1.49689	0.796509	
-1.48621	0.793457	
-1.47858	0.794983	
-1.47095	0.793457	
-1.46484	0.796509	
-1.45569	0.796509	
-1.44806	0.801086	
-1.4389	0.796509	
-1.43127	0.796509	
-1.42975	0.793457	
-1.41907	0.798035	
-1.41144	0.796509	
-1.40991	0.794983	
-1.40228	0.791931	
-1.40228	0.802612	
-1.39465	0.793457	
-1.39313	0.791931	
-1.38855	0.794983	
-1.3855	0.798035	
-1.38245	0.793457	
-1.38397	0.793457	
-1.37939	0.793457	
-1.38245	0.794983	
-1.37634	0.793457	
-1.37939	0.791931	
-1.37939	0.794983	
-1.37787	0.793457	
-1.37939	0.793457	
-1.37939	0.802612	
-1.37939	0.791931	
-1.37939	0.794983	
-1.38092	0.794983	
-1.38245	0.794983	
-1.3855	0.793457	
-1.38397	0.796509	
-1.38397	0.790405	
-1.38702	0.794983	
-1.39008	0.794983	
-1.39465	0.801086	
-1.39313	0.794983	
-1.39923	0.794983	
-1.39923	0.801086	
-1.40228	0.798035	
-1.40228	0.791931	
-1.40381	0.796509	
-1.40533	0.793457	
-1.40991	0.793457	
-1.41449	0.794983	
-1.41754	0.796509	
-1.41907	0.791931	
-1.42365	0.793457	
-1.42212	0.794983	
-1.4267	0.794983	
-1.42975	0.791931	
-1.43433	0.796509	
-1.43738	0.793457	
-1.43738	0.794983	
-1.44196	0.793457	
-1.44501	0.798035	
-1.44501	0.794983	
-1.45264	0.793457	
-1.45874	0.796509	
-1.45721	0.796509	
-1.46484	0.793457	
-1.46484	0.794983	
-1.47095	0.793457	
-1.47705	0.794983	
-1.4801	0.798035	
-1.48621	0.796509	
-1.48773	0.791931	
-1.49689	0.796509	
-1.49841	0.796509	
-1.50146	0.793457	
-1.51062	0.791931	
-1.5152	0.796509	
-1.51978	0.793457	
-1.52435	0.793457	
-1.53046	0.793457	
-1.53503	0.801086	
-1.54114	0.791931	
-1.54114	0.796509	
-1.54724	0.796509	
-1.55182	0.794983	
-1.55487	0.793457	
-1.56097	0.796509	
-1.56403	0.793457	
-1.57013	0.794983	
-1.57166	0.793457	
-1.57776	0.794983	
-1.57928	0.790405	
-1.58081	0.791931	
-1.58539	0.791931	
-1.58844	0.794983	
-1.59149	0.791931	
-1.59302	0.796509	
-1.59454	0.793457	
-1.59912	0.793457	
-1.59912	0.796509	
-1.60217	0.798035	
-1.60675	0.793457	
-1.60522	0.794983	
-1.6098	0.793457	
-1.60828	0.793457	
-1.6098	0.790405	
-1.6098	0.794983	
-1.6098	0.790405	
-1.6098	0.794983	
-1.6098	0.794983	
-1.60675	0.801086	
-1.60675	0.793457	
-1.60828	0.791931	
-1.60217	0.796509	
-1.60828	0.793457	
-1.60217	0.790405	
-1.60065	0.801086	
-1.60065	0.794983	
-1.60522	0.794983	
-1.60065	0.794983	
-1.59912	0.801086	
-1.59912	0.791931	
-1.60065	0.798035	
-1.59454	0.793457	
-1.59454	0.794983	
-1.59607	0.788879	
-1.59149	0.796509	
-1.59149	0.791931	
-1.58997	0.791931	
-1.58997	0.793457	
-1.58691	0.801086	
-1.58691	0.791931	
-1.58844	0.794983	
-1.58386	0.793457	
-1.58844	0.794983	
-1.58539	0.793457	
-1.58234	0.796509	
-1.58234	0.793457	
-1.58386	0.790405	
-1.58081	0.794983	
-1.58081	0.796509	
-1.58081	0.790405	
-1.57928	0.794983	
-1.57776	0.796509	
-1.58234	0.793457	
-1.58081	0.788879	
-1.58234	0.798035	
-1.58234	0.790405	
-1.58234	0.794983	
-1.58386	0.791931	
-1.58386	0.796509	
-1.58539	0.791931	
-1.58997	0.794983	
-1.58844	0.793457	
-1.58844	0.794983	
-1.58997	0.788879	
-1.59149	0.798035	
-1.59454	0.793457	
-1.59302	0.793457	
-1.5976	0.798035	
-1.59607	0.798035	
-1.59912	0.790405	
-1.59912	0.793457	
-1.60522	0.793457	
-1.60675	0.794983	
-1.60828	0.790405	
-1.61285	0.794983	
-1.61133	0.793457	
-1.61591	0.793457	
-1.61743	0.794983	
-1.62048	0.796509	
-1.62048	0.794983	
-1.62354	0.793457	
-1.62659	0.796509	
-1.62964	0.798035	
-1.63269	0.787354	
-1.63422	0.796509	
-1.63879	0.793457	
-1.64032	0.794983	
-1.6449	0.796509	
-1.6449	0.794983	
-1.64948	0.791931	
-1.65405	0.793457	
-1.65405	0.796509	
-1.66016	0.794983	
-1.66168	0.788879	
-1.66626	0.794983	
-1.66931	0.793457	
-1.67084	0.790405	
-1.67542	0.796509	
-1.67847	0.802612	
-1.68304	0.794983	
-1.68457	0.794983	
-1.68915	0.794983	
-1.69525	0.794983	
-1.6983	0.791931	
-1.70135	0.794983	
-1.70441	0.791931	
-1.71051	0.794983	
-1.71356	0.794983	
-1.71509	0.798035	
-1.72272	0.791931	
-1.72577	0.793457	
-1.72882	0.794983	
-1.73187	0.791931	
-1.73645	0.787354	
-1.74103	0.796509	
-1.74408	0.793457	
-1.75018	0.794983	
-1.75476	0.793457	
-1.75476	0.798035	
-1.75781	0.790405	
-1.76392	0.796509	
-1.76544	0.793457	
-1.76849	0.798035	
-1.77002	0.790405	
-1.77155	0.794983	
-1.7746	0.793457	
-1.77917	0.794983	
-1.77917	0.796509	
-1.7807	0.798035	
-1.77917	0.791931	
-1.78223	0.794983	
-1.7807	0.793457	
-1.77917	0.794983	
-1.77917	0.790405	
-1.77155	0.796509	
-1.77002	0.791931	
-1.76392	0.794983	
-1.75934	0.791931	
-1.75018	0.798035	
-1.74408	0.790405	
-1.73645	0.793457	
-1.72577	0.793457	
-1.71661	0.796509	
-1.70746	0.790405	
-1.69525	0.794983	
-1.68457	0.796509	
-1.66931	0.791931	
-1.65863	0.791931	
-1.64795	0.798035	
-1.63269	0.794983	
-1.62201	0.791931	
-1.6098	0.793457	
-1.59454	0.794983	
-1.58386	0.788879	
-1.57166	0.798035	
-1.55792	0.794983	
-1.54724	0.791931	
-1.53503	0.793457	
-1.52283	0.796509	
-1.51367	0.793457	
-1.50299	0.794983	
-1.49231	0.794983	
-1.4801	0.793457	
-1.46942	0.788879	
-1.46027	0.796509	
-1.45416	0.793457	
-1.44501	0.793457	
-1.43585	0.791931	
-1.42822	0.801086	
-1.42212	0.791931	
-1.41754	0.793457	
-1.40533	0.793457	
-1.40381	0.794983	
-1.39465	0.788879	
-1.3916	0.801086	
-1.38855	0.793457	
-1.38397	0.794983	
-1.37939	0.794983	
-1.37787	0.798035	
-1.37634	0.790405	
-1.36871	0.794983	
-1.36719	0.794983	
-1.36871	0.794983	
-1.36566	0.790405	
-1.36566	0.798035	
-1.36261	0.790405	
-1.36414	0.791931	
-1.36414	0.794983	
-1.36261	0.801086	
-1.36566	0.791931	
-1.36566	0.794983	
-1.36719	0.793457	
-1.36566	0.794983	
-1.36719	0.787354	
-1.36566	0.796509	
-1.37177	0.793457	
-1.37177	0.788879	
-1.37329	0.793457	
-1.37634	0.796509	
-1.37939	0.793457	
-1.38245	0.793457	
-1.38092	0.794983	
-1.3855	0.791931	
-1.38702	0.790405	
-1.38855	0.796509	
-1.39313	0.791931	
-1.39618	0.794983	
-1.39923	0.790405	
-1.40381	0.798035	
-1.40381	0.790405	
-1.40991	0.793457	
-1.40839	0.793457	
-1.41144	0.794983	
-1.41449	0.791931	
-1.41907	0.796509	
-1.42059	0.793457	
-1.42517	0.791931	
-1.4267	0.793457	
-1.43127	0.796509	
-1.4328	0.793457	
-1.43738	0.793457	
-1.44043	0.791931	
-1.44196	0.794983	
-1.44958	0.788879	
-1.44958	0.798035	
-1.45721	0.794983	
-1.46179	0.791931	
-1.46484	0.796509	
-1.46637	0.796509	
-1.47095	0.791931	
-1.47095	0.794983	
-1.47858	0.794983	
-1.48468	0.794983	
-1.49078	0.785828	
-1.49384	0.794983	
-1.49689	0.793457	
-1.50299	0.793457	
-1.50757	0.794983	
-1.51367	0.794983	
-1.5152	0.791931	
-1.5213	0.796509	
-1.52588	0.793457	
-1.53198	0.794983	
-1.53656	0.788879	
-1.53961	0.798035	
-1.54266	0.793457	
-1.54724	0.796509	
-1.55182	0.796509	
-1.55487	0.796509	
-1.5564	0.790405	
-1.55945	0.791931	
-1.56097	0.791931	
-1.56708	0.791931	
-1.5686	0.788879	
-1.57471	0.798035	
-1.57318	0.793457	
-1.57623	0.793457	
-1.57776	0.794983	
-1.57928	0.796509	
-1.57928	0.787354	
-1.58234	0.793457	
-1.58234	0.791931	
-1.58539	0.791931	
-1.58539	0.790405	
-1.58081	0.796509	
-1.58386	0.793457	
-1.58081	0.793457	
-1.58539	0.791931	
-1.58234	0.801086	
-1.58386	0.790405	
-1.58081	0.796509	
-1.58234	0.794983	
-1.57776	0.796509	
-1.57776	0.790405	
-1.57623	0.794983	
-1.57623	0.791931	
-1.57318	0.793457	
-1.57471	0.791931	
-1.57318	0.798035	
-1.57166	0.788879	
-1.5686	0.794983	
-1.5686	0.794983	
-1.56708	0.794983	
-1.56403	0.788879	
-1.56403	0.796509	
-1.56403	0.794983	
-1.56403	0.791931	
-1.55945	0.791931	
-1.55945	0.801086	
-1.55945	0.791931	
-1.55945	0.791931	
-1.55792	0.791931	
-1.55487	0.791931	
-1.5564	0.790405	
-1.5564	0.794983	
-1.55487	0.791931	
-1.55334	0.796509	
-1.55487	0.793457	
-1.55487	0.801086	
-1.55487	0.788879	
-1.55487	0.796509	
-1.55334	0.793457	
-1.55487	0.793457	
-1.55945	0.791931	
-1.5564	0.794983	
-1.55792	0.791931	
-1.55945	0.790405	
-1.55792	0.791931	
-1.56097	0.798035	
-1.55945	0.791931	
-1.56403	0.794983	
-1.56403	0.793457	
-1.5686	0.790405	
-1.56403	0.788879	
-1.5686	0.794983	
-1.57166	0.791931	
-1.57623	0.793457	
-1.57318	0.791931	
-1.57928	0.798035	
-1.58234	0.788879	
-1.58081	0.790405	
-1.58386	0.794983	
-1.58691	0.791931	
-1.58844	0.788879	
-1.59149	0.793457	
-1.59607	0.793457	
-1.60065	0.793457	
-1.60065	0.793457	
-1.60522	0.798035	
-1.60828	0.793457	
-1.61438	0.793457	
-1.61591	0.793457	
-1.61743	0.793457	
-1.61896	0.788879	
-1.62506	0.796509	
-1.62506	0.791931	
-1.62811	0.793457	
-1.63116	0.793457	
-1.63422	0.798035	
-1.63574	0.791931	
-1.64032	0.796509	
-1.64795	0.793457	
-1.6449	0.794983	
-1.64948	0.785828	
-1.65253	0.794983	
-1.66016	0.790405	
-1.66016	0.790405	
-1.66473	0.790405	
-1.67084	0.798035	
-1.67236	0.790405	
-1.67389	0.793457	
-1.68152	0.791931	
-1.68152	0.794983	
-1.68762	0.788879	
-1.69067	0.796509	
-1.69373	0.790405	
-1.69983	0.794983	
-1.70135	0.791931	
-1.70441	0.796509	
-1.70593	0.790405	
-1.71204	0.793457	
-1.71509	0.793457	
-1.71967	0.791931	
-1.72272	0.790405	
-1.72577	0.793457	
-1.72882	0.790405	
-1.7334	0.791931	
-1.7334	0.791931	
-1.73798	0.798035	
-1.7395	0.791931	
-1.74255	0.791931	
-1.74561	0.796509	
-1.74255	0.791931	
-1.74866	0.787354	
-1.74561	0.794983	
-1.74561	0.791931	
-1.74713	0.790405	
-1.74561	0.793457	
-1.74408	0.798035	
-1.7395	0.791931	
-1.7395	0.793457	
-1.7334	0.791931	
-1.72729	0.793457	
-1.71661	0.791931	
-1.71051	0.794983	
-1.70135	0.793457	
-1.69525	0.791931	
-1.68457	0.794983	
-1.67542	0.794983	
-1.66168	0.790405	
-1.651	0.793457	
-1.63574	0.791931	
-1.62506	0.791931	
-1.61438	0.791931	
-1.60065	0.796509	
-1.58691	0.791931	
-1.57776	0.793457	
-1.56403	0.793457	
-1.55334	0.796509	
-1.54114	0.791931	
-1.53046	0.794983	
-1.51672	0.794983	
-1.50452	0.793457	
-1.49536	0.790405	
-1.48315	0.791931	
-1.47247	0.791931	
-1.46332	0.793457	
-1.44958	0.794983	
-1.44196	0.796509	
-1.43127	0.788879	
-1.42059	0.793457	
-1.41449	0.794983	
-1.40228	0.794983	
-1.39618	0.788879	
-1.38855	0.796509	
-1.38092	0.790405	
-1.37939	0.794983	
-1.37177	0.791931	
-1.36566	0.794983	
-1.35956	0.791931	
-1.35498	0.794983	
-1.3504	0.791931	
-1.34583	0.791931	
-1.34125	0.787354	
-1.3382	0.793457	
-1.3382	0.794983	
-1.33362	0.793457	
-1.32904	0.790405	
-1.33057	0.796509	
-1.32446	0.790405	
-1.32446	0.794983	
-1.32446	0.796509	
-1.32294	0.794983	
-1.32446	0.788879	
-1.31989	0.794983	
-1.32294	0.793457	
-1.32141	0.796509	
-1.32446	0.794983	
-1.32141	0.801086	
-1.32599	0.790405	
-1.32599	0.798035	
-1.32904	0.794983	
-1.33057	0.793457	
-1.33209	0.788879	
-1.33362	0.796509	
-1.3382	0.793457	
-1.34125	0.791931	
-1.34277	0.793457	
-1.3443	0.796509	
-1.34735	0.791931	
-1.3504	0.793457	
-1.35345	0.793457	
-1.35498	0.796509	
-1.35651	0.790405	
-1.36108	0.796509	
-1.36261	0.791931	
-1.36261	0.791931	
-1.37024	0.793457	
-1.37024	0.796509	
-1.37024	0.791931	
-1.37634	0.794983	
-1.37939	0.794983	
-1.3855	0.794983	
-1.38702	0.787354	
-1.39008	0.794983	
-1.39618	0.793457	
-1.39771	0.796509	
-1.40076	0.791931	
-1.40228	0.801086	
-1.40991	0.787354	
-1.40991	0.793457	
-1.41602	0.793457	
-1.42212	0.790405	
-1.42517	0.788879	
-1.42975	0.793457	
-1.4328	0.793457	
-1.43738	0.793457	
-1.44043	0.793457	
-1.44653	0.798035	
-1.45416	0.788879	
-1.45569	0.796509	
-1.46179	0.793457	
-1.46332	0.793457	
-1.4679	0.790405	
-1.474	0.793457	
-1.47858	0.791931	
-1.48163	0.791931	
-1.48621	0.791931	
-1.49231	0.796509	
-1.49841	0.790405	
-1.50146	0.791931	
-1.50604	0.794983	
-1.50757	0.796509	
-1.51062	0.791931	
-1.51672	0.794983	
-1.51672	0.791931	
-1.51978	0.793457	
-1.52283	0.793457	
-1.52283	0.793457	
-1.53046	0.791931	
-1.53046	0.794983	
-1.53351	0.791931	
-1.53503	0.793457	
-1.53656	0.785828	
-1.53961	0.794983	
-1.53503	0.793457	
-1.53809	0.791931	
-1.53809	0.790405	
-1.53809	0.796509	
-1.53809	0.791931	
-1.53809	0.794983	
-1.53961	0.793457	
-1.53809	0.791931	
-1.53656	0.788879	
-1.53503	0.794983	
-1.53503	0.790405	
-1.53351	0.791931	
-1.53656	0.793457	
-1.53503	0.796509	
-1.53351	0.791931	
-1.53351	0.793457	
-1.53198	0.794983	
-1.52893	0.791931	
-1.52893	0.791931	
-1.52588	0.794983	
-1.52283	0.790405	
-1.52435	0.791931	
-1.52283	0.793457	
-1.51978	0.798035	
-1.5152	0.788879	
-1.51672	0.794983	
-1.51672	0.793457	
-1.51672	0.790405	
-1.51367	0.784302	
-1.5152	0.794983	
-1.51215	0.788879	
-1.50909	0.791931	
-1.50909	0.793457	
-1.51062	0.798035	
-1.50757	0.787354	
-1.50909	0.798035	
-1.51062	0.790405	
-1.50909	0.793457	
-1.50909	0.787354	
-1.50604	0.794983	
-1.51062	0.791931	
-1.50757	0.791931	
-1.50604	0.793457	
-1.50757	0.798035	
-1.50757	0.790405	
-1.51062	0.794983	
-1.51062	0.791931	
-1.51062	0.790405	
-1.50909	0.787354	
-1.51215	0.798035	
-1.51367	0.791931	
-1.5152	0.794983	
-1.5152	0.793457	
-1.51672	0.796509	
-1.51367	0.791931	
-1.51825	0.793457	
-1.5213	0.793457	
-1.5213	0.793457	
-1.52435	0.788879	
-1.52588	0.793457	
-1.52893	0.793457	
-1.53046	0.793457	
-1.53351	0.793457	
-1.53503	0.796509	
-1.53809	0.793457	
-1.54266	0.793457	
-1.54419	0.793457	
-1.54572	0.794983	
-1.54724	0.790405	
-1.54877	0.793457	
-1.55182	0.791931	
-1.5564	0.791931	
-1.55945	0.794983	
-1.56097	0.796509	
-1.56403	0.791931	
-1.57013	0.794983	
-1.57166	0.791931	
-1.57623	0.791931	
-1.57776	0.787354	
-1.58081	0.794983	
-1.58691	0.790405	
-1.58539	0.791931	
-1.59149	0.790405	
-1.59454	0.798035	
-1.59607	0.790405	
-1.60065	0.793457	
-1.60522	0.794983	
-1.60828	0.794983	
-1.61591	0.787354	
-1.61438	0.794983	
-1.62048	0.788879	
-1.62201	0.788879	
-1.62659	0.793457	
-1.63116	0.798035	
-1.63269	0.793457	
-1.63727	0.791931	
-1.64642	0.796509	
-1.64795	0.793457	
-1.64948	0.790405	
-1.65253	0.793457	
-1.66016	0.793457	
-1.66168	0.791931	
-1.66626	0.788879	
-1.66931	0.796509	
-1.67084	0.788879	
-1.67694	0.793457	
-1.68457	0.794983	
-1.68457	0.793457	
-1.68915	0.784302	
-1.68915	0.796509	
-1.69525	0.788879	
-1.70135	0.793457	
-1.70441	0.794983	
-1.70593	0.798035	
-1.70898	0.788879	
-1.71204	0.793457	
-1.71051	0.793457	
-1.71509	0.796509	
-1.71509	0.788879	
-1.71661	0.794983	
-1.71661	0.790405	
-1.71509	0.790405	
-1.71356	0.790405	
-1.70898	0.793457	
-1.70746	0.790405	
-1.70288	0.794983	
-1.69678	0.791931	
-1.69373	0.793457	
-1.68304	0.788879	
-1.66931	0.794983	
-1.66473	0.790405	
-1.65253	0.791931	
-1.64337	0.793457	
-1.62659	0.796509	
-1.61896	0.787354	
-1.60522	0.793457	
-1.59149	0.793457	
-1.57928	0.791931	
-1.56403	0.788879	
-1.55029	0.796509	
-1.53809	0.790405	
-1.52283	0.788879	
-1.50757	0.790405	
-1.49384	0.798035	
-1.4801	0.794983	
-1.46332	0.793457	
-1.44958	0.793457	
-1.4389	0.791931	
-1.4267	0.787354	
-1.41449	0.794983	
-1.40228	0.788879	
-1.39313	0.791931	
-1.37634	0.790405	
-1.37024	0.798035	
-1.35956	0.788879	
-1.35193	0.794983	
-1.34277	0.794983	
-1.33057	0.790405	
-1.32446	0.785828	
-1.31531	0.794983	
-1.30463	0.790405	
-1.30005	0.793457	
-1.29395	0.790405	
-1.28937	0.801086	
-1.28021	0.790405	
-1.27716	0.791931	
-1.27106	0.793457	
-1.26495	0.793457	
-1.25885	0.785828	
-1.25732	0.794983	
-1.25275	0.790405	
-1.25275	0.793457	
-1.24969	0.794983	
-1.24664	0.798035	
-1.24207	0.790405	
-1.24207	0.793457	
-1.24359	0.793457	
-1.24054	0.791931	
-1.24054	0.787354	
-1.24054	0.796509	
-1.24207	0.790405	
-1.24054	0.790405	
-1.24054	0.791931	
-1.24359	0.798035	
-1.24207	0.785828	
-1.24207	0.793457	
-1.24664	0.793457	
-1.24817	0.793457	
-1.24664	0.788879	
-1.24664	0.794983	
-1.24664	0.791931	
-1.24969	0.790405	
-1.25275	0.791931	
-1.2558	0.796509	
-1.25732	0.790405	
-1.25732	0.796509	
-1.2619	0.791931	
-1.26801	0.791931	
-1.26953	0.785828	
-1.26801	0.793457	
-1.27563	0.788879	
-1.27716	0.793457	
-1.27869	0.791931	
-1.27869	0.796509	
-1.28174	0.788879	
-1.28479	0.796509	
-1.28632	0.791931	
-1.28784	0.791931	
-1.29395	0.787354	
-1.29547	0.794983	
-1.29547	0.790405	
-1.30463	0.791931	
-1.30463	0.790405	
-1.3092	0.796509	
-1.31226	0.788879	
-1.31378	0.793457	
-1.31836	0.790405	
-1.31683	0.794983	
-1.32141	0.787354	
-1.32751	0.794983	
-1.33209	0.788879	
-1.33209	0.791931	
-1.33514	0.790405	
-1.34125	0.796509	
-1.3443	0.790405	
-1.35193	0.794983	
-1.35193	0.793457	
-1.35651	0.791931	
-1.35956	0.784302	
-1.36414	0.793457	
-1.37024	0.790405	
-1.37329	0.788879	
-1.37787	0.791931	
-1.37939	0.798035	
-1.3855	0.787354	
-1.3855	0.793457	
-1.3916	0.794983	
-1.39313	0.791931	
-1.40076	0.787354	
-1.40381	0.791931	
-1.40686	0.788879	
-1.41144	0.790405	
-1.40991	0.791931	
-1.41602	0.798035	
-1.41907	0.790405	
-1.42059	0.788879	
-1.42365	0.794983	
-1.42365	0.791931	
-1.4267	0.785828	
-1.42517	0.791931	
-1.42822	0.788879	
-1.42975	0.790405	
-1.4328	0.790405	
-1.43738	0.798035	
-1.43585	0.790405	
-1.43738	0.794983	
-1.43738	0.790405	
-1.43433	0.791931	
-1.43738	0.784302	
-1.43738	0.796509	
-1.43585	0.790405	
-1.43738	0.791931	
-1.43585	0.791931	
-1.43738	0.798035	
-1.43585	0.788879	
-1.43738	0.794983	
-1.43738	0.794983	
-1.43585	0.793457	
-1.43585	0.785828	
-1.43433	0.793457	
-1.43585	0.788879	
-1.43433	0.788879	
-1.4328	0.793457	
-1.43127	0.796509	
-1.43127	0.787354	
-1.43127	0.791931	
-1.42975	0.791931	
-1.4267	0.793457	
-1.42975	0.785828	
-1.42822	0.793457	
-1.42517	0.790405	
-1.42822	0.790405	
-1.4267	0.788879	
-1.42365	0.798035	
-1.42517	0.785828	
-1.42517	0.791931	
-1.42822	0.790405	
-1.4267	0.791931	
-1.42822	0.784302	
-1.42517	0.791931	
-1.43127	0.790405	
-1.42975	0.790405	
-1.4328	0.790405	
-1.42975	0.796509	
-1.43127	0.788879	
-1.43433	0.791931	
-1.43433	0.796509	
-1.43585	0.791931	
-1.43585	0.787354	
-1.44043	0.794983	
-1.43738	0.788879	
-1.44196	0.791931	
-1.44348	0.791931	
-1.44348	0.796509	
-1.44501	0.790405	
-1.44653	0.794983	
-1.44958	0.791931	
-1.45721	0.790405	
-1.45721	0.785828	
-1.46027	0.793457	
-1.46332	0.788879	
-1.46484	0.790405	
-1.46637	0.788879	
-1.46942	0.798035	
-1.47247	0.787354	
-1.47705	0.796509	
-1.47705	0.790405	
-1.4801	0.790405	
-1.48468	0.788879	
-1.48773	0.794983	
-1.49384	0.788879	
-1.49689	0.790405	
-1.49689	0.790405	
-1.49994	0.796509	
-1.50452	0.788879	
-1.50757	0.791931	
-1.51367	0.790405	
-1.51672	0.794983	
-1.51672	0.785828	
-1.52283	0.793457	
-1.52588	0.787354	
-1.53046	0.791931	
-1.53351	0.791931	
-1.53503	0.798035	
-1.54114	0.788879	
-1.54266	0.791931	
-1.54724	0.790405	
-1.55334	0.793457	
-1.55334	0.782776	
-1.55945	0.791931	
-1.5625	0.787354	
-1.5686	0.788879	
-1.57013	0.793457	
-1.57471	0.801086	
-1.57928	0.787354	
-1.57928	0.793457	
-1.58997	0.794983	
-1.58691	0.790405	
-1.59302	0.784302	
-1.59607	0.793457	
-1.60217	0.785828	
-1.60828	0.791931	
-1.61133	0.790405	
-1.6098	0.796509	
-1.61743	0.787354	
-1.62048	0.793457	
-1.62659	0.793457	
-1.62811	0.791931	
-1.63269	0.782776	
-1.63574	0.793457	
-1.64032	0.787354	
-1.64642	0.788879	
-1.64795	0.788879	
-1.65253	0.796509	
-1.65863	0.788879	
-1.66168	0.794983	
-1.66473	0.791931	
-1.66931	0.793457	
-1.67542	0.785828	
-1.67694	0.790405	
-1.67847	0.788879	
-1.6861	0.788879	
-1.68915	0.790405	
-1.69373	0.798035	
-1.69373	0.788879	
-1.69983	0.791931	
-1.70288	0.793457	
-1.70441	0.791931	
-1.70898	0.78125	
-1.70898	0.791931	
-1.71051	0.787354	
-1.71051	0.791931	
-1.71051	0.788879	
-1.70746	0.794983	
-1.70746	0.787354	
-1.70441	0.791931	
-1.70135	0.790405	
-1.6983	0.791931	
-1.69067	0.785828	
-1.6861	0.793457	
-1.67389	0.784302	
-1.66473	0.788879	
-1.6571	0.790405	
-1.6449	0.796509	
-1.63422	0.788879	
-1.62201	0.791931	
-1.61285	0.790405	
-1.5976	0.788879	
-1.58691	0.784302	
-1.57623	0.794983	
-1.55792	0.787354	
-1.54724	0.791931	
-1.53351	0.787354	
-1.51978	0.796509	
-1.50757	0.788879	
-1.49384	0.793457	
-1.48163	0.790405	
-1.46484	0.794983	
-1.45416	0.784302	
-1.44043	0.791931	
-1.43127	0.788879	
-1.42059	0.790405	
-1.40839	0.788879	
-1.39618	0.801086	
-1.38855	0.787354	
-1.37634	0.791931	
-1.36719	0.793457	
-1.35956	0.791931	
-1.3504	0.784302	
-1.33972	0.791931	
-1.33362	0.790405	
-1.32599	0.788879	
-1.31836	0.791931	
-1.31226	0.796509	
-1.30615	0.790405	
-1.297	0.794983	
-1.30005	0.791931	
-1.29242	0.791931	
-1.28479	0.785828	
-1.28021	0.794983	
-1.27869	0.788879	
-1.27411	0.791931	
-1.27411	0.790405	
-1.26953	0.798035	
-1.26953	0.790405	
-1.26648	0.793457	
-1.26648	0.791931	
-1.26343	0.793457	
-1.26648	0.782776	
-1.26495	0.793457	
-1.26495	0.787354	
-1.2619	0.793457	
-1.26495	0.793457	
-1.26343	0.801086	
-1.26495	0.790405	
-1.26953	0.793457	
-1.26953	0.790405	
-1.27106	0.793457	
-1.27106	0.784302	
-1.27563	0.793457	
-1.27563	0.785828	
-1.27869	0.794983	
-1.28174	0.790405	
-1.28021	0.794983	
-1.28632	0.790405	
-1.28784	0.798035	
-1.29242	0.788879	
-1.29395	0.791931	
-1.30005	0.784302	
-1.30157	0.794983	
-1.3031	0.787354	
-1.30615	0.790405	
-1.30768	0.790405	
-1.31226	0.796509	
-1.31378	0.790405	
-1.31683	0.794983	
-1.32141	0.793457	
-1.32294	0.790405	
-1.32446	0.784302	
-1.32751	0.790405	
-1.33057	0.788879	
-1.33514	0.788879	
-1.34125	0.790405	
-1.34583	0.798035	
-1.34583	0.788879	
-1.3504	0.793457	
-1.35193	0.788879	
-1.35345	0.790405	
-1.35956	0.782776	
-1.35956	0.793457	
-1.36566	0.785828	
-1.36719	0.790405	
-1.36871	0.785828	
-1.37787	0.798035	
-1.38092	0.790405	
-1.38397	0.793457	
-1.38702	0.793457	
-1.38855	0.790405	
-1.39313	0.785828	
-1.39923	0.791931	
-1.40228	0.787354	
-1.40533	0.791931	
-1.40839	0.788879	
-1.41449	0.798035	
-1.41754	0.787354	
-1.42365	0.793457	
-1.42517	0.791931	
-1.42822	0.793457	
-1.4328	0.785828	
-1.43433	0.793457	
-1.43585	0.785828	
-1.4389	0.788879	
-1.44196	0.788879	
-1.44501	0.794983	
-1.44806	0.791931	
-1.45264	0.794983	
-1.45416	0.791931	
-1.45721	0.793457	
-1.45721	0.784302	
-1.46332	0.794983	
-1.46484	0.790405	
-1.46332	0.790405	
-1.46637	0.790405	
-1.4679	0.796509	
-1.47095	0.790405	
-1.47095	0.791931	
-1.47095	0.791931	
-1.47247	0.793457	
-1.474	0.785828	
-1.47247	0.791931	
-1.47552	0.788879	
-1.474	0.788879	
-1.47552	0.788879	
-1.47705	0.796509	
-1.47552	0.788879	
-1.47705	0.791931	
-1.47247	0.791931	
-1.47552	0.788879	
-1.47705	0.785828	
-1.47552	0.791931	
-1.47858	0.787354	
-1.474	0.788879	
-1.47705	0.788879	
-1.474	0.798035	
-1.47552	0.785828	
-1.474	0.791931	
-1.47552	0.790405	
-1.47552	0.790405	
-1.47705	0.784302	
-1.47552	0.793457	
-1.47705	0.787354	
-1.47552	0.791931	
-1.474	0.791931	
-1.474	0.794983	
-1.474	0.787354	
-1.47552	0.794983	
-1.474	0.788879	
-1.47247	0.790405	
-1.47247	0.782776	
-1.47247	0.791931	
-1.474	0.784302	
-1.47247	0.788879	
-1.47247	0.791931	
-1.47247	0.794983	
-1.474	0.787354	
-1.474	0.791931	
-1.47552	0.791931	
-1.47552	0.788879	
-1.47705	0.78125	
-1.47705	0.787354	
-1.47858	0.784302	
-1.48163	0.790405	
-1.48163	0.790405	
-1.48468	0.794983	
-1.48773	0.790405	
-1.49078	0.794983	
-1.49231	0.788879	
-1.49231	0.790405	
-1.49841	0.784302	
-1.49841	0.793457	
-1.49841	0.788879	
-1.50146	0.790405	
-1.50604	0.790405	
-1.50757	0.794983	
-1.50909	0.790405	
-1.51062	0.791931	
-1.51367	0.791931	
-1.51672	0.791931	
-1.51978	0.782776	
-1.52283	0.788879	
-1.52588	0.787354	
-1.53046	0.791931	
-1.53656	0.790405	
-1.53809	0.796509	
-1.53961	0.788879	
-1.54266	0.796509	
-1.54419	0.788879	
-1.54572	0.791931	
-1.55029	0.78125	
-1.55487	0.790405	
-1.55792	0.787354	
-1.56097	0.788879	
-1.56708	0.790405	
-1.57166	0.793457	
-1.57166	0.790405	
-1.57623	0.790405	
-1.57928	0.791931	
-1.58386	0.788879	
-1.58691	0.784302	
-1.58844	0.793457	
-1.59149	0.785828	
-1.59607	0.788879	
-1.60065	0.787354	
-1.60217	0.801086	
-1.60675	0.788879	
-1.6098	0.793457	
-1.61285	0.790405	
-1.62048	0.791931	
-1.61896	0.78125	
-1.62354	0.791931	
-1.62811	0.784302	
-1.62964	0.790405	
-1.62964	0.788879	
-1.63269	0.798035	
-1.63727	0.788879	
-1.63879	0.791931	
-1.6449	0.788879	
-1.64795	0.793457	
-1.64948	0.784302	
-1.65405	0.788879	
-1.6571	0.787354	
-1.66016	0.785828	
-1.66168	0.788879	
-1.66168	0.794983	
-1.67084	0.787354	
-1.66931	0.791931	
-1.67236	0.790405	
-1.68152	0.790405	
-1.68152	0.779724	
-1.68152	0.790405	
-1.68762	0.785828	
-1.69067	0.788879	
-1.6922	0.787354	
-1.6983	0.793457	
-1.70288	0.785828	
-1.70441	0.793457	
-1.70746	0.790405	
-1.71204	0.787354	
-1.71051	0.779724	
-1.71967	0.790405	
-1.71967	0.784302	
-1.72272	0.790405	
-1.72577	0.790405	
-1.73035	0.794983	
-1.7334	0.787354	
-1.73645	0.793457	
-1.7395	0.787354	
-1.74408	0.788879	
-1.74408	0.78125	
-1.74713	0.790405	
-1.75171	0.784302	
-1.75476	0.788879	
-1.75781	0.791931	
-1.76086	0.793457	
-1.76239	0.788879	
-1.76239	0.791931	
-1.76544	0.787354	
-1.77002	0.788879	
-1.76544	0.78125	
-1.76544	0.790405	
-1.76392	0.784302	
-1.76392	0.790405	
-1.75934	0.790405	
-1.75934	0.796509	
-1.75171	0.785828	
-1.74561	0.791931	
-1.73645	0.787354	
-1.73187	0.788879	
-1.72272	0.782776	
-1.71051	0.788879	
-1.70441	0.787354	
-1.68915	0.787354	
-1.67847	0.790405	
-1.66321	0.794983	
-1.651	0.787354	
-1.63422	0.791931	
-1.62201	0.787354	
-1.6098	0.791931	
-1.59454	0.78125	
-1.57928	0.790405	
-1.56403	0.782776	
-1.54877	0.785828	
-1.53656	0.788879	
-1.51978	0.794983	
-1.50604	0.787354	
-1.49384	0.788879	
-1.4801	0.788879	
-1.46637	0.790405	
-1.45721	0.782776	
-1.44196	0.788879	
-1.42975	0.784302	
-1.41754	0.790405	
-1.40839	0.788879	
-1.39618	0.796509	
-1.38397	0.787354	
-1.37787	0.791931	
-1.36414	0.790405	
-1.35803	0.788879	
-1.34888	0.782776	
-1.34277	0.788879	
-1.33362	0.785828	
-1.32599	0.788879	
-1.31989	0.787354	
-1.31531	0.790405	
-1.31226	0.788879	
-1.30463	0.793457	
-1.30005	0.790405	
-1.29547	0.790405	
-1.29089	0.78125	
-1.28937	0.787354	
-1.28784	0.785828	
-1.28326	0.790405	
-1.28174	0.787354	
-1.28479	0.793457	
-1.28021	0.788879	
-1.27869	0.791931	
-1.27869	0.788879	
-1.27716	0.788879	
-1.27716	0.784302	
-1.27869	0.788879	
-1.27869	0.785828	
-1.28021	0.787354	
-1.28174	0.787354	
-1.28021	0.794983	
-1.28326	0.787354	
-1.28326	0.790405	
-1.28937	0.788879	
-1.28937	0.791931	
-1.29089	0.78125	
-1.29242	0.790405	
-1.29547	0.784302	
-1.297	0.790405	
-1.30157	0.787354	
-1.3031	0.796509	
-1.3092	0.785828	
-1.30768	0.793457	
-1.31073	0.790405	
-1.31378	0.788879	
-1.31683	0.78125	
-1.31989	0.787354	
-1.32446	0.785828	
-1.32904	0.790405	
-1.32904	0.787354	
-1.33362	0.794983	
-1.33514	0.788879	
-1.34125	0.790405	
-1.34277	0.787354	
-1.3443	0.787354	
-1.34583	0.78125	
-1.34888	0.790405	
-1.35193	0.784302	
-1.35651	0.785828	
-1.36108	0.787354	
-1.36108	0.794983	
-1.36414	0.785828	
-1.36719	0.790405	
-1.36871	0.788879	
-1.37329	0.788879	
-1.37939	0.779724	
-1.38397	0.788879	
-1.38092	0.784302	
-1.39008	0.791931	
-1.38855	0.788879	
-1.39313	0.796509	
-1.39618	0.787354	
-1.39771	0.791931	
-1.40381	0.785828	
-1.40839	0.791931	
-1.41144	0.78125	
-1.41754	0.790405	
-1.42212	0.784302	
-1.42517	0.790405	
-1.42822	0.787354	
-1.4328	0.794983	
-1.43433	0.785828	
-1.43738	0.793457	
-1.44196	0.790405	
-1.44653	0.788879	
-1.44806	0.78125	
-1.45721	0.787354	
-1.46027	0.785828	
-1.46332	0.787354	
-1.46484	0.784302	
-1.4679	0.791931	
-1.47095	0.784302	
-1.4679	0.788879	
-1.47552	0.787354	
-1.47858	0.787354	
-1.48163	0.778198	
-1.48163	0.791931	
-1.48315	0.785828	
-1.48468	0.788879	
-1.48773	0.787354	
-1.48773	0.794983	
-1.48773	0.784302	
-1.49384	0.791931	
-1.49384	0.790405	
-1.49689	0.788879	
-1.49841	0.782776	
-1.49689	0.787354	
-1.50146	0.782776	
-1.49994	0.787354	
-1.50146	0.788879	
-1.50299	0.793457	
-1.50299	0.785828	
-1.50452	0.791931	
-1.50452	0.787354	
-1.50299	0.785828	
-1.49994	0.782776	
-1.50299	0.788879	
-1.50299	0.782776	
-1.50146	0.785828	
-1.50299	0.790405	
-1.50146	0.793457	
-1.49994	0.787354	
-1.50299	0.790405	
-1.50146	0.784302	
-1.49994	0.787354	
-1.49994	0.78125	
-1.49841	0.785828	
-1.49841	0.779724	
-1.49536	0.785828	
-1.50146	0.787354	
-1.49689	0.794983	
-1.49841	0.787354	
-1.49689	0.790405	
-1.49994	0.788879	
-1.50146	0.785828	
-1.49841	0.78125	
-1.49994	0.785828	
-1.50452	0.785828	
-1.50146	0.787354	
-1.50299	0.787354	
-1.50452	0.793457	
-1.50452	0.787354	
-1.50452	0.791931	
-1.50757	0.788879	
-1.50604	0.788879	
-1.51062	0.779724	
-1.50909	0.788879	
-1.51367	0.785828	
-1.5152	0.787354	
-1.51672	0.785828	
-1.51825	0.796509	
-1.51978	0.787354	
-1.5213	0.791931	
-1.52283	0.790405	
-1.52588	0.785828	
-1.52588	0.784302	
-1.53046	0.793457	
-1.53503	0.782776	
-1.53809	0.788879	
-1.54114	0.788879	
-1.54266	0.794983	
-1.54572	0.788879	
-1.54724	0.788879	
-1.54877	0.790405	
-1.55487	0.788879	
-1.5564	0.78125	
-1.56097	0.788879	
-1.56097	0.782776	
-1.56403	0.785828	
-1.57013	0.787354	
-1.57471	0.793457	
-1.57776	0.785828	
-1.58081	0.790405	
-1.58386	0.788879	
-1.58691	0.787354	
-1.58844	0.78125	
-1.59607	0.790405	
-1.59607	0.782776	
-1.59912	0.787354	
-1.60522	0.788879	
-1.61133	0.796509	
-1.61438	0.785828	
-1.62048	0.788879	
-1.62201	0.790405	
-1.62354	0.785828	
-1.62659	0.782776	
-1.63269	0.785828	
-1.63879	0.782776	
-1.64337	0.787354	
-1.64337	0.785828	
-1.651	0.796509	
-1.65405	0.785828	
-1.65863	0.790405	
-1.66168	0.787354	
-1.66321	0.787354	
-1.66779	0.78125	
-1.67236	0.788879	
-1.67542	0.784302	
-1.67847	0.785828	
-1.68304	0.787354	
-1.6861	0.793457	
-1.69067	0.785828	
-1.6922	0.790405	
-1.69678	0.784302	
-1.70135	0.788879	
-1.70441	0.779724	
-1.70746	0.790405	
-1.71356	0.785828	
-1.71661	0.784302	
-1.71967	0.788879	
-1.72729	0.796509	
-1.72729	0.787354	
-1.73035	0.787354	
-1.73187	0.787354	
-1.73645	0.788879	
-1.73492	0.776672	
-1.74255	0.787354	
-1.74408	0.782776	
-1.75018	0.785828	
-1.75018	0.787354	
-1.75323	0.791931	
-1.75934	0.785828	
-1.76086	0.787354	
-1.76849	0.787354	
-1.77002	0.785828	
-1.77307	0.776672	
-1.77307	0.787354	
-1.7746	0.782776	
-1.77765	0.784302	
-1.78375	0.787354	
-1.78375	0.791931	
-1.78833	0.784302	
-1.78986	0.788879	
-1.79138	0.788879	
-1.79901	0.784302	
-1.80054	0.782776	
-1.80359	0.787354	
-1.80817	0.782776	
-1.80817	0.784302	
-1.81274	0.787354	
-1.81274	0.793457	
-1.82037	0.785828	
-1.8219	0.788879	
-1.82343	0.788879	
-1.83105	0.790405	
-1.83105	0.779724	
-1.83411	0.787354	
-1.84021	0.784302	
-1.84021	0.785828	
-1.84631	0.788879	
-1.84784	0.791931	
-1.85242	0.784302	
-1.85547	0.790405	
-1.85699	0.785828	
-1.86005	0.785828	
-1.8631	0.78125	
-1.86462	0.785828	
-1.87225	0.782776	
-1.87378	0.785828	
-1.87683	0.785828	
-1.87836	0.794983	
-1.88293	0.785828	
-1.88599	0.791931	
-1.88751	0.790405	
-1.89209	0.785828	
-1.89209	0.78125	
-1.89514	0.788879	
-1.89667	0.782776	
-1.89667	0.785828	
-1.89972	0.785828	
-1.89819	0.794983	
-1.89972	0.784302	
-1.89514	0.790405	
-1.89514	0.785828	
-1.89362	0.785828	
-1.89056	0.78125	
-1.88446	0.788879	
-1.87836	0.782776	
-1.87378	0.785828	
-1.86615	0.784302	
-1.85394	0.793457	
-1.84479	0.785828	
-1.83105	0.788879	
-1.81885	0.784302	
-1.80206	0.785828	
-1.78986	0.778198	
-1.77612	0.787354	
-1.76086	0.782776	
-1.74408	0.784302	
-1.72882	0.788879	
-1.71356	0.791931	
-1.69525	0.785828	
-1.68152	0.791931	
-1.66626	0.784302	
-1.64948	0.787354	
-1.63269	0.778198	
-1.61896	0.788879	
-1.60217	0.784302	
-1.58691	0.784302	
-1.57471	0.788879	
-1.55945	0.793457	
-1.54572	0.784302	
-1.53503	0.788879	
-1.5213	0.791931	
-1.50909	0.784302	
-1.49841	0.778198	
-1.48621	0.787354	
-1.47705	0.782776	
-1.46179	0.784302	
-1.45416	0.785828	
-1.44806	0.794983	
-1.43433	0.784302	
-1.42975	0.790405	
-1.42059	0.787354	
-1.41449	0.782776	
-1.40381	0.779724	
-1.39923	0.785828	
-1.3916	0.784302	
-1.38702	0.785828	
-1.3855	0.788879	
-1.38245	0.793457	
-1.37787	0.784302	
-1.37329	0.788879	
-1.37024	0.784302	
-1.37024	0.785828	
-1.36719	0.782776	
-1.36414	0.787354	
-1.36719	0.782776	
-1.36414	0.78125	
-1.36414	0.785828	
-1.36414	0.793457	
-1.36414	0.787354	
-1.36414	0.790405	
-1.36719	0.788879	
-1.36719	0.785828	
-1.36719	0.78125	
-1.36719	0.788879	
-1.37177	0.782776	
-1.37024	0.785828	
-1.37787	0.787354	
-1.37634	0.790405	
-1.37939	0.784302	
-1.3855	0.788879	
-1.38702	0.787354	
-1.38855	0.787354	
-1.39008	0.779724	
-1.39618	0.787354	
-1.39771	0.784302	
-1.40228	0.787354	
-1.40533	0.787354	
-1.40686	0.793457	
-1.41449	0.782776	
-1.41449	0.788879	
-1.41754	0.788879	
-1.42212	0.787354	
-1.42822	0.78125	
-1.42975	0.788879	
-1.43433	0.785828	
-1.43738	0.784302	
-1.44196	0.787354	
-1.44501	0.790405	
-1.44958	0.784302	
-1.45264	0.790405	
-1.45721	0.788879	
-1.45721	0.784302	
-1.46179	0.776672	
-1.46637	0.788879	
-1.46942	0.78125	
-1.474	0.782776	
-1.47552	0.787354	
-1.4801	0.794983	
-1.48468	0.784302	
-1.48773	0.788879	
-1.49384	0.788879	
-1.49841	0.782776	
-1.50299	0.778198	
-1.50452	0.790405	
-1.51062	0.779724	
-1.51367	0.785828	
-1.51825	0.787354	
-1.52283	0.793457	
-1.52588	0.782776	
-1.53351	0.791931	
-1.53809	0.788879	
-1.54114	0.784302	
-1.54419	0.778198	
-1.54877	0.784302	
-1.55182	0.787354	
-1.55792	0.784302	
-1.5625	0.785828	
-1.56403	0.793457	
-1.56708	0.787354	
-1.57623	0.788879	
-1.57776	0.784302	
-1.57928	0.787354	
-1.58234	0.776672	
-1.58691	0.787354	
-1.58997	0.782776	
-1.59302	0.784302	
-1.59454	0.788879	
-1.59607	0.791931	
-1.60065	0.782776	
-1.59912	0.787354	
-1.60217	0.787354	
-1.60217	0.785828	
-1.60675	0.776672	
-1.6098	0.787354	
-1.60828	0.782776	
-1.6098	0.787354	
-1.6098	0.785828	
-1.61133	0.793457	
-1.61438	0.784302	
-1.61133	0.787354	
-1.61133	0.787354	
-1.60828	0.78125	
-1.61133	0.778198	
-1.6098	0.788879	
-1.60828	0.779724	
-1.61133	0.784302	
-1.60828	0.787354	
-1.60675	0.790405	
-1.6098	0.785828	
-1.60828	0.785828	
-1.6098	0.782776	
-1.60828	0.787354	
-1.60828	0.778198	
-1.60522	0.785828	
-1.60675	0.784302	
-1.60675	0.787354	
-1.60828	0.784302	
-1.60522	0.790405	
-1.60522	0.784302	
-1.60522	0.788879	
-1.60522	0.785828	
-1.60217	0.784302	
-1.60522	0.778198	
-1.60522	0.787354	
-1.59912	0.78125	
-1.60522	0.784302	
-1.60065	0.785828	
-1.60522	0.791931	
-1.60522	0.784302	
-1.60522	0.788879	
-1.60522	0.787354	
-1.60675	0.784302	
-1.60522	0.778198	
-1.60675	0.788879	
-1.6098	0.78125	
-1.61133	0.782776	
-1.61133	0.787354	
-1.61285	0.793457	
-1.61591	0.784302	
-1.61743	0.787354	
-1.61896	0.784302	
-1.62048	0.785828	
-1.62201	0.778198	
-1.62354	0.784302	
-1.62354	0.782776	
-1.62811	0.782776	
-1.62811	0.784302	
-1.63269	0.791931	
-1.63269	0.785828	
-1.63574	0.787354	
-1.64032	0.785828	
-1.64032	0.782776	
-1.64642	0.779724	
-1.64795	0.788879	
-1.651	0.78125	
-1.65558	0.782776	
-1.6571	0.785828	
-1.6571	0.788879	
-1.66016	0.782776	
-1.66321	0.790405	
-1.66779	0.787354	
-1.66931	0.785828	
-1.67389	0.778198	
-1.67694	0.787354	
-1.68457	0.78125	
-1.68762	0.782776	
-1.68915	0.784302	
-1.69525	0.790405	
-1.69983	0.782776	
-1.70135	0.787354	
-1.70593	0.785828	
-1.70746	0.784302	
-1.71204	0.778198	
-1.71661	0.785828	
-1.71967	0.78125	
-1.72424	0.782776	
-1.72577	0.785828	
-1.73187	0.788879	
-1.7334	0.782776	
-1.73645	0.785828	
-1.74103	0.785828	
-1.74408	0.785828	
-1.75018	0.778198	
-1.74866	0.787354	
-1.75476	0.779724	
-1.76239	0.782776	
-1.76544	0.782776	
-1.76697	0.790405	
-1.77002	0.785828	
-1.77307	0.785828	
-1.77917	0.788879	
-1.78375	0.784302	
-1.7868	0.78125	
-1.78986	0.785828	
-1.79138	0.782776	
-1.79749	0.782776	
-1.79901	0.787354	
-1.80206	0.791931	
-1.80664	0.782776	
-1.81122	0.785828	
-1.81122	0.784302	
-1.81427	0.784302	
-1.81885	0.778198	
-1.82343	0.784302	
-1.82495	0.78125	
-1.828	0.782776	
-1.828	0.788879	
-1.83868	0.790405	
-1.84021	0.784302	
-1.84174	0.787354	
-1.84326	0.782776	
-1.84631	0.784302	
-1.85242	0.779724	
-1.85242	0.784302	
-1.85547	0.78125	
-1.85852	0.78125	
-1.86157	0.785828	
-1.86615	0.791931	
-1.8692	0.78125	
-1.87378	0.787354	
-1.87836	0.782776	
-1.88293	0.785828	
-1.88293	0.776672	
-1.88751	0.784302	
-1.89056	0.778198	
-1.89362	0.78125	
-1.89667	0.784302	
-1.90125	0.788879	
-1.90277	0.784302	
-1.9043	0.785828	
-1.91193	0.782776	
-1.91345	0.78125	
-1.9165	0.779724	
-1.91803	0.785828	
-1.92261	0.782776	
-1.92413	0.784302	
-1.92719	0.785828	
-1.93024	0.787354	
-1.93481	0.78125	
-1.93481	0.785828	
-1.93939	0.785828	
-1.94244	0.784302	
-1.9455	0.778198	
-1.94855	0.785828	
-1.9516	0.78125	
-1.9516	0.785828	
-1.95618	0.787354	
-1.9577	0.787354	
-1.96228	0.782776	
-1.96228	0.787354	
-1.96686	0.790405	
-1.96533	0.782776	
-1.97144	0.779724	
-1.97144	0.785828	
-1.97449	0.779724	
-1.98059	0.784302	
-1.98059	0.785828	
-1.98669	0.787354	
-1.98822	0.784302	
-1.9928	0.785828	
-1.9928	0.784302	
-1.99585	0.782776	
-1.99738	0.779724	
-2.00348	0.784302	
-2.00348	0.778198	
-2.005	0.784302	
-2.00653	0.784302	
-2.01263	0.785828	
-2.01569	0.78125	
-2.01874	0.785828	
-2.01721	0.787354	
-2.02026	0.785828	
-2.02484	0.78125	
-2.02789	0.782776	
-2.02789	0.782776	
-2.02637	0.784302	
-2.02942	0.782776	
-2.02637	0.787354	
-2.02637	0.78125	
-2.02179	0.787354	
-2.02026	0.784302	
-2.01874	0.782776	
-2.01569	0.78125	
-2.00806	0.784302	
-1.99738	0.779724	
-1.99127	0.78125	
-1.98212	0.782776	
-1.97449	0.785828	
-1.9577	0.784302	
-1.9516	0.785828	
-1.93481	0.785828	
-1.92108	0.787354	
-1.9043	0.776672	
-1.88751	0.784302	
-1.87378	0.778198	
-1.85699	0.784302	
-1.83716	0.78125	
-1.82343	0.787354	
-1.80511	0.784302	
-1.78833	0.788879	
-1.77155	0.782776	
-1.76086	0.785828	
-1.7395	0.78125	
-1.72577	0.782776	
-1.70898	0.779724	
-1.69525	0.784302	
-1.67694	0.784302	
-1.66779	0.788879	
-1.65405	0.78125	
-1.64032	0.785828	
-1.63116	0.784302	
-1.61743	0.784302	
-1.60217	0.784302	
-1.59454	0.78125	
-1.58386	0.778198	
-1.57318	0.782776	
-1.56403	0.784302	
-1.55334	0.785828	
-1.54724	0.782776	
-1.54114	0.788879	
-1.53351	0.782776	
-1.52893	0.78125	
-1.5213	0.779724	
-1.51825	0.785828	
-1.5152	0.778198	
-1.50909	0.782776	
-1.50604	0.785828	
-1.50146	0.785828	
-1.49689	0.78125	
-1.49536	0.787354	
-1.49536	0.78125	
-1.49384	0.784302	
-1.49536	0.78125	
-1.49231	0.782776	
-1.49231	0.778198	
-1.49231	0.784302	
-1.49384	0.784302	
-1.49536	0.785828	
-1.49536	0.784302	
-1.49841	0.785828	
-1.49689	0.785828	
-1.49994	0.78125	
-1.50299	0.78125	
-1.50452	0.782776	
-1.50299	0.778198	
-1.50909	0.782776	
-1.51062	0.785828	
-1.51672	0.785828	
-1.51825	0.78125	
-1.51978	0.787354	
-1.52435	0.782776	
-1.53046	0.784302	
-1.53198	0.779724	
-1.53503	0.784302	
-1.53961	0.779724	
-1.54419	0.782776	
-1.54266	0.784302	
-1.54877	0.784302	
-1.55334	0.785828	
-1.5564	0.788879	
-1.56097	0.784302	
-1.5625	0.78125	
-1.5686	0.78125	
-1.57013	0.784302	
-1.57318	0.779724	
-1.57776	0.782776	
-1.58081	0.78125	
-1.58386	0.782776	
-1.58539	0.784302	
-1.59302	0.787354	
-1.59302	0.779724	
-1.59607	0.784302	
-1.59912	0.78125	
-1.60217	0.782776	
-1.60828	0.779724	
-1.61133	0.782776	
-1.61438	0.779724	
-1.61591	0.784302	
-1.62354	0.784302	
-1.62201	0.788879	
-1.62659	0.782776	
-1.62964	0.78125	
-1.62964	0.78125	
-1.63574	0.785828	
-1.64337	0.78125	
-1.64642	0.78125	
-1.64795	0.78125	
-1.65405	0.784302	
-1.6571	0.782776	
-1.66016	0.787354	
-1.66321	0.78125	
-1.66779	0.782776	
-1.67389	0.78125	
-1.67542	0.784302	
-1.67847	0.778198	
-1.68304	0.782776	
-1.68915	0.782776	
-1.69067	0.785828	
-1.69525	0.779724	
-1.69983	0.788879	
-1.70135	0.782776	
-1.70288	0.782776	
-1.70593	0.78125	
-1.70593	0.782776	
-1.70898	0.779724	
-1.71356	0.78125	
-1.71967	0.78125	
-1.71661	0.785828	
-1.72119	0.78125	
-1.72119	0.785828	
-1.72119	0.785828	
-1.72424	0.782776	
-1.72424	0.779724	
-1.72577	0.78125	
-1.72577	0.776672	
-1.72577	0.782776	
-1.72729	0.782776	
-1.72729	0.78125	
-1.72882	0.78125	
-1.72882	0.787354	
-1.73035	0.784302	
-1.73035	0.784302	
-1.72729	0.779724	
-1.72882	0.784302	
-1.73035	0.779724	
-1.72882	0.78125	
-1.72729	0.785828	
-1.72729	0.784302	
-1.72577	0.78125	
-1.72729	0.785828	
-1.72424	0.78125	
-1.72577	0.78125	
-1.72424	0.782776	
-1.72577	0.784302	
-1.72119	0.779724	
-1.72424	0.784302	
-1.72272	0.784302	
-1.72272	0.784302	
-1.72119	0.782776	
-1.72272	0.785828	
-1.72119	0.78125	
-1.72119	0.78125	
-1.72272	0.782776	
-1.72119	0.782776	
-1.72119	0.778198	
-1.72272	0.782776	
-1.72272	0.78125	
-1.72272	0.782776	
-1.72119	0.779724	
-1.71967	0.785828	
-1.72119	0.782776	
-1.72119	0.78125	
-1.72119	0.78125	
-1.72119	0.78125	
-1.72272	0.778198	
-1.72424	0.78125	
-1.72424	0.782776	
-1.72729	0.782776	
-1.72729	0.782776	
-1.72729	0.784302	
-1.72729	0.782776	
-1.72882	0.78125	
-1.7334	0.782776	
-1.7334	0.782776	
-1.73492	0.779724	
-1.73645	0.782776	
-1.73798	0.782776	
-1.74103	0.78125	
-1.74255	0.784302	
-1.74561	0.785828	
-1.74713	0.78125	
-1.75018	0.78125	
-1.75323	0.78125	
-1.75934	0.785828	
-1.75934	0.78125	
-1.76239	0.779724	
-1.76697	0.784302	
-1.76697	0.78125	
-1.77155	0.779724	
-1.77307	0.787354	
-1.77917	0.782776	
-1.77612	0.78125	
-1.78223	0.782776	
-1.7868	0.78125	
-1.78528	0.78125	
-1.78986	0.779724	
-1.79291	0.782776	
-1.79901	0.779724	
-1.80359	0.779724	
-1.80664	0.785828	
-1.81122	0.784302	
-1.81732	0.779724	
-1.81732	0.782776	
-1.82037	0.782776	
-1.82343	0.779724	
-1.82953	0.784302	
-1.828	0.782776	
-1.83563	0.78125	
-1.83716	0.782776	
-1.84326	0.787354	
-1.85089	0.782776	
-1.85242	0.78125	
-1.85547	0.78125	
-1.86157	0.782776	
-1.86005	0.778198	
-1.86462	0.782776	
-1.87225	0.782776	
-1.87378	0.779724	
-1.87836	0.782776	
-1.88141	0.787354	
-1.88751	0.782776	
-1.89056	0.782776	
-1.89209	0.782776	
-1.89972	0.78125	
-1.90125	0.779724	
-1.90582	0.782776	
-1.90735	0.782776	
-1.9165	0.78125	
-1.91956	0.78125	
-1.92108	0.785828	
-1.93024	0.778198	
-1.92566	0.779724	
-1.93481	0.782776	
-1.93787	0.784302	
-1.94244	0.779724	
-1.9455	0.779724	
-1.9516	0.78125	
-1.95313	0.78125	
-1.95618	0.78125	
-1.9577	0.784302	
-1.96533	0.78125	
-1.96533	0.78125	
-1.97144	0.782776	
-1.97601	0.782776	
-1.98059	0.776672	
-1.98364	0.779724	
-1.98669	0.782776	
-1.98975	0.78125	
-1.99585	0.776672	
-2.00195	0.785828	
-2.00348	0.78125	
-2.00043	0.779724	
-2.00653	0.782776	
-2.01569	0.78125	
-2.01416	0.778198	
-2.02026	0.778198	
-2.02179	0.78125	
-2.02637	0.78125	
-2.02942	0.782776	
-2.03094	0.784302	
-2.03552	0.78125	
-2.03705	0.779724	
-2.0401	0.784302	
-2.04468	0.78125	
-2.0462	0.78125	
-2.0462	0.782776	
-2.04773	0.784302	
-2.05383	0.782776	
-2.05841	0.78125	
-2.05536	0.784302	
-2.06299	0.78125	
-2.06451	0.78125	
-2.06757	0.78125	
-2.06909	0.782776	
-2.07214	0.778198	
-2.0752	0.78125	
-2.0752	0.78125	
-2.07825	0.78125	
-2.08588	0.782776	
-2.08588	0.784302	
-2.0874	0.782776	
-2.0874	0.779724	
-2.09351	0.78125	
-2.09351	0.778198	
-2.09656	0.776672	
-2.10114	0.784302	
-2.10419	0.784302	
-2.10419	0.778198	
-2.11029	0.779724	
-2.11029	0.782776	
-2.11334	0.778198	
-2.11487	0.779724	
-2.11639	0.779724	
-2.1225	0.78125	
-2.12097	0.776672	
-2.12402	0.782776	
-2.12555	0.78125	
-2.13013	0.778198	
-2.13318	0.78125	
-2.1347	0.785828	
-2.13165	0.78125	
-2.13928	0.78125	
-2.13928	0.782776	
-2.14081	0.782776	
-2.14233	0.78125	
-2.14539	0.779724	
-2.14233	0.78125	
-2.14386	0.778198	
-2.14233	0.778198	
-2.14386	0.78125	
-2.13623	0.776672	
-2.1347	0.779724	
-2.1286	0.782776	
-2.12555	0.78125	
-2.11639	0.779724	
-2.10571	0.779724	
-2.09808	0.778198	
-2.0874	0.776672	
-2.07672	0.779724	
-2.06299	0.784302	
-2.0462	0.78125	
-2.03247	0.784302	
-2.01874	0.78125	
-2.00348	0.78125	
-1.98364	0.778198	
-1.97144	0.78125	
-1.95465	0.78125	
-1.93634	0.775146	
-1.9165	0.779724	
-1.9043	0.78125	
-1.88446	0.78125	
-1.8692	0.779724	
-1.85242	0.782776	
-1.83868	0.78125	
-1.8219	0.776672	
-1.80664	0.779724	
-1.79138	0.778198	
-1.77765	0.776672	
-1.76392	0.78125	
-1.75018	0.782776	
-1.73492	0.78125	
-1.72424	0.779724	
-1.71356	0.782776	
-1.70441	0.782776	
-1.6922	0.78125	
-1.68152	0.78125	
-1.67084	0.78125	
-1.66473	0.779724	
-1.6571	0.779724	
-1.64948	0.782776	
-1.64032	0.78125	
-1.63422	0.779724	
-1.62811	0.782776	
-1.62201	0.782776	
-1.61743	0.779724	
-1.61438	0.779724	
-1.61133	0.779724	
-1.60675	0.779724	
-1.60217	0.78125	
-1.60217	0.779724	
-1.5976	0.779724	
-1.5976	0.779724	
-1.59302	0.78125	
-1.5976	0.782776	
-1.59302	0.779724	
-1.59454	0.782776	
-1.59149	0.782776	
-1.59302	0.778198	
-1.59302	0.778198	
-1.59302	0.782776	
-1.59454	0.779724	
-1.59607	0.779724	
-1.59912	0.78125	
-1.60065	0.78125	
-1.60522	0.779724	
-1.60675	0.776672	
-1.6098	0.782776	
-1.61285	0.778198	
-1.61438	0.78125	
-1.61896	0.78125	
-1.62048	0.779724	
-1.62048	0.78125	
-1.62354	0.78125	
-1.62811	0.78125	
-1.63116	0.776672	
-1.63422	0.778198	
-1.63727	0.782776	
-1.63879	0.779724	
-1.64642	0.779724	
-1.651	0.78125	
-1.65405	0.782776	
-1.65558	0.779724	
-1.66016	0.782776	
-1.66016	0.782776	
-1.66931	0.778198	
-1.66779	0.778198	
-1.67236	0.782776	
-1.67389	0.778198	
-1.68152	0.779724	
-1.68304	0.782776	
-1.68457	0.779724	
-1.68915	0.773621	
-1.69525	0.78125	
-1.69678	0.778198	
-1.69983	0.778198	
-1.70441	0.776672	
-1.70746	0.779724	
-1.71051	0.779724	
-1.71204	0.779724	
-1.71661	0.778198	
-1.71967	0.78125	
-1.72577	0.778198	
-1.72882	0.782776	
-1.7334	0.779724	
-1.7334	0.775146	
-1.7395	0.779724	
-1.74561	0.779724	
-1.75171	0.776672	
-1.75476	0.778198	
-1.75476	0.78125	
-1.76239	0.779724	
-1.76392	0.778198	
-1.77155	0.779724	
-1.7746	0.779724	
-1.77765	0.778198	
-1.77917	0.776672	
-1.78528	0.779724	
-1.78833	0.778198	
-1.79138	0.776672	
-1.79749	0.782776	
-1.79901	0.778198	
-1.80511	0.778198	
-1.80817	0.78125	
-1.81427	0.784302	
-1.8158	0.778198	
-1.81427	0.775146	
-1.81732	0.779724	
-1.82037	0.78125	
-1.8219	0.775146	
-1.82495	0.782776	
-1.82495	0.779724	
-1.82953	0.778198	
-1.82495	0.78125	
-1.82953	0.778198	
-1.828	0.776672	
-1.83105	0.778198	
-1.83563	0.78125	
-1.83411	0.776672	
-1.83411	0.779724	
-1.83563	0.78125	
-1.83563	0.779724	
-1.83411	0.779724	
-1.83563	0.779724	
-1.83105	0.778198	
-1.83563	0.776672	
-1.83105	0.776672	
-1.83411	0.779724	
-1.83105	0.778198	
-1.83411	0.776672	
-1.82953	0.779724	
-1.828	0.778198	
-1.82953	0.776672	
-1.828	0.776672	
-1.82648	0.779724	
-1.82495	0.778198	
-1.82648	0.776672	
-1.82495	0.78125	
-1.82648	0.78125	
-1.82343	0.776672	
-1.8219	0.778198	
-1.81732	0.78125	
-1.82037	0.779724	
-1.81885	0.784302	
-1.81732	0.779724	
-1.81732	0.779724	
-1.81885	0.778198	
-1.82037	0.778198	
-1.81885	0.778198	
-1.81732	0.778198	
-1.81885	0.784302	
-1.81885	0.78125	
-1.8219	0.779724	
-1.81427	0.78125	
-1.81885	0.779724	
-1.81732	0.776672	
-1.82037	0.778198	
-1.82037	0.78125	
-1.8219	0.779724	
-1.8219	0.779724	
-1.82495	0.784302	
-1.82343	0.78125	
-1.82495	0.779724	
-1.828	0.779724	
-1.82953	0.78125	
-1.83105	0.778198	
-1.83411	0.776672	
-1.83563	0.78125	
-1.84021	0.779724	
-1.84174	0.778198	
-1.84174	0.779724	
-1.84479	0.779724	
-1.84631	0.778198	
-1.84937	0.779724	
-1.85242	0.78125	
-1.85547	0.776672	
-1.85699	0.775146	
-1.86005	0.778198	
-1.86462	0.776672	
-1.8631	0.775146	
-1.87225	0.78125	
-1.87378	0.779724	
-1.87836	0.778198	
-1.87988	0.78125	
-1.88446	0.78125	
-1.88599	0.778198	
-1.88904	0.776672	
-1.89209	0.778198	
-1.89667	0.776672	
-1.89514	0.778198	
-1.89972	0.779724	
-1.9043	0.78125	
-1.9104	0.778198	
-1.90735	0.779724	
-1.91193	0.78125	
-1.91956	0.779724	
-1.92108	0.778198	
-1.92413	0.778198	
-1.92871	0.773621	
-1.93329	0.779724	
-1.93329	0.779724	
-1.93634	0.78125	
-1.94244	0.776672	
-1.94397	0.778198	
-1.95007	0.78125	
-1.95313	0.778198	
-1.95465	0.776672	
-1.96075	0.78125	
-1.96533	0.776672	
-1.97449	0.782776	
-1.97144	0.78125	
-1.97601	0.78125	
-1.97906	0.778198	
-1.98212	0.776672	
-1.98975	0.778198	
-1.99432	0.779724	
-1.99432	0.775146	
-1.9989	0.776672	
-2.00195	0.776672	
-2.005	0.778198	
-2.00958	0.778198	
-2.01569	0.779724	
-2.01569	0.778198	
-2.02637	0.779724	
-2.02637	0.779724	
-2.03094	0.775146	
-2.03247	0.773621	
-2.03705	0.78125	
-2.0401	0.779724	
-2.04315	0.778198	
-2.04773	0.78125	
-2.05078	0.778198	
-2.05536	0.775146	
-2.05688	0.78125	
-2.06604	0.776672	
-2.06757	0.776672	
-2.07062	0.775146	
-2.0752	0.778198	
-2.07977	0.776672	
-2.0813	0.779724	
-2.08435	0.778198	
-2.08588	0.78125	
-2.09503	0.778198	
-2.09198	0.779724	
-2.09808	0.778198	
-2.10571	0.776672	
-2.10724	0.776672	
-2.11029	0.775146	
-2.11487	0.779724	
-2.11945	0.779724	
-2.11945	0.78125	
-2.12402	0.78125	
-2.12555	0.776672	
-2.13013	0.779724	
-2.13318	0.778198	
-2.13623	0.776672	
-2.14386	0.778198	
-2.14233	0.775146	
-2.14539	0.773621	
-2.14996	0.778198	
-2.15302	0.779724	
-2.15454	0.779724	
-2.15607	0.778198	
-2.16217	0.778198	
-2.1637	0.779724	
-2.1637	0.775146	
-2.16827	0.775146	
-2.1698	0.779724	
-2.17285	0.775146	
-2.17438	0.779724	
-2.18048	0.778198	
-2.18201	0.78125	
-2.18353	0.776672	
-2.18811	0.779724	
-2.18811	0.779724	
-2.19421	0.776672	
-2.19727	0.775146	
-2.20032	0.779724	
-2.20032	0.775146	
-2.20337	0.776672	
-2.20184	0.78125	
-2.20795	0.776672	
-2.211	0.776672	
-2.21558	0.778198	
-2.21558	0.776672	
-2.21252	0.779724	
-2.22015	0.773621	
-2.22168	0.778198	
-2.22473	0.778198	
-2.22473	0.776672	
-2.22626	0.779724	
-2.23083	0.778198	
-2.23083	0.778198	
-2.23083	0.78125	
-2.23083	0.776672	
-2.22778	0.779724	
-2.22626	0.775146	
-2.22626	0.778198	
-2.22168	0.775146	
-2.2171	0.778198	
-2.211	0.776672	
-2.20184	0.779724	
-2.19421	0.776672	
-2.18048	0.779724	
-2.1698	0.775146	
-2.15607	0.778198	
-2.14081	0.773621	
-2.12708	0.778198	
-2.11487	0.773621	
-2.09656	0.778198	
-2.0813	0.778198	
-2.06451	0.779724	
-2.0462	0.776672	
-2.02942	0.779724	
-2.00806	0.778198	
-1.99432	0.775146	
-1.97449	0.776672	
-1.96075	0.778198	
-1.9455	0.773621	
-1.92719	0.776672	
-1.91193	0.776672	
-1.89514	0.779724	
-1.88293	0.776672	
-1.86768	0.779724	
-1.85394	0.775146	
-1.84174	0.776672	
-1.82648	0.776672	
-1.81274	0.775146	
-1.80817	0.775146	
-1.79138	0.773621	
-1.77917	0.778198	
-1.77155	0.778198	
-1.76239	0.773621	
-1.75323	0.779724	
-1.74255	0.778198	
-1.73798	0.776672	
-1.7334	0.776672	
-1.72729	0.776672	
-1.72119	0.772095	
-1.71356	0.776672	
-1.70898	0.775146	
-1.70593	0.778198	
-1.70288	0.776672	
-1.6983	0.776672	
-1.69678	0.776672	
-1.69373	0.779724	
-1.6922	0.775146	
-1.69067	0.776672	
-1.68762	0.778198	
-1.68762	0.779724	
-1.68457	0.778198	
-1.68762	0.776672	
-1.6861	0.773621	
-1.68915	0.78125	
-1.68762	0.775146	
-1.69067	0.776672	
-1.6922	0.773621	
-1.6922	0.778198	
-1.69525	0.773621	
-1.69678	0.775146	
-1.70135	0.778198	
-1.70441	0.778198	
-1.70441	0.773621	
-1.70898	0.78125	
-1.71204	0.775146	
-1.71204	0.778198	
-1.71661	0.775146	
-1.72119	0.778198	
-1.72882	0.773621	
-1.73035	0.776672	
-1.73187	0.776672	
-1.73492	0.778198	
-1.73798	0.776672	
-1.74103	0.78125	
-1.74866	0.778198	
-1.74866	0.776672	
-1.75781	0.775146	
-1.75781	0.776672	
-1.76392	0.772095	
-1.76544	0.776672	
-1.77002	0.776672	
-1.7746	0.779724	
-1.7807	0.775146	
-1.7807	0.78125	
-1.78528	0.775146	
-1.79138	0.778198	
-1.78986	0.773621	
-1.80054	0.778198	
-1.80359	0.775146	
-1.80511	0.778198	
-1.81274	0.776672	
-1.81122	0.782776	
-1.81885	0.776672	
-1.8219	0.776672	
-1.82495	0.775146	
-1.828	0.779724	
-1.83563	0.773621	
-1.83868	0.776672	
-1.84479	0.770569	
-1.84631	0.778198	
-1.85089	0.776672	
-1.85547	0.778198	
-1.85852	0.775146	
-1.86462	0.782776	
-1.87225	0.776672	
-1.87531	0.776672	
-1.88141	0.776672	
-1.88446	0.779724	
-1.88904	0.773621	
-1.89209	0.773621	
-1.89972	0.776672	
-1.90277	0.778198	
-1.90582	0.776672	
-1.91193	0.778198	
-1.91803	0.776672	
-1.92261	0.778198	
-1.92413	0.776672	
-1.93024	0.778198	
-1.93329	0.772095	
-1.93634	0.773621	
-1.93939	0.779724	
-1.94244	0.779724	
-1.94397	0.778198	
-1.94397	0.78125	
-1.9516	0.779724	
-1.9516	0.776672	
-1.95313	0.778198	
-1.95465	0.78125	
-1.95618	0.772095	
-1.9577	0.776672	
-1.9577	0.775146	
-1.96075	0.778198	
-1.95923	0.775146	
-1.96075	0.78125	
-1.96228	0.779724	
-1.96075	0.778198	
-1.96075	0.775146	
-1.96075	0.775146	
-1.95923	0.773621	
-1.96228	0.778198	
-1.95923	0.776672	
-1.9577	0.776672	
-1.9577	0.775146	
-1.95465	0.78125	
-1.95313	0.778198	
-1.9516	0.782776	
-1.95313	0.778198	
-1.95007	0.778198	
-1.94855	0.773621	
-1.9455	0.776672	
-1.94397	0.775146	
-1.94397	0.778198	
-1.94092	0.775146	
-1.93939	0.779724	
-1.93939	0.776672	
-1.93481	0.776672	
-1.93176	0.773621	
-1.93176	0.778198	
-1.93024	0.770569	
-1.92719	0.778198	
-1.93024	0.778198	
-1.92871	0.778198	
-1.92566	0.773621	
-1.92871	0.782776	
-1.92566	0.778198	
-1.92566	0.775146	
-1.93024	0.772095	
-1.92566	0.776672	
-1.92719	0.770569	
-1.92719	0.775146	
-1.92566	0.773621	
-1.92719	0.775146	
-1.92871	0.773621	
-1.92719	0.78125	
-1.93024	0.776672	
-1.93176	0.776672	
-1.93024	0.772095	
-1.93329	0.775146	
-1.93329	0.769043	
-1.93176	0.776672	
-1.93481	0.775146	
-1.93481	0.775146	
-1.93787	0.773621	
-1.93939	0.782776	
-1.93939	0.776672	
-1.94244	0.779724	
-1.94397	0.773621	
-1.94092	0.776672	
-1.95007	0.772095	
-1.95007	0.775146	
-1.95313	0.772095	
-1.95618	0.775146	
-1.9577	0.775146	
-1.9577	0.782776	
-1.96075	0.776672	
-1.96533	0.778198	
-1.96686	0.772095	
-1.97144	0.775146	
-1.97144	0.770569	
-1.97754	0.773621	
-1.97906	0.773621	
-1.98212	0.778198	
-1.98364	0.775146	
-1.98669	0.78125	
-1.9928	0.773621	
-1.99585	0.778198	
-1.9989	0.773621	
-2.00195	0.776672	
-2.00195	0.767517	
-2.005	0.775146	
-2.00958	0.776672	
-2.01111	0.773621	
-2.01569	0.775146	
-2.01874	0.779724	
-2.02026	0.773621	
-2.02637	0.778198	
-2.02942	0.773621	
-2.02942	0.775146	
-2.03552	0.767517	
-2.0401	0.772095	
-2.04468	0.772095	
-2.04926	0.773621	
-2.04773	0.773621	
-2.05383	0.782776	
-2.05841	0.773621	
-2.05994	0.775146	
-2.06909	0.775146	
-2.07062	0.775146	
-2.07672	0.769043	
-2.07825	0.776672	
-2.08435	0.772095	
-2.08282	0.775146	
-2.09045	0.770569	
-2.09198	0.779724	
-2.09656	0.775146	
-2.09808	0.776672	
-2.10724	0.773621	
-2.11029	0.776672	
-2.11334	0.767517	
-2.11639	0.772095	
-2.11945	0.773621	
-2.1225	0.778198	
-2.12708	0.775146	
-2.1286	0.78125	
-2.13623	0.776672	
-2.13623	0.775146	
-2.14233	0.773621	
-2.14691	0.775146	
-2.14691	0.767517	
-2.15149	0.775146	
-2.15454	0.772095	
-2.15759	0.775146	
-2.15912	0.772095	
-2.1637	0.78125	
-2.1698	0.776672	
-2.1698	0.776672	
-2.17285	0.775146	
-2.18048	0.776672	
-2.18201	0.764465	
-2.18506	0.773621	
-2.18658	0.772095	
-2.19269	0.776672	
-2.19574	0.773621	
-2.19879	0.778198	
-2.20184	0.773621	
-2.2049	0.775146	
-2.20642	0.773621	
-2.21252	0.776672	
-2.21558	0.767517	
-2.2171	0.773621	
-2.22168	0.773621	
-2.22473	0.778198	
-2.23083	0.773621	
-2.22931	0.78125	
-2.23236	0.775146	
-2.23541	0.776672	
-2.23999	0.772095	
-2.24304	0.775146	
-2.24609	0.767517	
-2.24915	0.773621	
-2.25372	0.776672	
-2.25677	0.773621	
-2.25983	0.773621	
-2.26288	0.779724	
-2.26746	0.775146	
-2.26898	0.775146	
-2.27356	0.775146	
-2.26898	0.775146	
-2.27509	0.767517	
-2.27509	0.776672	
-2.27661	0.772095	
-2.27814	0.776672	
-2.27966	0.773621	
-2.27814	0.78125	
-2.28271	0.775146	
-2.27509	0.776672	
-2.27051	0.773621	
-2.26593	0.776672	
-2.26135	0.769043	
-2.25372	0.772095	
-2.24609	0.770569	
-2.23694	0.775146	
-2.22321	0.775146	
-2.21252	0.78125	
-2.19574	0.769043	
-2.18048	0.775146	
-2.1637	0.772095	
-2.14996	0.773621	
-2.1347	0.767517	
-2.11792	0.772095	
-2.09808	0.770569	
-2.07977	0.773621	
-2.06757	0.773621	
-2.04773	0.778198	
-2.03094	0.773621	
-2.01416	0.773621	
-1.99585	0.775146	
-1.98212	0.773621	
-1.96533	0.767517	
-1.95007	0.775146	
-1.93481	0.772095	
-1.91956	0.773621	
-1.90735	0.772095	
-1.89667	0.782776	
-1.88293	0.772095	
-1.8692	0.773621	
-1.85547	0.772095	
-1.84784	0.775146	
-1.83411	0.764465	
-1.828	0.775146	
-1.81732	0.772095	
-1.80817	0.773621	
-1.80054	0.772095	
-1.79138	0.779724	
-1.7868	0.776672	
-1.77917	0.775146	
-1.7746	0.770569	
-1.76849	0.773621	
-1.76392	0.764465	
-1.76086	0.772095	
-1.75171	0.772095	
-1.75018	0.776672	
-1.74561	0.772095	
-1.74408	0.78125	
-1.74103	0.776672	
-1.74103	0.776672	
-1.73645	0.770569	
-1.73798	0.776672	
-1.73492	0.767517	
-1.73492	0.772095	
-1.7334	0.772095	
-1.73645	0.773621	
-1.73645	0.772095	
-1.73492	0.78125	
-1.7395	0.773621	
-1.74103	0.775146	
-1.74408	0.772095	
-1.74561	0.776672	
-1.74255	0.767517	
-1.74713	0.772095	
-1.74866	0.772095	
-1.75323	0.776672	
-1.75781	0.772095	
-1.75934	0.78125	
-1.76239	0.772095	
-1.76697	0.775146	
-1.77002	0.770569	
-1.7746	0.773621	
-1.77917	0.767517	
-1.78375	0.773621	
-1.7868	0.773621	
-1.7868	0.773621	
-1.79138	0.773621	
-1.79749	0.78125	
-1.79901	0.778198	
-1.80664	0.773621	
-1.80969	0.772095	
-1.81427	0.776672	
-1.81732	0.769043	
-1.8219	0.776672	
-1.82495	0.770569	
-1.82953	0.776672	
-1.83716	0.772095	
-1.83868	0.778198	
-1.84479	0.772095	
-1.84937	0.773621	
-1.85242	0.770569	
-1.86005	0.772095	
-1.8631	0.764465	
-1.86462	0.772095	
-1.87378	0.770569	
-1.87836	0.778198	
-1.87988	0.773621	
-1.88751	0.78125	
-1.88904	0.772095	
-1.89362	0.773621	
-1.90125	0.772095	
-1.9104	0.773621	
-1.91345	0.767517	
-1.9165	0.772095	
-1.92413	0.770569	
-1.92719	0.772095	
-1.93329	0.775146	
-1.93634	0.779724	
-1.94244	0.775146	
-1.95007	0.773621	
-1.95465	0.773621	
-1.95618	0.773621	
-1.96228	0.767517	
-1.96838	0.772095	
-1.97296	0.772095	
-1.97754	0.775146	
-1.98212	0.769043	
-1.98975	0.776672	
-1.99127	0.770569	
-1.9989	0.775146	
-1.99738	0.769043	
-2.00195	0.770569	
-2.00348	0.767517	
-2.00958	0.773621	
-2.00958	0.770569	
-2.01416	0.772095	
-2.01569	0.773621	
-2.02026	0.779724	
-2.01874	0.772095	
-2.02637	0.775146	
-2.02026	0.770569	
-2.02484	0.770569	
-2.02637	0.761414	
-2.02637	0.772095	
-2.02637	0.773621	
-2.02942	0.773621	
-2.02637	0.772095	
-2.02637	0.778198	
-2.02484	0.773621	
-2.02637	0.775146	
-2.02637	0.772095	
-2.02637	0.770569	
-2.02637	0.767517	
-2.02179	0.772095	
-2.02179	0.769043	
-2.02026	0.776672	
-2.01874	0.772095	
-2.01569	0.778198	
-2.01416	0.772095	
-2.01263	0.775146	
-2.00958	0.764465	
-2.00806	0.772095	
-2.005	0.764465	
-2.00348	0.770569	
-2.00043	0.770569	
-2.00043	0.773621	
-1.9989	0.770569	
-1.99738	0.779724	
-1.99432	0.775146	
-1.99432	0.775146	
-1.99127	0.772095	
-1.99432	0.773621	
-1.9928	0.767517	
-1.98822	0.770569	
-1.99127	0.772095	
-1.98975	0.776672	
-1.98975	0.773621	
-1.98364	0.778198	
-1.98669	0.773621	
-1.98364	0.775146	
-1.98364	0.772095	
-1.98669	0.772095	
-1.98822	0.767517	
-1.98669	0.769043	
-1.98364	0.772095	
-1.98669	0.770569	
-1.98822	0.769043	
-1.98975	0.776672	
-1.99127	0.773621	
-1.98669	0.773621	
-1.98822	0.772095	
-1.98822	0.775146	
-1.9928	0.767517	
-1.99127	0.769043	
-1.99432	0.769043	
-1.99585	0.772095	
-2.00043	0.770569	
-2.00195	0.776672	
-2.00195	0.773621	
-2.00653	0.773621	
-2.00806	0.770569	
-2.01111	0.772095	
-2.01416	0.764465	
-2.01416	0.770569	
-2.01721	0.769043	
-2.02026	0.773621	
-2.02484	0.775146	
-2.02789	0.778198	
-2.02942	0.772095	
-2.034	0.772095	
-2.03857	0.770569	
-2.04163	0.773621	
-2.04163	0.762939	
-2.05078	0.772095	
-2.04926	0.772095	
-2.05231	0.775146	
-2.05688	0.770569	
-2.06299	0.778198	
-2.06757	0.770569	
-2.06757	0.773621	
-2.07214	0.770569	
-2.0752	0.772095	
-2.07672	0.764465	
-2.07977	0.770569	
-2.08282	0.772095	
-2.0874	0.775146	
-2.09045	0.769043	
-2.09503	0.778198	
-2.09198	0.772095	
-2.10114	0.772095	
-2.10419	0.770569	
-2.10876	0.772095	
-2.10876	0.761414	
-2.11639	0.770569	
-2.11945	0.770569	
-2.1225	0.770569	
-2.12708	0.767517	
-2.1286	0.778198	
-2.13165	0.770569	
-2.1347	0.772095	
-2.14081	0.770569	
-2.14233	0.772095	
-2.14996	0.762939	
-2.15149	0.769043	
-2.15912	0.767517	
-2.16064	0.773621	
-2.16217	0.769043	
-2.16522	0.778198	
-2.16675	0.772095	
-2.17438	0.775146	
-2.18048	0.772095	
-2.18048	0.770569	
-2.18506	0.764465	
-2.18811	0.767517	
-2.19421	0.769043	
-2.19574	0.773621	
-2.20337	0.775146	
-2.20337	0.776672	
-2.20795	0.770569	
-2.21252	0.773621	
-2.21558	0.772095	
-2.22015	0.773621	
-2.22321	0.764465	
-2.22626	0.770569	
-2.22778	0.769043	
-2.23389	0.775146	
-2.23541	0.767517	
-2.23846	0.775146	
-2.24304	0.772095	
-2.24304	0.775146	
-2.24915	0.769043	
-2.25372	0.772095	
-2.25677	0.767517	
-2.25983	0.770569	
-2.2644	0.769043	
-2.26593	0.770569	
-2.26898	0.772095	
-2.27509	0.775146	
-2.27661	0.773621	
-2.28271	0.775146	
-2.28119	0.770569	
-2.28577	0.772095	
-2.29187	0.764465	
-2.29492	0.772095	
-2.29645	0.770569	
-2.29797	0.775146	
-2.30255	0.770569	
-2.30865	0.775146	
-2.30865	0.772095	
-2.31171	0.776672	
-2.31171	0.772095	
-2.31171	0.772095	
-2.31628	0.764465	
-2.31628	0.769043	
-2.31628	0.769043	
-2.31934	0.770569	
-2.32086	0.767517	
-2.32086	0.778198	
-2.31476	0.770569	
-2.31476	0.773621	
-2.31018	0.770569	
-2.30255	0.770569	
-2.29797	0.764465	
-2.28882	0.770569	
-2.27661	0.767517	
-2.26898	0.772095	
-2.25067	0.770569	
-2.23541	0.773621	
-2.22321	0.769043	
-2.20184	0.772095	
-2.18811	0.769043	
-2.17133	0.773621	
-2.15302	0.764465	
-2.13165	0.770569	
-2.11639	0.769043	
-2.09656	0.773621	
-2.07672	0.769043	
-2.05841	0.776672	
-2.0401	0.769043	
-2.02026	0.776672	
-2.005	0.769043	
-1.99127	0.770569	
-1.96991	0.762939	
-1.95618	0.767517	
-1.94092	0.764465	
-1.92261	0.773621	
-1.90582	0.772095	
-1.89362	0.775146	
-1.88293	0.767517	
-1.86768	0.772095	
-1.85394	0.767517	
-1.84479	0.770569	
-1.83105	0.762939	
-1.82037	0.770569	
-1.81274	0.764465	
-1.80206	0.772095	
-1.79138	0.770569	
-1.78375	0.773621	
-1.7746	0.772095	
-1.76849	0.770569	
-1.76392	0.769043	
-1.75476	0.769043	
-1.75171	0.764465	
-1.74866	0.770569	
-1.74255	0.762939	
-1.74103	0.772095	
-1.7334	0.762939	
-1.73187	0.773621	
-1.73187	0.772095	
-1.73035	0.769043	
-1.72882	0.769043	
-1.72577	0.769043	
-1.72882	0.762939	
-1.72729	0.769043	
-1.72424	0.764465	
-1.72577	0.770569	
-1.72882	0.767517	
-1.72882	0.775146	
-1.72882	0.767517	
-1.73035	0.772095	
-1.73187	0.769043	
-1.7334	0.770569	
-1.73645	0.762939	
-1.73798	0.764465	
-1.74255	0.764465	
-1.74561	0.769043	
-1.74866	0.769043	
-1.75018	0.770569	
-1.75171	0.770569	
-1.75781	0.770569	
-1.76086	0.767517	
-1.76544	0.767517	
-1.76544	0.764465	
-1.77155	0.762939	
-1.77765	0.764465	
-1.7807	0.773621	
-1.78528	0.769043	
-1.78833	0.775146	
-1.79291	0.772095	
-1.79291	0.772095	
-1.80054	0.769043	
-1.80359	0.770569	
-1.81122	0.767517	
-1.80969	0.770569	
-1.81427	0.769043	
-1.81885	0.772095	
-1.82343	0.769043	
-1.82495	0.775146	
-1.83105	0.770569	
-1.83563	0.772095	
-1.84021	0.767517	
-1.83868	0.769043	
-1.84631	0.761414	
-1.85242	0.767517	
-1.85699	0.764465	
-1.85852	0.770569	
-1.8631	0.767517	
-1.86768	0.775146	
-1.87225	0.770569	
-1.87683	0.775146	
-1.87988	0.770569	
-1.88293	0.772095	
-1.88904	0.762939	
-1.89209	0.769043	
-1.89667	0.762939	
-1.90125	0.773621	
-1.90277	0.772095	
-1.91193	0.776672	
-1.91498	0.770569	
-1.91956	0.775146	
-1.92413	0.770569	
-1.92871	0.769043	
-1.93024	0.764465	
-1.93787	0.769043	
-1.94244	0.767517	
-1.94397	0.769043	
-1.94855	0.773621	
-1.9516	0.772095	
-1.95465	0.772095	
-1.95618	0.775146	
-1.96228	0.767517	
-1.96381	0.770569	
-1.97144	0.762939	
-1.96838	0.769043	
-1.97296	0.764465	
-1.97449	0.770569	
-1.97449	0.770569	
-1.97906	0.773621	
-1.98212	0.772095	
-1.98669	0.770569	
-1.98822	0.769043	
-1.98822	0.772095	
-1.98975	0.764465	
-1.98975	0.770569	
-1.98975	0.767517	
-1.9928	0.770569	
-1.99127	0.770569	
-1.99127	0.772095	
-1.98975	0.767517	
-1.99432	0.772095	
-1.99127	0.769043	
-1.99127	0.767517	
-1.98822	0.762939	
-1.98822	0.770569	
-1.98822	0.762939	
-1.98669	0.769043	
-1.98669	0.770569	
-1.98059	0.772095	
-1.98212	0.767517	
-1.97906	0.773621	
-1.97754	0.762939	
-1.97296	0.767517	
-1.97449	0.761414	
-1.97296	0.769043	
-1.96838	0.764465	
-1.96686	0.770569	
-1.96838	0.767517	
-1.96686	0.772095	
-1.96686	0.770569	
-1.96381	0.770569	
-1.96228	0.764465	
-1.95923	0.769043	
-1.96075	0.762939	
-1.96075	0.767517	
-1.95923	0.764465	
-1.95923	0.770569	
-1.95923	0.767517	
-1.9577	0.772095	
-1.95923	0.764465	
-1.9577	0.772095	
-1.95618	0.767517	
-1.95618	0.769043	
-1.95618	0.759888	
-1.95618	0.762939	
-1.95618	0.764465	
-1.9577	0.767517	
-1.95923	0.767517	
-1.95923	0.770569	
-1.96075	0.769043	
-1.96075	0.772095	
-1.96075	0.764465	
-1.96381	0.770569	
-1.96533	0.761414	
-1.96381	0.764465	
-1.96686	0.762939	
-1.96686	0.764465	
-1.96991	0.770569	
-1.97144	0.769043	
-1.97144	0.769043	
-1.97144	0.772095	
-1.97601	0.764465	
-1.98059	0.769043	
-1.98059	0.762939	
-1.98364	0.770569	
-1.98669	0.764465	
-1.9928	0.770569	
-1.99127	0.772095	
-1.99432	0.773621	
-1.99738	0.767517	
-2.00043	0.773621	
-2.00348	0.767517	
-2.00348	0.770569	
-2.00806	0.764465	
-2.01263	0.767517	
-2.01569	0.769043	
-2.01721	0.769043	
-2.02026	0.767517	
-2.02942	0.772095	
-2.02942	0.772095	
-2.03247	0.773621	
-2.03552	0.767517	
-2.03857	0.772095	
-2.04163	0.764465	
-2.0462	0.769043	
-2.05078	0.764465	
-2.05078	0.773621	
-2.05383	0.770569	
-2.05841	0.769043	
-2.06451	0.770569	
-2.06451	0.769043	
-2.06909	0.772095	
-2.07367	0.772095	
-2.0752	0.762939	
-2.0813	0.769043	
-2.08435	0.764465	
-2.08588	0.770569	
-2.09045	0.770569	
-2.09656	0.772095	
-2.09656	0.770569	
-2.10266	0.770569	
-2.10571	0.772095	
-2.11029	0.769043	
-2.11487	0.769043	
-2.11792	0.769043	
-2.1225	0.767517	
-2.12708	0.772095	
-2.13013	0.772095	
-2.13318	0.772095	
-2.13928	0.769043	
-2.14081	0.770569	
-2.14996	0.767517	
-2.15302	0.767517	
-2.15759	0.764465	
-2.16064	0.767517	
-2.1637	0.761414	
-2.16675	0.767517	
-2.1698	0.770569	
-2.17285	0.770569	
-2.17743	0.769043	
-2.18201	0.770569	
-2.18353	0.767517	
-2.18658	0.769043	
-2.18964	0.769043	
-2.19116	0.764465	
-2.19574	0.764465	
-2.20032	0.769043	
-2.20032	0.767517	
-2.2049	0.770569	
-2.20947	0.770569	
-2.21252	0.772095	
-2.2171	0.767517	
-2.22015	0.769043	
-2.22168	0.764465	
-2.22778	0.767517	
-2.23389	0.764465	
-2.23541	0.772095	
-2.23694	0.770569	
-2.24304	0.769043	
-2.24304	0.767517	
-2.24915	0.770569	
-2.25372	0.769043	
-2.25677	0.764465	
-2.26288	0.764465	
-2.26288	0.764465	
-2.26746	0.764465	
-2.27051	0.770569	
-2.27051	0.769043	
-2.27509	0.769043	
-2.27661	0.770569	
-2.27661	0.770569	
-2.28119	0.767517	
-2.28119	0.770569	
-2.28271	0.767517	
-2.28271	0.764465	
-2.28119	0.764465	
-2.27966	0.769043	
-2.27661	0.770569	
-2.27661	0.764465	
-2.26898	0.769043	
-2.2644	0.770569	
-2.25525	0.764465	
-2.24457	0.764465	
-2.23694	0.764465	
-2.22473	0.767517	
-2.21252	0.761414	
-2.19574	0.772095	
-2.17896	0.767517	
-2.16064	0.769043	
-2.14233	0.769043	
-2.1286	0.772095	
-2.10876	0.769043	
-2.09045	0.764465	
-2.0752	0.767517	
-2.05383	0.762939	
-2.03705	0.762939	
-2.01721	0.770569	
-2.00043	0.769043	
-1.98059	0.767517	
-1.96533	0.772095	
-1.9455	0.769043	
-1.93329	0.761414	
-1.9165	0.762939	
-1.89972	0.767517	
-1.88599	0.767517	
-1.87225	0.764465	
-1.85699	0.770569	
-1.84174	0.767517	
-1.83105	0.764465	
-1.81732	0.770569	
-1.80817	0.769043	
-1.79749	0.769043	
-1.78223	0.772095	
-1.7746	0.769043	
-1.76239	0.764465	
-1.75476	0.764465	
-1.74713	0.769043	
-1.7395	0.764465	
-1.7334	0.764465	
-1.73035	0.769043	
-1.72272	0.773621	
-1.71661	0.762939	
-1.71356	0.767517	
-1.71051	0.770569	
-1.70593	0.762939	
-1.70441	0.761414	
-1.70135	0.767517	
-1.6983	0.769043	
-1.69525	0.764465	
-1.69525	0.764465	
-1.6922	0.770569	
-1.69525	0.769043	
-1.69525	0.767517	
-1.6983	0.767517	
-1.69373	0.767517	
-1.69525	0.761414	
-1.69678	0.769043	
-1.69678	0.764465	
-1.69678	0.767517	
-1.6983	0.767517	
-1.70288	0.769043	
-1.70441	0.762939	
-1.70441	0.769043	
-1.70746	0.762939	
-1.71204	0.767517	
-1.71204	0.759888	
-1.71509	0.767517	
-1.72119	0.764465	
-1.72119	0.764465	
-1.72577	0.767517	
-1.73035	0.767517	
-1.73035	0.764465	
-1.73645	0.764465	
-1.7395	0.767517	
-1.74103	0.764465	
-1.74408	0.762939	
-1.74866	0.767517	
-1.75323	0.769043	
-1.75781	0.767517	
-1.76086	0.764465	
-1.76392	0.767517	
-1.76544	0.767517	
-1.77002	0.767517	
-1.7746	0.762939	
-1.7746	0.767517	
-1.7807	0.761414	
-1.78223	0.764465	
-1.78375	0.764465	
-1.7868	0.769043	
-1.79291	0.764465	
-1.79596	0.769043	
-1.79901	0.764465	
-1.80054	0.764465	
-1.80359	0.762939	
-1.80969	0.767517	
-1.81122	0.761414	
-1.81732	0.767517	
-1.82037	0.767517	
-1.82648	0.769043	
-1.828	0.769043	
-1.82953	0.769043	
-1.83868	0.767517	
-1.84021	0.769043	
-1.84631	0.767517	
-1.84784	0.764465	
-1.85547	0.759888	
-1.86005	0.770569	
-1.86005	0.764465	
-1.86615	0.767517	
-1.8692	0.769043	
-1.87378	0.769043	
-1.88141	0.767517	
-1.88141	0.762939	
-1.88599	0.767517	
-1.89056	0.762939	
-1.89362	0.767517	
-1.89667	0.769043	
-1.89972	0.764465	
-1.90277	0.764465	
-1.90277	0.764465	
-1.9104	0.767517	
-1.91345	0.764465	
-1.91498	0.764465	
-1.91803	0.767517	
-1.92261	0.762939	
-1.92108	0.761414	
-1.92413	0.772095	
-1.92566	0.767517	
-1.92719	0.764465	
-1.93024	0.764465	
-1.93176	0.769043	
-1.93176	0.762939	
-1.93176	0.762939	
-1.93481	0.767517	
-1.93329	0.769043	
-1.93329	0.762939	
-1.93481	0.769043	
-1.93329	0.764465	
-1.93329	0.761414	
-1.93176	0.761414	
-1.93481	0.767517	
-1.93176	0.761414	
-1.93176	0.767517	
-1.93024	0.764465	
-1.93176	0.767517	
-1.93329	0.759888	
-1.92871	0.767517	
-1.92719	0.764465	
-1.92871	0.764465	
-1.92719	0.764465	
-1.92261	0.767517	
-1.92108	0.764465	
-1.92719	0.767517	
-1.92108	0.767517	
-1.92108	0.764465	
-1.91956	0.762939	
-1.91803	0.764465	
-1.91803	0.764465	
-1.91803	0.764465	
-1.9165	0.759888	
-1.91803	0.767517	
-1.9165	0.761414	
-1.91803	0.764465	
-1.91956	0.767517	
-1.91498	0.764465	
-1.91498	0.759888	
-1.9165	0.764465	
-1.9165	0.762939	
-1.9165	0.761414	
-1.91803	0.762939	
-1.91803	0.767517	
-1.91803	0.761414	
-1.91803	0.764465	
-1.91956	0.762939	
-1.92261	0.762939	
-1.91956	0.759888	
-1.92261	0.767517	
-1.92566	0.764465	
-1.92413	0.764465	
-1.92719	0.762939	
-1.93176	0.769043	
-1.93024	0.762939	
-1.92871	0.762939	
-1.93176	0.767517	
-1.93329	0.762939	
-1.93329	0.759888	
-1.93787	0.764465	
-1.94092	0.767517	
-1.94397	0.761414	
-1.9455	0.764465	
-1.94855	0.762939	
-1.9516	0.761414	
-1.95618	0.767517	
-1.95618	0.769043	
-1.95618	0.764465	
-1.96075	0.761414	
-1.96533	0.767517	
-1.96686	0.762939	
-1.97144	0.764465	
-1.97449	0.762939	
-1.97754	0.764465	
-1.97906	0.764465	
-1.98669	0.764465	
-1.98669	0.764465	
-1.99127	0.762939	
-1.99432	0.761414	
-1.9989	0.764465	
-1.9989	0.764465	
-2.005	0.761414	
-2.005	0.764465	
-2.00806	0.769043	
-2.01263	0.764465	
-2.02026	0.767517	
-2.02179	0.767517	
-2.02637	0.764465	
-2.02637	0.761414	
-2.034	0.767517	
-2.03552	0.769043	
-2.03857	0.761414	
-2.04468	0.762939	
-2.04315	0.767517	
-2.05078	0.762939	
-2.05383	0.764465	
-2.05994	0.764465	
-2.06299	0.767517	
-2.06299	0.759888	
-2.07062	0.762939	
-2.07367	0.767517	
-2.07825	0.759888	
-2.0813	0.767517	
-2.0874	0.769043	
-2.08893	0.764465	
-2.09198	0.764465	
-2.09045	0.767517	
-2.09503	0.762939	
-2.10114	0.761414	
-2.10571	0.764465	
-2.10876	0.762939	
-2.11182	0.759888	
-2.11792	0.761414	
-2.11792	0.767517	
-2.1225	0.761414	
-2.12708	0.764465	
-2.1286	0.767517	
-2.13318	0.764465	
-2.1347	0.758362	
-2.14081	0.761414	
-2.14386	0.762939	
-2.14539	0.761414	
-2.15149	0.762939	
-2.15607	0.769043	
-2.15607	0.762939	
-2.1637	0.761414	
-2.1637	0.769043	
-2.16522	0.762939	
-2.17133	0.759888	
-2.17438	0.767517	
-2.17743	0.764465	
-2.18048	0.761414	
-2.18658	0.762939	
-2.18964	0.769043	
-2.19116	0.764465	
-2.19421	0.759888	
-2.19879	0.769043	
-2.20032	0.762939	
-2.20337	0.762939	
-2.20795	0.762939	
-2.20947	0.767517	
-2.21558	0.761414	
-2.2171	0.759888	
-2.22015	0.764465	
-2.22626	0.764465	
-2.22931	0.764465	
-2.23083	0.770569	
-2.23846	0.762939	
-2.23999	0.761414	
-2.24152	0.767517	
-2.24762	0.762939	
-2.24915	0.762939	
-2.25372	0.761414	
-2.25525	0.767517	
-2.25525	0.761414	
-2.25983	0.762939	
-2.26288	0.767517	
-2.26593	0.764465	
-2.26746	0.762939	
-2.27203	0.764465	
-2.27356	0.767517	
-2.27356	0.758362	
-2.27661	0.756836	
-2.27203	0.767517	
-2.27203	0.764465	
-2.27203	0.767517	
-2.26898	0.770569	
-2.26288	0.769043	
-2.25983	0.758362	
-2.25067	0.767517	
-2.24152	0.762939	
-2.23389	0.761414	
-2.22168	0.759888	
-2.20642	0.767517	
-2.19574	0.759888	
-2.17896	0.764465	
-2.16064	0.769043	
-2.14691	0.762939	
-2.13013	0.759888	
-2.11487	0.764465	
-2.09351	0.764465	
-2.0752	0.75531	
-2.05536	0.761414	
-2.03857	0.769043	
-2.02179	0.761414	
-2.005	0.759888	
-1.98669	0.769043	
-1.96838	0.769043	
-1.95313	0.761414	
-1.93176	0.762939	
-1.9165	0.764465	
-1.89972	0.758362	
-1.88599	0.764465	
-1.87378	0.769043	
-1.85852	0.762939	
-1.84479	0.764465	
-1.82953	0.769043	
-1.81732	0.762939	
-1.80664	0.759888	
-1.79596	0.764465	
-1.7868	0.764465	
-1.77155	0.761414	
-1.76697	0.759888	
-1.75171	0.769043	
-1.74561	0.762939	
-1.73645	0.767517	
-1.72882	0.769043	
-1.72272	0.762939	
-1.71509	0.759888	
-1.71051	0.764465	
-1.70288	0.764465	
-1.69983	0.758362	
-1.69525	0.759888	
-1.69373	0.764465	
-1.69067	0.761414	
-1.6861	0.761414	
-1.68762	0.769043	
-1.68457	0.764465	
-1.68457	0.761414	
-1.68152	0.762939	
-1.68304	0.762939	
-1.67847	0.758362	
-1.68152	0.761414	
-1.67847	0.770569	
-1.68152	0.761414	
-1.68304	0.759888	
-1.68457	0.770569	
-1.68457	0.764465	
-1.68304	0.759888	
-1.69067	0.764465	
-1.69067	0.762939	
-1.69525	0.758362	
-1.6983	0.758362	
-1.69983	0.764465	
-1.69983	0.762939	
-1.70441	0.761414	
-1.70898	0.772095	
-1.71204	0.767517	
-1.71509	0.762939	
-1.72272	0.764465	
-1.72272	0.762939	
-1.72882	0.75531	
-1.73035	0.758362	
-1.73492	0.767517	
-1.73798	0.761414	
-1.74408	0.761414	
-1.74561	0.770569	
-1.75018	0.764465	
-1.75171	0.756836	
-1.75934	0.764465	
-1.76544	0.762939	
-1.76849	0.756836	
-1.76849	0.759888	
-1.77307	0.764465	
-1.77765	0.761414	
-1.78223	0.762939	
-1.7868	0.769043	
-1.78833	0.767517	
-1.79138	0.759888	
-1.79749	0.764465	
-1.80206	0.767517	
-1.80359	0.756836	
-1.80664	0.758362	
-1.80969	0.764465	
-1.8158	0.764465	
-1.81885	0.761414	
-1.82343	0.769043	
-1.82648	0.767517	
-1.83105	0.761414	
-1.83868	0.764465	
-1.84174	0.764465	
-1.84479	0.752258	
-1.85089	0.759888	
-1.85699	0.764465	
-1.86005	0.761414	
-1.86005	0.761414	
-1.87225	0.769043	
-1.87225	0.767517	
-1.87988	0.759888	
-1.88141	0.761414	
-1.88599	0.767517	
-1.89209	0.756836	
-1.89514	0.759888	
-1.89972	0.762939	
-1.89972	0.762939	
-1.9043	0.759888	
-1.9043	0.769043	
-1.9104	0.764465	
-1.91345	0.756836	
-1.91803	0.761414	
-1.91956	0.764465	
-1.92413	0.75531	
-1.92566	0.758362	
-1.92719	0.762939	
-1.93329	0.758362	
-1.93176	0.761414	
-1.93329	0.770569	
-1.93787	0.764465	
-1.93481	0.759888	
-1.93481	0.762939	
-1.93939	0.767517	
-1.93939	0.753784	
-1.94244	0.756836	
-1.94092	0.759888	
-1.93939	0.758362	
-1.94244	0.759888	
-1.94092	0.769043	
-1.94092	0.764465	
-1.94092	0.761414	
-1.94092	0.761414	
-1.93787	0.762939	
-1.94092	0.75531	
-1.93787	0.758362	
-1.93787	0.764465	
-1.93481	0.759888	
-1.93634	0.758362	
-1.93176	0.767517	
-1.93024	0.764465	
-1.93024	0.759888	
-1.93024	0.762939	
-1.92871	0.764465	
-1.92719	0.753784	
-1.93024	0.758362	
-1.92413	0.762939	
-1.92566	0.758362	
-1.92566	0.759888	
-1.92413	0.770569	
-1.92261	0.767517	
-1.92261	0.758362	
-1.91956	0.762939	
-1.91956	0.764465	
-1.91956	0.752258	
-1.91803	0.758362	
-1.91803	0.769043	
-1.91498	0.761414	
-1.9165	0.758362	
-1.91803	0.769043	
-1.9165	0.767517	
-1.9165	0.756836	
-1.9165	0.761414	
-1.91498	0.761414	
-1.9165	0.753784	
-1.9165	0.758362	
-1.91803	0.764465	
-1.9165	0.759888	
-1.91803	0.756836	
-1.91956	0.767517	
-1.92413	0.764465	
-1.92108	0.758362	
-1.92261	0.762939	
-1.92719	0.761414	
-1.92871	0.75531	
-1.92871	0.75531	
-1.93024	0.761414	
-1.93329	0.761414	
-1.93634	0.758362	
-1.93787	0.767517	
-1.93939	0.764465	
-1.9455	0.759888	
-1.94855	0.761414	
-1.95007	0.762939	
-1.95007	0.753784	
-1.95313	0.756836	
-1.95465	0.761414	
-1.96075	0.762939	
-1.96228	0.759888	
-1.96228	0.769043	
-1.96686	0.764465	
-1.96991	0.761414	
-1.97449	0.764465	
-1.97449	0.762939	
-1.97754	0.75531	
-1.98364	0.756836	
-1.98212	0.762939	
-1.98975	0.758362	
-1.9928	0.758362	
-1.99585	0.767517	
-1.9989	0.767517	
-2.00348	0.759888	
-2.005	0.762939	
-2.005	0.761414	
-2.01263	0.75531	
-2.01263	0.759888	
-2.01721	0.762939	
-2.02026	0.759888	
-2.02179	0.758362	
-2.02637	0.770569	
-2.03094	0.767517	
-2.034	0.759888	
-2.03705	0.762939	
-2.0401	0.762939	
-2.04163	0.753784	
-2.04773	0.756836	
-2.04926	0.767517	
-2.05383	0.756836	
-2.05688	0.758362	
-2.06299	0.767517	
-2.06757	0.762939	
-2.06757	0.758362	
-2.07062	0.762939	
-2.07672	0.764465	
-2.07977	0.75531	
-2.08282	0.756836	
-2.08588	0.767517	
-2.08893	0.758362	
-2.09198	0.758362	
-2.09656	0.764465	
-2.10266	0.762939	
-2.10724	0.758362	
-2.11029	0.759888	
-2.11182	0.761414	
-2.11639	0.75531	
-2.12097	0.758362	
-2.12402	0.761414	
-2.12708	0.758362	
-2.13013	0.758362	
-2.13165	0.762939	
-2.14081	0.762939	
-2.14233	0.756836	
-2.14539	0.764465	
-2.14996	0.761414	
-2.15302	0.75531	
-2.15454	0.756836	
-2.15759	0.762939	
-2.16217	0.758362	
-2.1637	0.759888	
-2.16675	0.767517	
-2.1698	0.761414	
-2.17438	0.761414	
-2.17743	0.758362	
-2.18048	0.762939	
-2.18353	0.756836	
-2.18658	0.759888	
-2.18964	0.762939	
-2.19269	0.759888	
-2.19727	0.75531	
-2.20032	0.769043	
-2.19879	0.759888	
-2.2049	0.758362	
-2.20642	0.759888	
-2.211	0.762939	
-2.21558	0.75531	
-2.22168	0.759888	
-2.22015	0.769043	
-2.22321	0.759888	
-2.22626	0.756836	
-2.22931	0.767517	
-2.23236	0.764465	
-2.23389	0.756836	
-2.23846	0.764465	
-2.24152	0.762939	
-2.24152	0.75531	
-2.24762	0.756836	
-2.24762	0.761414	
-2.24915	0.756836	
-2.25677	0.756836	
-2.2583	0.764465	
-2.25983	0.762939	
-2.2644	0.758362	
-2.26746	0.758362	
-2.26593	0.764465	
-2.26746	0.756836	
-2.26746	0.756836	
-2.26898	0.764465	
-2.26898	0.759888	
-2.26746	0.756836	
-2.26288	0.759888	
-2.26135	0.761414	
-2.2583	0.758362	
-2.24915	0.767517	
-2.24457	0.767517	
-2.23083	0.758362	
-2.22473	0.758362	
-2.20947	0.761414	
-2.19879	0.759888	
-2.18506	0.758362	
-2.1698	0.762939	
-2.15454	0.762939	
-2.1347	0.758362	
-2.11639	0.762939	
-2.10114	0.761414	
-2.07977	0.756836	
-2.06299	0.756836	
-2.04163	0.761414	
-2.02484	0.761414	
-2.005	0.75531	
-1.98364	0.762939	
-1.96838	0.761414	
-1.95007	0.756836	
-1.93024	0.758362	
-1.9165	0.758362	
-1.89667	0.758362	
-1.87988	0.756836	
-1.86157	0.761414	
-1.84784	0.759888	
-1.83411	0.753784	
-1.82037	0.762939	
-1.80664	0.759888	
-1.79596	0.758362	
-1.7807	0.759888	
-1.77002	0.761414	
-1.75781	0.756836	
-1.74408	0.759888	
-1.73645	0.761414	
-1.72577	0.759888	
-1.71967	0.753784	
-1.71051	0.762939	
-1.70135	0.761414	
-1.69525	0.758362	
-1.68915	0.759888	
-1.68457	0.764465	
-1.67694	0.759888	
-1.67236	0.758362	
-1.66931	0.762939	
-1.66473	0.761414	
-1.66016	0.758362	
-1.65863	0.762939	
-1.65863	0.761414	
-1.65558	0.756836	
-1.651	0.758362	
-1.65405	0.762939	
-1.65405	0.759888	
-1.65405	0.758362	
-1.65253	0.761414	
-1.65405	0.759888	
-1.65405	0.756836	
-1.6571	0.759888	
-1.66016	0.761414	
-1.66016	0.758362	
-1.66168	0.764465	
-1.66321	0.764465	
-1.66321	0.759888	
-1.66931	0.758362	
-1.67084	0.764465	
-1.67389	0.761414	
-1.67389	0.759888	
-1.68304	0.762939	
-1.68304	0.764465	
-1.68762	0.758362	
-1.69067	0.764465	
-1.69678	0.764465	
-1.6983	0.758362	
-1.70441	0.759888	
-1.70288	0.767517	
-1.71051	0.761414	
-1.71509	0.758362	
-1.71509	0.759888	
-1.72272	0.761414	
-1.72729	0.758362	
-1.72882	0.761414	
-1.73492	0.762939	
-1.74103	0.759888	
-1.74103	0.753784	
-1.74713	0.762939	
-1.75018	0.756836	
-1.75018	0.758362	
-1.75934	0.764465	
-1.76239	0.762939	
-1.76544	0.756836	
-1.77002	0.761414	
-1.77307	0.761414	
-1.7746	0.758362	
-1.77765	0.758362	
-1.78528	0.759888	
-1.7868	0.761414	
-1.79138	0.756836	
-1.79291	0.761414	
-1.80054	0.762939	
-1.80206	0.756836	
-1.80511	0.759888	
-1.81427	0.759888	
-1.81427	0.758362	
-1.8219	0.758362	
-1.82343	0.761414	
-1.828	0.756836	
-1.83563	0.753784	
-1.83868	0.761414	
-1.84631	0.758362	
-1.84937	0.753784	
-1.85547	0.759888	
-1.85699	0.761414	
-1.8631	0.756836	
-1.86462	0.75531	
-1.86768	0.761414	
-1.87378	0.756836	
-1.87988	0.75531	
-1.88141	0.756836	
-1.88446	0.761414	
-1.88751	0.756836	
-1.89056	0.756836	
-1.89667	0.758362	
-1.89667	0.758362	
-1.89819	0.75531	
-1.90125	0.761414	
-1.90125	0.756836	
-1.9043	0.75531	
-1.90735	0.759888	
-1.9104	0.761414	
-1.90582	0.756836	
-1.91345	0.759888	
-1.91345	0.758362	
-1.91345	0.759888	
-1.9165	0.75531	
-1.91498	0.758362	
-1.91498	0.758362	
-1.91803	0.756836	
-1.91803	0.759888	
-1.9165	0.761414	
-1.91498	0.758362	
-1.91193	0.759888	
-1.91498	0.761414	
-1.9165	0.759888	
-1.91193	0.758362	
-1.91193	0.761414	
-1.90735	0.756836	
-1.90582	0.756836	
-1.90582	0.758362	
-1.90582	0.759888	
-1.90125	0.758362	
-1.90125	0.758362	
-1.89972	0.761414	
-1.89819	0.758362	
-1.89667	0.758362	
-1.89514	0.759888	
-1.89362	0.752258	
-1.89362	0.75531	
-1.89209	0.759888	
-1.89056	0.758362	
-1.89056	0.758362	
-1.88904	0.762939	
-1.88751	0.762939	
-1.89056	0.761414	
-1.88904	0.758362	
-1.88599	0.762939	
-1.88751	0.756836	
-1.88751	0.75531	
-1.88751	0.758362	
-1.88599	0.759888	
-1.88904	0.758362	
-1.88904	0.758362	
-1.89056	0.759888	
-1.88751	0.756836	
-1.88751	0.758362	
-1.88904	0.758362	
-1.89056	0.75531	
-1.89056	0.75531	
-1.88904	0.758362	
-1.89056	0.758362	
-1.89209	0.756836	
-1.89209	0.759888	
-1.89667	0.761414	
-1.89514	0.759888	
-1.90125	0.756836	
-1.90125	0.756836	
-1.9043	0.758362	
-1.90125	0.75531	
-1.9104	0.758362	
-1.9104	0.761414	
-1.91498	0.759888	
-1.9165	0.761414	
-1.91956	0.762939	
-1.91803	0.756836	
-1.91803	0.759888	
-1.92719	0.761414	
-1.92719	0.756836	
-1.93176	0.756836	
-1.93481	0.758362	
-1.93634	0.761414	
-1.93939	0.758362	
-1.94244	0.758362	
-1.94397	0.761414	
-1.9516	0.756836	
-1.95313	0.756836	
-1.95465	0.759888	
-1.96075	0.756836	
-1.96381	0.75531	
-1.96533	0.75531	
-1.96838	0.758362	
-1.97296	0.756836	
-1.97601	0.758362	
-1.98059	0.761414	
-1.98212	0.758362	
-1.98975	0.758362	
-1.99432	0.758362	
-1.99585	0.75531	
-2.00043	0.75531	
-2.00653	0.756836	
-2.00653	0.759888	
-2.01111	0.756836	
-2.01416	0.758362	
-2.01874	0.759888	
-2.02484	0.756836	
-2.03094	0.75531	
-2.03094	0.759888	
-2.03705	0.75531	
-2.03705	0.756836	
-2.04468	0.756836	
-2.0462	0.756836	
-2.05231	0.75531	
-2.05688	0.758362	
-2.05994	0.762939	
-2.06451	0.758362	
-2.06757	0.758362	
-2.07062	0.758362	
-2.07825	0.756836	
-2.07825	0.756836	
-2.0813	0.759888	
-2.0874	0.758362	
-2.08893	0.758362	
-2.09351	0.759888	
-2.09808	0.759888	
-2.10114	0.75531	
-2.10419	0.75531	
-2.11029	0.761414	
-2.11487	0.756836	
-2.11487	0.75531	
-2.11945	0.759888	
-2.12402	0.759888	
-2.12708	0.758362	
-2.13013	0.758362	
-2.13165	0.764465	
-2.1347	0.758362	
-2.14539	0.756836	
-2.14539	0.756836	
-2.14996	0.753784	
-2.14844	0.752258	
-2.15454	0.758362	
-2.15912	0.758362	
-2.16064	0.758362	
-2.1637	0.761414	
-2.1698	0.761414	
-2.17133	0.756836	
-2.17285	0.75531	
-2.18048	0.758362	
-2.17896	0.753784	
-2.18506	0.753784	
-2.18658	0.756836	
-2.18811	0.759888	
-2.19269	0.756836	
-2.19269	0.758362	
-2.19879	0.761414	
-2.19727	0.758362	
-2.20184	0.75531	
-2.20184	0.756836	
-2.20642	0.759888	
-2.211	0.750732	
-2.21252	0.758362	
-2.2171	0.759888	
-2.21863	0.758362	
-2.22321	0.758362	
-2.22473	0.756836	
-2.22778	0.758362	
-2.22778	0.75531	
-2.23236	0.756836	
-2.23541	0.756836	
-2.23694	0.753784	
-2.23846	0.758362	
-2.24152	0.759888	
-2.24152	0.756836	
-2.24762	0.761414	
-2.24609	0.759888	
-2.24762	0.756836	
-2.24457	0.75531	
-2.24609	0.761414	
-2.24457	0.75531	
-2.23999	0.753784	
-2.24152	0.758362	
-2.23694	0.759888	
-2.22778	0.756836	
-2.22321	0.761414	
-2.21558	0.759888	
-2.20032	0.75531	
-2.19421	0.753784	
-2.18048	0.758362	
-2.16675	0.752258	
-2.15149	0.75531	
-2.1347	0.758362	
-2.11639	0.756836	
-2.10114	0.753784	
-2.08435	0.758362	
-2.06604	0.761414	
-2.04468	0.75531	
-2.02789	0.756836	
-2.00958	0.753784	
-1.9928	0.756836	
-1.97449	0.752258	
-1.95618	0.758362	
-1.93939	0.761414	
-1.92108	0.756836	
-1.9043	0.758362	
-1.88751	0.762939	
-1.8692	0.753784	
-1.85394	0.752258	
-1.84174	0.758362	
-1.82495	0.753784	
-1.80969	0.75531	
-1.79901	0.75531	
-1.78375	0.759888	
-1.77307	0.758362	
-1.76544	0.758362	
-1.74866	0.761414	
-1.7395	0.75531	
-1.73187	0.752258	
-1.72424	0.753784	
-1.71204	0.758362	
-1.70441	0.752258	
-1.6983	0.761414	
-1.69067	0.761414	
-1.6861	0.75531	
-1.68304	0.761414	
-1.67236	0.759888	
-1.66779	0.758362	
-1.66473	0.753784	
-1.66168	0.753784	
-1.65863	0.756836	
-1.6571	0.75531	
-1.65558	0.75531	
-1.65253	0.759888	
-1.64948	0.758362	
-1.651	0.758362	
-1.651	0.761414	
-1.64948	0.758362	
-1.64795	0.75531	
-1.651	0.75531	
-1.65253	0.758362	
-1.65253	0.753784	
-1.65253	0.758362	
-1.65253	0.759888	
-1.65405	0.758362	
-1.66016	0.758362	
-1.66016	0.758362	
-1.66626	0.758362	
-1.66779	0.750732	
-1.67236	0.75531	
-1.67236	0.75531	
-1.67389	0.753784	
-1.68304	0.756836	
-1.68457	0.759888	
-1.69067	0.75531	
-1.69373	0.759888	
-1.6983	0.762939	
-1.70288	0.75531	
-1.70593	0.75531	
-1.71356	0.756836	
-1.71661	0.752258	
-1.72272	0.750732	
-1.72882	0.758362	
-1.7334	0.761414	
-1.73492	0.756836	
-1.73798	0.761414	
-1.74408	0.759888	
-1.74713	0.756836	
-1.75323	0.752258	
-1.75476	0.75531	
-1.76239	0.75531	
-1.76697	0.750732	
-1.77002	0.759888	
-1.77612	0.756836	
-1.77917	0.756836	
-1.7868	0.756836	
-1.7868	0.761414	
-1.79291	0.756836	
-1.80054	0.753784	
-1.80511	0.75531	
-1.80664	0.75531	
-1.81274	0.752258	
-1.82037	0.75531	
-1.82343	0.758362	
-1.82648	0.758362	
-1.83105	0.756836	
-1.83868	0.761414	
-1.84631	0.758362	
-1.84937	0.753784	
-1.85394	0.753784	
-1.85852	0.752258	
-1.8631	0.752258	
-1.8692	0.756836	
-1.87683	0.758362	
-1.88141	0.756836	
-1.88446	0.758362	
-1.88904	0.762939	
-1.89209	0.756836	
-1.89819	0.753784	
-1.90125	0.753784	
-1.90277	0.756836	
-1.9104	0.753784	
-1.9104	0.756836	
-1.9165	0.759888	
-1.91956	0.758362	
-1.92108	0.756836	
-1.92566	0.758362	
-1.92566	0.75531	
-1.93024	0.75531	
-1.93024	0.752258	
-1.93329	0.753784	
-1.93176	0.752258	
-1.93787	0.758362	
-1.93939	0.756836	
-1.93634	0.758362	
-1.94092	0.759888	
-1.94244	0.759888	
-1.94092	0.758362	
-1.94244	0.753784	
-1.94092	0.75531	
-1.94092	0.75531	
-1.94244	0.749207	
-1.93939	0.756836	
-1.93634	0.759888	
-1.93787	0.759888	
-1.93634	0.759888	
-1.93329	0.758362	
-1.93176	0.75531	
-1.93176	0.753784	
-1.92719	0.75531	
-1.92719	0.752258	
-1.92413	0.752258	
-1.92261	0.756836	
-1.91956	0.761414	
-1.91956	0.759888	
-1.91956	0.761414	
-1.91345	0.759888	
-1.9104	0.756836	
-1.90735	0.75531	
-1.90735	0.756836	
-1.90125	0.747681	
-1.9043	0.752258	
-1.90277	0.756836	
-1.89972	0.758362	
-1.89972	0.756836	
-1.89819	0.756836	
-1.89819	0.758362	
-1.89362	0.75531	
-1.89667	0.753784	
-1.89514	0.75531	
-1.89514	0.750732	
-1.89362	0.752258	
-1.89362	0.756836	
-1.89209	0.759888	
-1.89209	0.758362	
-1.89362	0.759888	
-1.89056	0.758362	
-1.89209	0.752258	
-1.89209	0.753784	
-1.89209	0.750732	
-1.89362	0.753784	
-1.89362	0.752258	
-1.89667	0.753784	
-1.89667	0.759888	
-1.89514	0.758362	
-1.89972	0.753784	
-1.90125	0.759888	
-1.89972	0.753784	
-1.90125	0.75531	
-1.90277	0.753784	
-1.90582	0.752258	
-1.9104	0.752258	
-1.9104	0.75531	
-1.9104	0.75531	
-1.91193	0.758362	
-1.91498	0.75531	
-1.91803	0.759888	
-1.91956	0.753784	
-1.92413	0.750732	
-1.92719	0.749207	
-1.92719	0.753784	
-1.93176	0.750732	
-1.93481	0.75531	
-1.93634	0.756836	
-1.93787	0.756836	
-1.94244	0.756836	
-1.95007	0.758362	
-1.94855	0.753784	
-1.95313	0.75531	
-1.95313	0.752258	
-1.9577	0.752258	
-1.95923	0.753784	
-1.96381	0.756836	
-1.96533	0.758362	
-1.96686	0.75531	
-1.97449	0.75531	
-1.97906	0.759888	
-1.97754	0.752258	
-1.98669	0.753784	
-1.9928	0.750732	
-1.9928	0.752258	
-1.99738	0.752258	
-1.9989	0.753784	
-2.00043	0.753784	
-2.00348	0.756836	
-2.00958	0.756836	
-2.00806	0.75531	
-2.01263	0.756836	
-2.01721	0.752258	
-2.02484	0.747681	
-2.02637	0.752258	
-2.03247	0.752258	
-2.03094	0.75531	
-2.03705	0.752258	
-2.03705	0.75531	
-2.04163	0.756836	
-2.04315	0.758362	
-2.05078	0.753784	
-2.05536	0.753784	
-2.05536	0.749207	
-2.05994	0.752258	
-2.06451	0.749207	
-2.06909	0.75531	
-2.07367	0.75531	
-2.07367	0.756836	
-2.0813	0.75531	
-2.07977	0.758362	
-2.08588	0.753784	
-2.08893	0.752258	
-2.09351	0.749207	
-2.09503	0.752258	
-2.09656	0.753784	
-2.10114	0.75531	
-2.10724	0.75531	
-2.10876	0.756836	
-2.11487	0.753784	
-2.11792	0.75531	
-2.12097	0.75531	
-2.12402	0.752258	
-2.12555	0.752258	
-2.13013	0.753784	
-2.13318	0.752258	
-2.14081	0.75531	
-2.14233	0.756836	
-2.14386	0.759888	
-2.14691	0.758362	
-2.15302	0.758362	
-2.15607	0.752258	
-2.15912	0.75531	
-2.15912	0.749207	
-2.16217	0.753784	
-2.1637	0.752258	
-2.16522	0.75531	
-2.17285	0.758362	
-2.17285	0.759888	
-2.17743	0.756836	
-2.18201	0.758362	
-2.18353	0.752258	
-2.18353	0.75531	
-2.18658	0.749207	
-2.19116	0.756836	
-2.19269	0.752258	
-2.19574	0.756836	
-2.19879	0.753784	
-2.19574	0.759888	
-2.20337	0.756836	
-2.20184	0.75531	
-2.20184	0.75531	
-2.20184	0.752258	
-2.20337	0.752258	
-2.19574	0.753784	
-2.19574	0.752258	
-2.19116	0.75531	
-2.18658	0.756836	
-2.18048	0.759888	
-2.1698	0.756836	
-2.16064	0.756836	
-2.14844	0.753784	
-2.13623	0.75531	
-2.12402	0.749207	
-2.11029	0.752258	
-2.09351	0.750732	
-2.0813	0.750732	
-2.06299	0.75531	
-2.04468	0.758362	
-2.02637	0.753784	
-2.005	0.758362	
-1.99127	0.75531	
-1.97144	0.753784	
-1.95618	0.750732	
-1.93939	0.749207	
-1.92261	0.746155	
-1.90277	0.753784	
-1.88446	0.753784	
-1.8692	0.756836	
-1.85242	0.753784	
-1.84021	0.758362	
-1.8219	0.753784	
-1.80817	0.75531	
-1.79291	0.752258	
-1.7807	0.750732	
-1.76697	0.749207	
-1.75476	0.753784	
-1.74408	0.752258	
-1.7334	0.756836	
-1.72424	0.753784	
-1.71509	0.756836	
-1.70288	0.753784	
-1.69525	0.753784	
-1.6861	0.750732	
-1.68304	0.752258	
-1.67542	0.747681	
-1.66779	0.753784	
-1.66016	0.75531	
-1.6571	0.756836	
-1.651	0.75531	
-1.64948	0.756836	
-1.64642	0.752258	
-1.64032	0.752258	
-1.63727	0.747681	
-1.63879	0.753784	
-1.63574	0.750732	
-1.63116	0.753784	
-1.63269	0.753784	
-1.63269	0.756836	
-1.63269	0.756836	
-1.63116	0.761414	
-1.62964	0.753784	
-1.63116	0.756836	
-1.62964	0.749207	
-1.63422	0.752258	
-1.63422	0.752258	
-1.63879	0.75531	
-1.63879	0.75531	
-1.64337	0.758362	
-1.64642	0.756836	
-1.64795	0.758362	
-1.65253	0.752258	
-1.65405	0.753784	
-1.6571	0.747681	
-1.66016	0.752258	
-1.66168	0.752258	
-1.66626	0.750732	
-1.67084	0.75531	
-1.67542	0.756836	
-1.68152	0.75531	
-1.6861	0.756836	
-1.68915	0.75531	
-1.69373	0.753784	
-1.69678	0.749207	
-1.6983	0.753784	
-1.70288	0.747681	
-1.70898	0.753784	
-1.71204	0.753784	
-1.71509	0.758362	
-1.72577	0.752258	
-1.72882	0.75531	
-1.73645	0.752258	
-1.73645	0.756836	
-1.74255	0.750732	
-1.74713	0.75531	
-1.75171	0.749207	
-1.75781	0.75531	
-1.76392	0.753784	
-1.76849	0.758362	
-1.77307	0.753784	
-1.77917	0.758362	
-1.78375	0.75531	
-1.78528	0.752258	
-1.79596	0.749207	
-1.80054	0.756836	
-1.80664	0.749207	
-1.81274	0.752258	
-1.82037	0.753784	
-1.82343	0.758362	
-1.828	0.753784	
-1.83868	0.758362	
-1.83868	0.753784	
-1.84479	0.756836	
-1.85242	0.750732	
-1.85852	0.753784	
-1.8631	0.749207	
-1.8631	0.753784	
-1.87531	0.752258	
-1.88141	0.756836	
-1.88446	0.750732	
-1.89056	0.75531	
-1.89362	0.75531	
-1.90125	0.753784	
-1.9043	0.749207	
-1.91193	0.752258	
-1.91345	0.750732	
-1.91803	0.753784	
-1.91956	0.752258	
-1.92566	0.759888	
-1.92566	0.75531	
-1.93176	0.756836	
-1.93024	0.753784	
-1.93481	0.75531	
-1.93634	0.749207	
-1.93939	0.749207	
-1.93939	0.746155	
-1.94092	0.752258	
-1.94092	0.753784	
-1.94092	0.75531	
-1.94397	0.756836	
-1.93939	0.756836	
-1.94244	0.753784	
-1.94244	0.750732	
-1.94092	0.749207	
-1.93939	0.752258	
-1.93939	0.750732	
-1.94092	0.753784	
-1.93787	0.752258	
-1.93481	0.75531	
-1.93176	0.753784	
-1.93024	0.758362	
-1.93024	0.75531	
-1.92719	0.750732	
-1.92413	0.747681	
-1.92413	0.750732	
-1.92108	0.747681	
-1.9165	0.752258	
-1.91803	0.752258	
-1.91193	0.758362	
-1.91193	0.75531	
-1.9043	0.756836	
-1.90125	0.75531	
-1.90277	0.753784	
-1.89972	0.750732	
-1.89667	0.75531	
-1.89514	0.747681	
-1.89514	0.753784	
-1.89514	0.753784	
-1.89056	0.758362	
-1.89056	0.75531	
-1.88904	0.758362	
-1.88904	0.752258	
-1.88599	0.749207	
-1.88446	0.746155	
-1.88599	0.750732	
-1.88293	0.749207	
-1.88141	0.750732	
-1.88446	0.752258	
-1.88293	0.759888	
-1.88141	0.749207	
-1.88293	0.753784	
-1.88293	0.75531	
-1.88446	0.750732	
-1.88599	0.747681	
-1.88446	0.752258	
-1.88446	0.747681	
-1.88293	0.750732	
-1.88599	0.750732	
-1.88751	0.756836	
-1.88751	0.75531	
-1.88751	0.756836	
-1.89056	0.753784	
-1.89209	0.750732	
-1.89514	0.747681	
-1.89514	0.753784	
-1.89514	0.750732	
-1.89819	0.752258	
-1.90125	0.752258	
-1.90277	0.756836	
-1.9043	0.752258	
-1.9104	0.75531	
-1.91193	0.750732	
-1.91193	0.753784	
-1.9165	0.750732	
-1.9165	0.750732	
-1.92413	0.749207	
-1.92566	0.752258	
-1.92566	0.752258	
-1.92871	0.756836	
-1.93176	0.753784	
-1.93176	0.756836	
-1.93939	0.752258	
-1.94092	0.750732	
-1.94244	0.744629	
-1.94855	0.750732	
-1.95313	0.750732	
-1.95465	0.756836	
-1.96228	0.756836	
-1.96533	0.756836	
-1.96991	0.752258	
-1.97144	0.753784	
-1.97296	0.752258	
-1.97906	0.750732	
-1.98212	0.750732	
-1.98822	0.750732	
-1.99127	0.747681	
-1.9928	0.752258	
-1.99585	0.750732	
-2.00043	0.758362	
-2.00195	0.750732	
-2.00806	0.75531	
-2.01263	0.752258	
-2.01263	0.752258	
-2.01569	0.747681	
-2.02179	0.752258	
-2.02179	0.750732	
-2.02942	0.750732	
-2.034	0.753784	
-2.03857	0.756836	
-2.04315	0.753784	
-2.04163	0.756836	
-2.04926	0.75531	
-2.05078	0.750732	
-2.05383	0.750732	
-2.05994	0.750732	
-2.05994	0.747681	
-2.06909	0.752258	
-2.07367	0.75531	
-2.07367	0.753784	
-2.07977	0.752258	
-2.0813	0.752258	
-2.08588	0.752258	
-2.09198	0.752258	
-2.09351	0.749207	
-2.09808	0.752258	
-2.10114	0.747681	
-2.10571	0.749207	
-2.10876	0.753784	
-2.10876	0.756836	
-2.11487	0.752258	
-2.11945	0.756836	
-2.12555	0.75531	
-2.12708	0.747681	
-2.13318	0.747681	
-2.13165	0.753784	
-2.1347	0.749207	
-2.14081	0.750732	
-2.14233	0.75531	
-2.14691	0.75531	
-2.15149	0.752258	
-2.15149	0.750732	
-2.15607	0.752258	
-2.15912	0.752258	
-2.16064	0.747681	
-2.16675	0.750732	
-2.16827	0.747681	
-2.1698	0.752258	
-2.17285	0.752258	
-2.17743	0.758362	
-2.17896	0.752258	
-2.17896	0.75531	
-2.18201	0.753784	
-2.18353	0.750732	
-2.18201	0.749207	
-2.18658	0.750732	
-2.18201	0.747681	
-2.17896	0.752258	
-2.17438	0.752258	
-2.16827	0.753784	
-2.1637	0.750732	
-2.15454	0.756836	
-2.14691	0.75531	
-2.13623	0.750732	
-2.1225	0.747681	
-2.10876	0.752258	
-2.09351	0.747681	
-2.07977	0.750732	
-2.05994	0.750732	
-2.04468	0.75531	
-2.02637	0.752258	
-2.005	0.753784	
-1.98822	0.752258	
-1.96991	0.749207	
-1.94855	0.746155	
-1.93024	0.752258	
-1.91345	0.747681	
-1.89056	0.749207	
-1.87836	0.752258	
-1.86005	0.75531	
-1.84174	0.753784	
-1.82037	0.752258	
-1.80817	0.750732	
-1.79138	0.752258	
-1.77612	0.746155	
-1.75934	0.750732	
-1.74561	0.747681	
-1.73035	0.750732	
-1.71661	0.752258	
-1.70593	0.752258	
-1.69373	0.753784	
-1.68152	0.75531	
-1.66779	0.750732	
-1.65863	0.753784	
-1.64795	0.747681	
-1.63879	0.750732	
-1.63116	0.747681	
-1.62659	0.749207	
-1.61743	0.752258	
-1.6098	0.75531	
-1.60217	0.753784	
-1.59607	0.752258	
-1.59302	0.753784	
-1.58997	0.752258	
-1.58539	0.746155	
-1.57928	0.750732	
-1.57623	0.746155	
-1.57776	0.750732	
-1.57471	0.75531	
-1.57318	0.753784	
-1.57166	0.75531	
-1.57013	0.752258	
-1.57013	0.752258	
-1.57318	0.749207	
-1.57166	0.747681	
-1.57166	0.752258	
-1.57013	0.749207	
-1.57318	0.749207	
-1.57471	0.753784	
-1.57776	0.75531	
-1.57623	0.752258	
-1.57928	0.752258	
-1.58081	0.752258	
-1.58234	0.747681	
-1.58539	0.746155	
-1.58844	0.750732	
-1.58997	0.747681	
-1.59607	0.750732	
-1.5976	0.750732	
-1.59912	0.753784	
-1.60675	0.750732	
-1.60828	0.750732	
-1.6098	0.752258	
-1.61285	0.749207	
-1.61743	0.744629	
-1.62354	0.750732	
-1.62506	0.747681	
-1.62811	0.747681	
-1.63116	0.753784	
-1.63422	0.753784	
-1.64032	0.752258	
-1.63879	0.75531	
-1.64795	0.75531	
-1.65253	0.750732	
-1.65405	0.746155	
-1.65863	0.750732	
-1.66168	0.746155	
-1.66321	0.747681	
-1.66626	0.753784	
-1.67084	0.75531	
-1.67236	0.749207	
-1.67694	0.753784	
-1.67694	0.752258	
-1.6861	0.749207	
-1.68915	0.753784	
-1.69373	0.749207	
-1.69678	0.747681	
-1.69983	0.750732	
-1.70593	0.749207	
-1.70746	0.75531	
-1.71356	0.752258	
-1.71509	0.752258	
-1.72272	0.750732	
-1.72424	0.75531	
-1.73035	0.747681	
-1.73492	0.750732	
-1.7395	0.750732	
-1.74408	0.746155	
-1.74866	0.752258	
-1.75171	0.75531	
-1.75934	0.752258	
-1.76239	0.753784	
-1.76392	0.753784	
-1.77155	0.750732	
-1.7746	0.746155	
-1.77917	0.752258	
-1.78223	0.746155	
-1.7868	0.749207	
-1.78833	0.749207	
-1.79291	0.753784	
-1.79749	0.752258	
-1.80206	0.753784	
-1.80054	0.753784	
-1.80359	0.747681	
-1.80664	0.749207	
-1.80817	0.749207	
-1.81122	0.747681	
-1.81427	0.747681	
-1.81122	0.752258	
-1.81427	0.753784	
-1.8158	0.752258	
-1.81427	0.753784	
-1.8158	0.750732	
-1.8158	0.752258	
-1.81427	0.746155	
-1.81427	0.747681	
-1.81274	0.747681	
-1.81732	0.744629	
-1.81732	0.749207	
-1.81274	0.753784	
-1.81427	0.750732	
-1.81427	0.750732	
-1.81122	0.752258	
-1.80969	0.750732	
-1.81122	0.744629	
-1.80969	0.749207	
-1.80664	0.747681	
-1.80969	0.746155	
-1.80511	0.749207	
-1.80206	0.752258	
-1.80664	0.752258	
-1.80206	0.749207	
-1.80206	0.752258	
-1.80206	0.750732	
-1.80206	0.746155	
-1.80054	0.749207	
-1.79901	0.747681	
-1.79901	0.747681	
-1.79749	0.750732	
-1.79749	0.75531	
-1.79291	0.750732	
-1.79749	0.752258	
-1.79749	0.750732	
-1.79749	0.752258	
-1.79291	0.746155	
-1.79291	0.750732	
-1.79291	0.746155	
-1.79138	0.747681	
-1.79138	0.753784	
-1.79749	0.752258	
-1.79291	0.750732	
-1.79138	0.752258	
-1.79291	0.753784	
-1.79291	0.75531	
-1.79901	0.746155	
-1.79138	0.746155	
-1.79901	0.744629	
-1.79291	0.744629	
-1.79901	0.752258	
-1.79749	0.753784	
-1.80359	0.750732	
-1.79901	0.752258	
-1.80206	0.750732	
-1.80359	0.750732	
-1.80664	0.744629	
-1.80664	0.747681	
-1.80817	0.744629	
-1.81122	0.747681	
-1.81122	0.749207	
-1.81274	0.753784	
-1.8158	0.752258	
-1.81885	0.75531	
-1.8219	0.75531	
-1.82343	0.750732	
-1.82495	0.747681	
-1.82648	0.749207	
-1.83105	0.746155	
-1.83411	0.747681	
-1.83411	0.749207	
-1.83716	0.753784	
-1.84326	0.749207	
-1.84937	0.752258	
-1.84631	0.750732	
-1.85089	0.747681	
-1.85699	0.747681	
-1.85852	0.750732	
-1.85852	0.744629	
-1.86615	0.746155	
-1.8692	0.749207	
-1.87225	0.75531	
-1.87836	0.749207	
-1.87988	0.752258	
-1.88293	0.753784	
-1.88599	0.750732	
-1.89056	0.746155	
-1.88904	0.747681	
-1.89667	0.747681	
-1.89667	0.746155	
-1.89972	0.749207	
-1.9043	0.75531	
-1.90582	0.747681	
-1.91193	0.750732	
-1.91498	0.750732	
-1.91956	0.747681	
-1.92261	0.746155	
-1.92413	0.746155	
-1.92871	0.744629	
-1.93176	0.744629	
-1.93481	0.747681	
-1.94092	0.753784	
-1.93939	0.750732	
-1.94244	0.752258	
-1.9455	0.752258	
-1.95007	0.749207	
-1.95618	0.746155	
-1.95923	0.749207	
-1.96075	0.747681	
-1.96381	0.747681	
-1.96686	0.749207	
-1.97144	0.752258	
-1.97296	0.750732	
-1.97601	0.750732	
-1.97754	0.752258	
-1.98212	0.749207	
-1.98364	0.747681	
-1.99127	0.749207	
-1.99432	0.744629	
-1.99738	0.744629	
-2.00043	0.749207	
-2.00195	0.75531	
-2.00653	0.749207	
-2.00806	0.753784	
-2.01111	0.750732	
-2.01569	0.750732	
-2.01569	0.747681	
-2.01874	0.747681	
-2.02484	0.749207	
-2.02942	0.746155	
-2.03094	0.750732	
-2.034	0.753784	
-2.0401	0.750732	
-2.03857	0.752258	
-2.0462	0.752258	
-2.05078	0.752258	
-2.05536	0.749207	
-2.05841	0.750732	
-2.05994	0.749207	
-2.06299	0.747681	
-2.06757	0.752258	
-2.07367	0.752258	
-2.07367	0.753784	
-2.0752	0.753784	
-2.07977	0.752258	
-2.08435	0.752258	
-2.0874	0.749207	
-2.08893	0.747681	
-2.08893	0.750732	
-2.09198	0.747681	
-2.09045	0.750732	
-2.09198	0.752258	
-2.09198	0.752258	
-2.08893	0.752258	
-2.08588	0.752258	
-2.08282	0.750732	
-2.07672	0.744629	
-2.06909	0.750732	
-2.05994	0.746155	
-2.0462	0.746155	
-2.03552	0.750732	
-2.02179	0.750732	
-2.00958	0.750732	
-1.99127	0.753784	
-1.97449	0.753784	
-1.96075	0.750732	
-1.93939	0.747681	
-1.92108	0.749207	
-1.9043	0.747681	
-1.88751	0.749207	
-1.86615	0.749207	
-1.84784	0.749207	
-1.828	0.749207	
-1.81274	0.749207	
-1.79291	0.749207	
-1.77765	0.749207	
-1.76086	0.747681	
-1.74408	0.747681	
-1.72424	0.744629	
-1.70898	0.746155	
-1.69525	0.750732	
-1.68457	0.749207	
-1.66626	0.750732	
-1.651	0.752258	
-1.64032	0.749207	
-1.61896	0.750732	
-1.61133	0.747681	
-1.59912	0.747681	
-1.58844	0.746155	
-1.58081	0.746155	
-1.57166	0.750732	
-1.55792	0.752258	
-1.54877	0.749207	
-1.54114	0.750732	
-1.53503	0.750732	
-1.52893	0.747681	
-1.51825	0.746155	
-1.51215	0.747681	
-1.50757	0.746155	
-1.50299	0.746155	
-1.49994	0.746155	
-1.49689	0.750732	
-1.49231	0.750732	
-1.48773	0.752258	
-1.48468	0.75531	
-1.48315	0.749207	
-1.48163	0.746155	
-1.47858	0.749207	
-1.4801	0.743103	
-1.47858	0.749207	
-1.47705	0.752258	
-1.47858	0.752258	
-1.48163	0.747681	
-1.47858	0.749207	
-1.4801	0.750732	
-1.48315	0.747681	
-1.48468	0.746155	
-1.48468	0.747681	
-1.48621	0.746155	
-1.49231	0.746155	
-1.49078	0.750732	
-1.49536	0.750732	
-1.49689	0.747681	
-1.49994	0.750732	
-1.49994	0.752258	
-1.50299	0.749207	
-1.50604	0.746155	
-1.50909	0.750732	
-1.51215	0.746155	
-1.51367	0.746155	
-1.51978	0.749207	
-1.52283	0.752258	
-1.52283	0.749207	
-1.53198	0.752258	
-1.53198	0.749207	
-1.53656	0.746155	
-1.53961	0.747681	
-1.54266	0.746155	
-1.54572	0.746155	
-1.54724	0.746155	
-1.55029	0.752258	
-1.55487	0.749207	
-1.5564	0.752258	
-1.56097	0.749207	
-1.56708	0.750732	
-1.5686	0.752258	
-1.57471	0.747681	
-1.57623	0.749207	
-1.57776	0.744629	
-1.58081	0.749207	
-1.58539	0.747681	
-1.58691	0.749207	
-1.59302	0.747681	
-1.59454	0.750732	
-1.59912	0.750732	
-1.60217	0.749207	
-1.6098	0.749207	
-1.61133	0.747681	
-1.61438	0.749207	
-1.61896	0.750732	
-1.62201	0.750732	
-1.62811	0.750732	
-1.62964	0.749207	
-1.63422	0.750732	
-1.63727	0.752258	
-1.6449	0.749207	
-1.64948	0.750732	
-1.64948	0.749207	
-1.65558	0.741577	
-1.66016	0.747681	
-1.66626	0.749207	
-1.66931	0.746155	
-1.67236	0.750732	
-1.67236	0.750732	
-1.67847	0.752258	
-1.68304	0.749207	
-1.68762	0.747681	
-1.68762	0.744629	
-1.69067	0.747681	
-1.69525	0.749207	
-1.69678	0.747681	
-1.69678	0.750732	
-1.69983	0.753784	
-1.70135	0.750732	
-1.70288	0.749207	
-1.70746	0.752258	
-1.70746	0.749207	
-1.70593	0.746155	
-1.71204	0.747681	
-1.71051	0.747681	
-1.71051	0.749207	
-1.71204	0.744629	
-1.71204	0.744629	
-1.71356	0.749207	
-1.71204	0.750732	
-1.71356	0.749207	
-1.71051	0.747681	
