-2.26898	0.663757	
-2.27356	0.65918	
-2.27509	0.65918	
-2.27814	0.657654	
-2.28119	0.666809	
-2.28577	0.657654	
-2.28729	0.657654	
-2.29187	0.65918	
-2.29492	0.662231	
-2.29645	0.653076	
-2.30103	0.65918	
-2.30408	0.65918	
-2.30713	0.65918	
-2.31018	0.662231	
-2.31171	0.665283	
-2.31323	0.657654	
-2.31781	0.663757	
-2.32086	0.65918	
-2.32239	0.656128	
-2.32697	0.656128	
-2.33002	0.657654	
-2.33002	0.656128	
-2.33765	0.663757	
-2.33612	0.65918	
-2.33765	0.663757	
-2.34222	0.65918	
-2.34528	0.665283	
-2.34528	0.65918	
-2.34985	0.657654	
-2.35138	0.657654	
-2.35291	0.65918	
-2.35901	0.656128	
-2.36206	0.656128	
-2.36511	0.65918	
-2.36816	0.662231	
-2.37274	0.656128	
-2.37427	0.65918	
-2.37732	0.662231	
-2.38342	0.65918	
-2.38495	0.657654	
-2.38953	0.65918	
-2.39105	0.654602	
-2.39258	0.65918	
-2.39868	0.65918	
-2.39868	0.65918	
-2.40326	0.657654	
-2.40173	0.665283	
-2.40936	0.65918	
-2.41089	0.657654	
-2.41394	0.657654	
-2.41699	0.662231	
-2.42157	0.656128	
-2.42004	0.657654	
-2.42615	0.662231	
-2.42462	0.656128	
-2.43225	0.657654	
-2.4292	0.656128	
-2.43225	0.662231	
-2.43225	0.65918	
-2.43378	0.657654	
-2.43225	0.65918	
-2.43073	0.656128	
-2.42767	0.662231	
-2.42615	0.662231	
-2.42157	0.657654	
-2.41394	0.657654	
-2.41089	0.65918	
-2.40021	0.657654	
-2.38953	0.656128	
-2.37885	0.657654	
-2.36511	0.654602	
-2.34985	0.657654	
-2.33765	0.657654	
-2.31781	0.65918	
-2.30255	0.656128	
-2.28119	0.65918	
-2.26288	0.65918	
-2.23999	0.657654	
-2.21558	0.657654	
-2.19421	0.657654	
-2.1698	0.657654	
-2.15149	0.656128	
-2.12555	0.662231	
-2.10419	0.65918	
-2.08588	0.656128	
-2.06604	0.657654	
-2.04468	0.657654	
-2.02637	0.662231	
-2.00348	0.657654	
-1.98669	0.65918	
-1.96686	0.657654	
-1.9516	0.662231	
-1.93329	0.656128	
-1.91498	0.65918	
-1.89972	0.657654	
-1.88446	0.65918	
-1.87225	0.65918	
-1.85699	0.65918	
-1.84631	0.65918	
-1.83105	0.65918	
-1.8219	0.656128	
-1.81122	0.657654	
-1.80359	0.656128	
-1.79291	0.65918	
-1.7868	0.656128	
-1.77917	0.657654	
-1.77155	0.662231	
-1.76544	0.656128	
-1.76086	0.657654	
-1.75781	0.663757	
-1.74866	0.657654	
-1.74866	0.657654	
-1.7395	0.656128	
-1.74103	0.663757	
-1.73645	0.654602	
-1.73798	0.65918	
-1.73187	0.657654	
-1.73035	0.657654	
-1.7334	0.657654	
-1.73035	0.657654	
-1.73187	0.657654	
-1.73187	0.657654	
-1.73187	0.656128	
-1.7334	0.65918	
-1.7334	0.654602	
-1.73645	0.656128	
-1.73645	0.657654	
-1.7395	0.657654	
-1.74561	0.662231	
-1.74255	0.663757	
-1.74866	0.656128	
-1.74713	0.657654	
-1.75171	0.656128	
-1.75934	0.657654	
-1.76086	0.653076	
-1.76392	0.65918	
-1.76239	0.656128	
-1.77002	0.65918	
-1.77307	0.662231	
-1.7807	0.662231	
-1.78375	0.65918	
-1.78528	0.65918	
-1.78833	0.657654	
-1.79291	0.65918	
-1.79749	0.654602	
-1.80206	0.65918	
-1.80511	0.656128	
-1.80969	0.656128	
-1.80817	0.654602	
-1.8158	0.662231	
-1.81885	0.656128	
-1.82343	0.662231	
-1.828	0.657654	
-1.83105	0.65918	
-1.83868	0.653076	
-1.83868	0.65918	
-1.84479	0.656128	
-1.84784	0.656128	
-1.85394	0.657654	
-1.85852	0.662231	
-1.86157	0.654602	
-1.86462	0.662231	
-1.87225	0.65918	
-1.87378	0.65918	
-1.88141	0.656128	
-1.88141	0.65918	
-1.88599	0.657654	
-1.88904	0.657654	
-1.89514	0.657654	
-1.89819	0.657654	
-1.90125	0.654602	
-1.9043	0.662231	
-1.91193	0.657654	
-1.91498	0.657654	
-1.91956	0.662231	
-1.91956	0.657654	
-1.93024	0.656128	
-1.92871	0.65918	
-1.93329	0.657654	
-1.93939	0.656128	
-1.94397	0.657654	
-1.9455	0.662231	
-1.95313	0.654602	
-1.95618	0.657654	
-1.96075	0.662231	
-1.96381	0.657654	
-1.96686	0.656128	
-1.97144	0.663757	
-1.97601	0.656128	
-1.97754	0.65155	
-1.97906	0.656128	
-1.98212	0.65918	
-1.98975	0.657654	
-1.98822	0.657654	
-1.99127	0.663757	
-1.99432	0.662231	
-1.99127	0.656128	
-1.9928	0.657654	
-1.99585	0.65918	
-1.99738	0.653076	
-1.99738	0.656128	
-2.00195	0.65918	
-1.99738	0.65918	
-2.00043	0.65918	
-1.9989	0.663757	
-1.99738	0.657654	
-1.9989	0.654602	
-1.9989	0.662231	
-2.00043	0.65918	
-2.00348	0.653076	
-1.9989	0.657654	
-1.99585	0.663757	
-1.99585	0.656128	
-1.99585	0.65918	
-1.9928	0.665283	
-1.9928	0.65918	
-1.98975	0.656128	
-1.98822	0.65918	
-1.98822	0.663757	
-1.98364	0.654602	
-1.98212	0.654602	
-1.98212	0.657654	
-1.98669	0.656128	
-1.98364	0.657654	
-1.97906	0.65918	
-1.97754	0.662231	
-1.97906	0.657654	
-1.97754	0.65918	
-1.97601	0.65918	
-1.97754	0.654602	
-1.97906	0.656128	
-1.97906	0.662231	
-1.97754	0.656128	
-1.97906	0.65918	
-1.97754	0.662231	
-1.97754	0.65918	
-1.97906	0.656128	
-1.97906	0.65918	
-1.97906	0.657654	
-1.98212	0.65918	
-1.98212	0.657654	
-1.98212	0.662231	
-1.98669	0.657654	
-1.98669	0.65918	
-1.98669	0.654602	
-1.98975	0.65918	
-1.98975	0.657654	
-1.99127	0.65918	
-1.99585	0.656128	
-1.99585	0.65918	
-1.99585	0.65918	
-1.9989	0.662231	
-2.00348	0.654602	
-2.005	0.65918	
-2.00958	0.657654	
-2.01263	0.65918	
-2.01263	0.657654	
-2.01263	0.662231	
-2.01874	0.656128	
-2.02026	0.65918	
-2.02637	0.654602	
-2.02789	0.65918	
-2.034	0.65918	
-2.03857	0.657654	
-2.0401	0.657654	
-2.04468	0.65918	
-2.0462	0.657654	
-2.05078	0.65918	
-2.05383	0.656128	
-2.05688	0.65918	
-2.06757	0.657654	
-2.06909	0.657654	
-2.07367	0.656128	
-2.07672	0.654602	
-2.0813	0.657654	
-2.08588	0.657654	
-2.09198	0.657654	
-2.09198	0.65918	
-2.10114	0.662231	
-2.10419	0.65918	
-2.10724	0.656128	
-2.11182	0.656128	
-2.11334	0.654602	
-2.11792	0.656128	
-2.1225	0.65918	
-2.1286	0.662231	
-2.13165	0.656128	
-2.1347	0.662231	
-2.13623	0.662231	
-2.14539	0.657654	
-2.14996	0.657654	
-2.15454	0.654602	
-2.15759	0.656128	
-2.1637	0.654602	
-2.16827	0.662231	
-2.17133	0.662231	
-2.17743	0.657654	
-2.17896	0.662231	
-2.18048	0.662231	
-2.18811	0.654602	
-2.18964	0.654602	
-2.19727	0.656128	
-2.20032	0.656128	
-2.20184	0.657654	
-2.20795	0.656128	
-2.211	0.662231	
-2.2171	0.662231	
-2.22015	0.662231	
-2.22473	0.662231	
-2.22931	0.65918	
-2.23083	0.656128	
-2.23541	0.65155	
-2.23846	0.656128	
-2.24457	0.656128	
-2.24762	0.656128	
-2.25372	0.65918	
-2.25525	0.662231	
-2.25983	0.657654	
-2.26135	0.65918	
-2.2644	0.65918	
-2.26746	0.654602	
-2.27203	0.654602	
-2.27661	0.653076	
-2.28119	0.657654	
-2.28577	0.65918	
-2.28729	0.65918	
-2.2934	0.657654	
-2.29492	0.65918	
-2.30103	0.662231	
-2.30408	0.657654	
-2.3056	0.656128	
-2.31171	0.656128	
-2.31018	0.654602	
-2.31323	0.654602	
-2.31781	0.656128	
-2.31934	0.657654	
-2.32239	0.65918	
-2.33002	0.662231	
-2.33154	0.665283	
-2.33459	0.657654	
-2.33612	0.653076	
-2.34375	0.656128	
-2.34222	0.654602	
-2.34985	0.653076	
-2.34985	0.654602	
-2.35596	0.662231	
-2.35443	0.65918	
-2.35748	0.657654	
-2.35901	0.662231	
-2.36206	0.65918	
-2.36511	0.657654	
-2.36969	0.653076	
-2.37427	0.654602	
-2.37579	0.653076	
-2.37732	0.656128	
-2.3819	0.656128	
-2.38647	0.65918	
-2.38495	0.657654	
-2.38953	0.662231	
-2.39258	0.656128	
-2.39716	0.656128	
-2.39868	0.654602	
-2.40326	0.65918	
-2.40631	0.654602	
-2.40326	0.656128	
-2.40936	0.65918	
-2.41241	0.65918	
-2.41089	0.657654	
-2.41394	0.663757	
-2.41547	0.656128	
-2.42004	0.656128	
-2.42004	0.653076	
-2.4231	0.657654	
-2.42615	0.653076	
-2.42767	0.656128	
-2.42767	0.654602	
-2.43225	0.663757	
-2.43378	0.656128	
-2.4353	0.65918	
-2.43683	0.657654	
-2.44446	0.656128	
-2.43988	0.656128	
-2.44751	0.656128	
-2.44904	0.65155	
-2.45056	0.656128	
-2.45056	0.657654	
-2.45361	0.65918	
-2.45361	0.657654	
-2.45514	0.662231	
-2.45819	0.656128	
-2.45972	0.654602	
-2.45972	0.654602	
-2.46582	0.656128	
-2.46277	0.653076	
-2.46582	0.654602	
-2.46735	0.657654	
-2.46887	0.657654	
-2.47345	0.657654	
-2.47498	0.657654	
-2.47498	0.657654	
-2.4765	0.656128	
-2.4765	0.656128	
-2.47955	0.656128	
-2.4826	0.654602	
-2.48718	0.654602	
-2.48566	0.657654	
-2.48566	0.657654	
-2.48718	0.65918	
-2.48718	0.662231	
-2.48566	0.65918	
-2.48871	0.654602	
-2.48718	0.654602	
-2.48718	0.656128	
-2.47955	0.654602	
-2.4826	0.654602	
-2.47955	0.65918	
-2.47803	0.657654	
-2.47192	0.656128	
-2.46887	0.657654	
-2.46429	0.654602	
-2.45514	0.657654	
-2.44598	0.653076	
-2.43835	0.656128	
-2.42767	0.654602	
-2.41089	0.656128	
-2.39258	0.657654	
-2.37579	0.65918	
-2.36053	0.654602	
-2.34375	0.657654	
-2.32544	0.656128	
-2.30103	0.656128	
-2.28271	0.654602	
-2.26135	0.656128	
-2.23846	0.657654	
-2.22015	0.654602	
-2.19574	0.656128	
-2.17743	0.657654	
-2.15454	0.657654	
-2.1347	0.657654	
-2.11334	0.65918	
-2.09351	0.65918	
-2.07672	0.656128	
-2.05688	0.656128	
-2.03705	0.653076	
-2.02026	0.657654	
-2.00348	0.656128	
-1.99127	0.65918	
-1.97296	0.65918	
-1.9577	0.65918	
-1.94244	0.657654	
-1.93176	0.656128	
-1.92108	0.657654	
-1.90582	0.65918	
-1.89514	0.653076	
-1.88599	0.656128	
-1.87836	0.654602	
-1.8631	0.657654	
-1.85852	0.657654	
-1.85394	0.657654	
-1.84479	0.657654	
-1.83868	0.656128	
-1.82953	0.657654	
-1.828	0.654602	
-1.82037	0.656128	
-1.81885	0.656128	
-1.81427	0.653076	
-1.81122	0.656128	
-1.80817	0.656128	
-1.80664	0.657654	
-1.80664	0.657654	
-1.80359	0.65918	
-1.80511	0.657654	
-1.80359	0.654602	
-1.80511	0.656128	
-1.80664	0.654602	
-1.80664	0.657654	
-1.80817	0.656128	
-1.81122	0.657654	
-1.81274	0.656128	
-1.8158	0.657654	
-1.81732	0.656128	
-1.82037	0.657654	
-1.8219	0.657654	
-1.82648	0.656128	
-1.82953	0.654602	
-1.83411	0.656128	
-1.83868	0.654602	
-1.84021	0.656128	
-1.84937	0.657654	
-1.85089	0.657654	
-1.85547	0.654602	
-1.85852	0.65918	
-1.85852	0.653076	
-1.86615	0.654602	
-1.87378	0.656128	
-1.87683	0.657654	
-1.87836	0.653076	
-1.88599	0.657654	
-1.88904	0.656128	
-1.89514	0.657654	
-1.89819	0.656128	
-1.90582	0.663757	
-1.90582	0.653076	
-1.91345	0.656128	
-1.91803	0.654602	
-1.91956	0.657654	
-1.92719	0.653076	
-1.92413	0.657654	
-1.93024	0.662231	
-1.93634	0.656128	
-1.93939	0.657654	
-1.9455	0.65918	
-1.95007	0.656128	
-1.95313	0.656128	
-1.95465	0.65918	
-1.96075	0.657654	
-1.96381	0.65155	
-1.96991	0.657654	
-1.97449	0.656128	
-1.97754	0.65918	
-1.98212	0.656128	
-1.98669	0.663757	
-1.98822	0.656128	
-1.99432	0.656128	
-1.99585	0.656128	
-2.00043	0.657654	
-2.00653	0.648499	
-2.00806	0.657654	
-2.01263	0.656128	
-2.01569	0.656128	
-2.02179	0.653076	
-2.02484	0.666809	
-2.03094	0.656128	
-2.02789	0.654602	
-2.03552	0.656128	
-2.03705	0.65918	
-2.04315	0.648499	
-2.04468	0.65918	
-2.04926	0.654602	
-2.04926	0.657654	
-2.05383	0.656128	
-2.05536	0.668335	
-2.05841	0.654602	
-2.06451	0.654602	
-2.06451	0.657654	
-2.06757	0.65918	
-2.07062	0.648499	
-2.07214	0.656128	
-2.07367	0.656128	
-2.0752	0.65918	
-2.0752	0.656128	
-2.07672	0.666809	
-2.07825	0.65918	
-2.07672	0.657654	
-2.07672	0.65918	
-2.07977	0.654602	
-2.07977	0.646973	
-2.07977	0.656128	
-2.07672	0.657654	
-2.07672	0.654602	
-2.07977	0.65918	
-2.0752	0.665283	
-2.0752	0.657654	
-2.07367	0.656128	
-2.07367	0.654602	
-2.07367	0.657654	
-2.07214	0.650024	
-2.07062	0.65918	
-2.07062	0.656128	
-2.06757	0.656128	
-2.06451	0.654602	
-2.06451	0.663757	
-2.05841	0.657654	
-2.05841	0.65918	
-2.05688	0.656128	
-2.05841	0.662231	
-2.05536	0.650024	
-2.05078	0.65918	
-2.04926	0.656128	
-2.04926	0.656128	
-2.0462	0.656128	
-2.04773	0.663757	
-2.04468	0.65918	
-2.04468	0.657654	
-2.04315	0.656128	
-2.04315	0.656128	
-2.04315	0.65155	
-2.04315	0.656128	
-2.0401	0.656128	
-2.04163	0.657654	
-2.04163	0.656128	
-2.03857	0.663757	
-2.0401	0.657654	
-2.03857	0.662231	
-2.04163	0.657654	
-2.04163	0.65918	
-2.0401	0.654602	
-2.0401	0.663757	
-2.04163	0.654602	
-2.03857	0.656128	
-2.04163	0.657654	
-2.04315	0.662231	
-2.04315	0.653076	
-2.04315	0.654602	
-2.04315	0.656128	
-2.04773	0.657654	
-2.04468	0.653076	
-2.04926	0.662231	
-2.05078	0.654602	
-2.05383	0.662231	
-2.05536	0.662231	
-2.05536	0.662231	
-2.05536	0.65918	
-2.06299	0.65918	
-2.06299	0.657654	
-2.06604	0.656128	
-2.07062	0.653076	
-2.07062	0.65918	
-2.07367	0.654602	
-2.0752	0.656128	
-2.07825	0.654602	
-2.0813	0.657654	
-2.08588	0.65155	
-2.08893	0.656128	
-2.09045	0.662231	
-2.09198	0.654602	
-2.09503	0.656128	
-2.10114	0.65918	
-2.10419	0.654602	
-2.10571	0.654602	
-2.11334	0.654602	
-2.11182	0.656128	
-2.11792	0.653076	
-2.11945	0.656128	
-2.12402	0.654602	
-2.12555	0.656128	
-2.13165	0.657654	
-2.13623	0.654602	
-2.13623	0.654602	
-2.14081	0.654602	
-2.14691	0.657654	
-2.14996	0.656128	
-2.15607	0.657654	
-2.15607	0.657654	
-2.1637	0.656128	
-2.16675	0.656128	
-2.1698	0.665283	
-2.17133	0.657654	
-2.17896	0.657654	
-2.18201	0.657654	
-2.18811	0.657654	
-2.18964	0.653076	
-2.19421	0.656128	
-2.19879	0.654602	
-2.20337	0.657654	
-2.20795	0.657654	
-2.211	0.665283	
-2.21558	0.65918	
-2.21863	0.654602	
-2.22321	0.656128	
-2.22931	0.65918	
-2.22931	0.650024	
-2.23541	0.657654	
-2.23846	0.656128	
-2.24304	0.657654	
-2.24609	0.65155	
-2.25372	0.662231	
-2.25677	0.657654	
-2.25983	0.654602	
-2.26593	0.656128	
-2.26898	0.656128	
-2.27356	0.645447	
-2.28119	0.654602	
-2.27966	0.656128	
-2.28271	0.653076	
-2.28882	0.654602	
-2.2934	0.665283	
-2.29645	0.657654	
-2.2995	0.654602	
-2.30255	0.654602	
-2.3056	0.65918	
-2.30865	0.648499	
-2.31323	0.656128	
-2.31781	0.657654	
-2.32391	0.654602	
-2.32544	0.653076	
-2.33002	0.663757	
-2.33459	0.65918	
-2.33612	0.65918	
-2.33765	0.65918	
-2.34375	0.657654	
-2.34833	0.650024	
-2.34985	0.654602	
-2.35596	0.65918	
-2.35748	0.657654	
-2.36206	0.654602	
-2.36816	0.663757	
-2.37122	0.65918	
-2.37732	0.657654	
-2.37885	0.65918	
-2.38037	0.662231	
-2.388	0.656128	
-2.38495	0.653076	
-2.39258	0.656128	
-2.39563	0.656128	
-2.39716	0.656128	
-2.39868	0.663757	
-2.40631	0.665283	
-2.40631	0.65918	
-2.40936	0.657654	
-2.41394	0.657654	
-2.41699	0.657654	
-2.42004	0.657654	
-2.42462	0.657654	
-2.4231	0.65918	
-2.4292	0.65918	
-2.43073	0.662231	
-2.4353	0.663757	
-2.44141	0.663757	
-2.43988	0.663757	
-2.44446	0.663757	
-2.44904	0.657654	
-2.45361	0.657654	
-2.45514	0.662231	
-2.45361	0.65918	
-2.45819	0.65918	
-2.46277	0.663757	
-2.46582	0.662231	
-2.46735	0.662231	
-2.47192	0.662231	
-2.4704	0.663757	
-2.47192	0.663757	
-2.47498	0.662231	
-2.47498	0.657654	
-2.47498	0.663757	
-2.47498	0.65918	
-2.47345	0.657654	
-2.47192	0.657654	
-2.4704	0.663757	
-2.46735	0.65918	
-2.46124	0.662231	
-2.45819	0.662231	
-2.45209	0.662231	
-2.44446	0.657654	
-2.4353	0.657654	
-2.42157	0.662231	
-2.41089	0.662231	
-2.39105	0.662231	
-2.37885	0.65918	
-2.36206	0.657654	
-2.3407	0.65918	
-2.32697	0.657654	
-2.3056	0.65918	
-2.28271	0.654602	
-2.26593	0.662231	
-2.24152	0.65918	
-2.22321	0.65918	
-2.20032	0.662231	
-2.17743	0.654602	
-2.16064	0.657654	
-2.13928	0.662231	
-2.11792	0.65918	
-2.10114	0.657654	
-2.08282	0.662231	
-2.06451	0.663757	
-2.0462	0.65918	
-2.03094	0.662231	
-2.01416	0.663757	
-2.00043	0.663757	
-1.98364	0.662231	
-1.96991	0.662231	
-1.95465	0.657654	
-1.94397	0.656128	
-1.92871	0.657654	
-1.91803	0.662231	
-1.90735	0.657654	
-1.89819	0.65918	
-1.89056	0.663757	
-1.88141	0.657654	
-1.87378	0.657654	
-1.8692	0.662231	
-1.86157	0.65918	
-1.85547	0.657654	
-1.84479	0.662231	
-1.84326	0.662231	
-1.83716	0.65918	
-1.83563	0.65918	
-1.828	0.662231	
-1.82648	0.656128	
-1.8219	0.657654	
-1.8219	0.663757	
-1.82037	0.65918	
-1.81732	0.657654	
-1.81427	0.65918	
-1.8158	0.657654	
-1.81427	0.657654	
-1.81885	0.65918	
-1.81732	0.662231	
-1.8158	0.657654	
-1.81885	0.657654	
-1.82037	0.65918	
-1.82343	0.657654	
-1.8219	0.654602	
-1.82648	0.663757	
-1.82953	0.657654	
-1.83411	0.662231	
-1.83716	0.662231	
-1.84174	0.662231	
-1.84326	0.656128	
-1.84784	0.657654	
-1.85089	0.662231	
-1.85394	0.657654	
-1.85699	0.65918	
-1.86005	0.657654	
-1.86462	0.65918	
-1.8692	0.657654	
-1.87225	0.665283	
-1.88141	0.663757	
-1.88141	0.657654	
-1.89056	0.65918	
-1.89209	0.65918	
-1.89514	0.65918	
-1.90125	0.657654	
-1.90125	0.662231	
-1.90582	0.662231	
-1.91193	0.657654	
-1.91956	0.65918	
-1.92413	0.662231	
-1.92871	0.65918	
-1.93176	0.657654	
-1.93634	0.65918	
-1.94092	0.657654	
-1.94855	0.654602	
-1.95007	0.65918	
-1.95618	0.657654	
-1.96228	0.65918	
-1.96686	0.662231	
-1.97144	0.65918	
-1.97296	0.656128	
-1.98364	0.662231	
-1.98669	0.65918	
-1.9928	0.662231	
-1.99738	0.656128	
-2.00348	0.657654	
-2.00806	0.65918	
-2.01263	0.656128	
-2.01721	0.663757	
-2.02789	0.662231	
-2.02789	0.656128	
-2.034	0.657654	
-2.0401	0.65918	
-2.04468	0.65918	
-2.04926	0.656128	
-2.05231	0.657654	
-2.05841	0.65918	
-2.06757	0.657654	
-2.06909	0.662231	
-2.07367	0.657654	
-2.07825	0.662231	
-2.08435	0.65918	
-2.08893	0.65918	
-2.08893	0.663757	
-2.09351	0.663757	
-2.09808	0.65918	
-2.10419	0.657654	
-2.10571	0.657654	
-2.11029	0.65918	
-2.11334	0.662231	
-2.11945	0.65918	
-2.1225	0.65918	
-2.12402	0.627136	
-2.12708	0.645447	
-2.12708	0.654602	
-2.13165	0.657654	
-2.1347	0.657654	
-2.13928	0.654602	
-2.14081	0.654602	
-2.14081	0.657654	
-2.14081	0.657654	
-2.14386	0.65918	
-2.14691	0.65918	
-2.14386	0.656128	
-2.14386	0.656128	
-2.14996	0.657654	
-2.14691	0.656128	
-2.14539	0.654602	
-2.14386	0.657654	
-2.14844	0.657654	
-2.14844	0.657654	
-2.14691	0.656128	
-2.14539	0.654602	
-2.14691	0.65918	
-2.14539	0.65918	
-2.14386	0.65918	
-2.14386	0.65918	
-2.14081	0.663757	
-2.13928	0.65918	
-2.1347	0.662231	
-2.13623	0.663757	
-2.13318	0.656128	
-2.13318	0.654602	
-2.13013	0.656128	
-2.13013	0.656128	
-2.1286	0.657654	
-2.1286	0.656128	
-2.1286	0.662231	
-2.12708	0.654602	
-2.1225	0.657654	
-2.12555	0.65918	
-2.1225	0.662231	
-2.12402	0.657654	
-2.12097	0.656128	
-2.1225	0.653076	
-2.11945	0.656128	
-2.11945	0.65918	
-2.1225	0.656128	
-2.11945	0.656128	
-2.1225	0.65918	
-2.12097	0.65918	
-2.11792	0.654602	
-2.11945	0.65918	
-2.12097	0.657654	
-2.12402	0.656128	
-2.12555	0.656128	
-2.12708	0.656128	
-2.1286	0.657654	
-2.1286	0.657654	
-2.1286	0.657654	
-2.1286	0.657654	
-2.1347	0.657654	
-2.1347	0.65918	
-2.1347	0.656128	
-2.13928	0.654602	
-2.14539	0.656128	
-2.14539	0.657654	
-2.14691	0.656128	
-2.14996	0.656128	
-2.15149	0.654602	
-2.15302	0.657654	
-2.15759	0.657654	
-2.16064	0.656128	
-2.16217	0.656128	
-2.16522	0.656128	
-2.16675	0.654602	
-2.17285	0.656128	
-2.17285	0.656128	
-2.17743	0.657654	
-2.18201	0.656128	
-2.18353	0.653076	
-2.18964	0.653076	
-2.19116	0.656128	
-2.19574	0.654602	
-2.19879	0.654602	
-2.20184	0.657654	
-2.20642	0.657654	
-2.20642	0.656128	
-2.21252	0.65918	
-2.2171	0.656128	
-2.22015	0.654602	
-2.22321	0.656128	
-2.22931	0.657654	
-2.23389	0.656128	
-2.23846	0.656128	
-2.24152	0.656128	
-2.24609	0.656128	
-2.24915	0.654602	
-2.25525	0.653076	
-2.2583	0.654602	
-2.2644	0.654602	
-2.27051	0.654602	
-2.27203	0.65918	
-2.27661	0.654602	
-2.28119	0.654602	
-2.28424	0.657654	
-2.28882	0.65155	
-2.2934	0.653076	
-2.29645	0.653076	
-2.30103	0.650024	
-2.30713	0.653076	
-2.30713	0.65155	
-2.31171	0.653076	
-2.31476	0.65155	
-2.31934	0.653076	
-2.32239	0.648499	
-2.32697	0.65155	
-2.33154	0.65155	
-2.33765	0.653076	
-2.34222	0.648499	
-2.34222	0.650024	
-2.3468	0.648499	
-2.35138	0.646973	
-2.35596	0.648499	
-2.35748	0.648499	
-2.36816	0.648499	
-2.36511	0.65155	
-2.37274	0.648499	
-2.37885	0.650024	
-2.3819	0.646973	
-2.38495	0.656128	
-2.38495	0.653076	
-2.39105	0.656128	
-2.39716	0.65155	
-2.40021	0.657654	
-2.40631	0.65155	
-2.40784	0.654602	
-2.41394	0.654602	
-2.41699	0.657654	
-2.42004	0.657654	
-2.42462	0.656128	
-2.42767	0.654602	
-2.43225	0.657654	
-2.43683	0.65155	
-2.43835	0.656128	
-2.44141	0.65155	
-2.44751	0.65155	
-2.45056	0.650024	
-2.45514	0.654602	
-2.45972	0.65155	
-2.46124	0.654602	
-2.46887	0.65155	
-2.46887	0.654602	
-2.47498	0.65155	
-2.47498	0.653076	
-2.47955	0.65155	
-2.4826	0.65155	
-2.48566	0.650024	
-2.48871	0.653076	
-2.49023	0.650024	
-2.48871	0.653076	
-2.49023	0.654602	
-2.48718	0.65155	
-2.48718	0.65155	
-2.48871	0.654602	
-2.48718	0.650024	
-2.48413	0.653076	
-2.47803	0.65155	
-2.47345	0.653076	
-2.46582	0.654602	
-2.45972	0.653076	
-2.45209	0.653076	
-2.43835	0.654602	
-2.43073	0.650024	
-2.41852	0.653076	
-2.40631	0.654602	
-2.388	0.65155	
-2.36969	0.654602	
-2.35596	0.650024	
-2.3407	0.654602	
-2.32086	0.653076	
-2.30255	0.653076	
-2.28119	0.653076	
-2.2644	0.653076	
-2.24457	0.653076	
-2.22778	0.657654	
-2.20642	0.65155	
-2.19116	0.653076	
-2.1698	0.653076	
-2.15302	0.650024	
-2.1347	0.650024	
-2.12097	0.65155	
-2.10419	0.653076	
-2.08893	0.654602	
-2.0752	0.653076	
-2.05994	0.653076	
-2.04468	0.654602	
-2.03705	0.65155	
-2.02179	0.656128	
-2.00806	0.650024	
-1.9989	0.650024	
-1.9928	0.654602	
-1.98059	0.65155	
-1.96991	0.648499	
-1.96686	0.654602	
-1.95618	0.653076	
-1.95007	0.653076	
-1.94244	0.657654	
-1.93481	0.654602	
-1.93329	0.653076	
-1.92871	0.65155	
-1.92413	0.65155	
-1.92108	0.650024	
-1.91803	0.654602	
-1.91498	0.656128	
-1.91498	0.656128	
-1.91345	0.654602	
-1.91345	0.654602	
-1.91345	0.653076	
-1.9104	0.65155	
-1.91193	0.65155	
-1.9104	0.654602	
-1.9104	0.656128	
-1.91498	0.654602	
-1.91498	0.653076	
-1.91956	0.65918	
-1.91803	0.656128	
-1.92261	0.654602	
-1.92413	0.653076	
-1.92871	0.654602	
-1.93024	0.65155	
-1.93481	0.65155	
-1.93634	0.65155	
-1.93787	0.656128	
-1.94244	0.656128	
-1.94855	0.657654	
-1.95465	0.654602	
-1.95618	0.65918	
-1.95618	0.657654	
-1.96075	0.656128	
-1.96533	0.648499	
-1.97144	0.656128	
-1.97754	0.65155	
-1.97601	0.656128	
-1.98212	0.65918	
-1.98822	0.657654	
-1.99127	0.653076	
-1.9928	0.662231	
-2.00043	0.657654	
-2.00195	0.656128	
-2.005	0.65155	
-2.01263	0.654602	
-2.01569	0.653076	
-2.02026	0.654602	
-2.02484	0.657654	
-2.02942	0.662231	
-2.034	0.657654	
-2.0401	0.656128	
-2.04315	0.653076	
-2.04926	0.654602	
-2.05383	0.648499	
-2.05688	0.654602	
-2.06604	0.656128	
-2.07062	0.656128	
-2.0752	0.656128	
-2.07977	0.65918	
-2.08435	0.656128	
-2.09045	0.662231	
-2.09656	0.654602	
-2.10266	0.656128	
-2.10571	0.653076	
-2.11029	0.656128	
-2.11639	0.654602	
-2.12097	0.656128	
-2.12555	0.657654	
-2.13013	0.65918	
-2.13928	0.654602	
-2.14539	0.662231	
-2.14996	0.656128	
-2.15302	0.653076	
-2.15607	0.654602	
-2.16217	0.654602	
-2.16675	0.656128	
-2.1698	0.656128	
-2.17896	0.662231	
-2.18201	0.662231	
-2.18353	0.657654	
-2.18658	0.65918	
-2.18964	0.656128	
-2.19269	0.657654	
-2.19727	0.654602	
-2.19879	0.656128	
-2.20184	0.656128	
-2.2049	0.656128	
-2.20795	0.657654	
-2.20795	0.656128	
-2.21252	0.656128	
-2.21558	0.65918	
-2.21863	0.653076	
-2.21863	0.656128	
-2.22321	0.662231	
-2.22473	0.657654	
-2.22626	0.656128	
-2.22626	0.657654	
-2.22931	0.654602	
-2.22778	0.656128	
-2.23236	0.657654	
-2.23236	0.662231	
-2.23236	0.656128	
-2.22931	0.654602	
-2.23389	0.657654	
-2.23389	0.657654	
-2.23389	0.656128	
-2.23236	0.65918	
-2.23083	0.657654	
-2.23236	0.657654	
-2.23236	0.656128	
-2.22931	0.65918	
-2.22778	0.657654	
-2.22931	0.656128	
-2.23236	0.662231	
-2.22778	0.654602	
-2.22626	0.653076	
-2.22473	0.657654	
-2.22321	0.656128	
-2.22168	0.656128	
-2.22015	0.656128	
-2.21863	0.65918	
-2.21252	0.656128	
-2.21863	0.657654	
-2.21558	0.65918	
-2.21252	0.65918	
-2.21558	0.656128	
-2.21558	0.656128	
-2.21558	0.656128	
-2.211	0.656128	
-2.20947	0.657654	
-2.21252	0.657654	
-2.211	0.654602	
-2.20947	0.656128	
-2.20947	0.662231	
-2.20947	0.656128	
-2.20947	0.653076	
-2.20947	0.654602	
-2.20947	0.65918	
-2.211	0.653076	
-2.20947	0.656128	
-2.21252	0.657654	
-2.21252	0.654602	
-2.21252	0.662231	
-2.21558	0.65918	
-2.21558	0.654602	
-2.2171	0.654602	
-2.2171	0.657654	
-2.2171	0.657654	
-2.21863	0.657654	
-2.21863	0.657654	
-2.22321	0.65918	
-2.22321	0.656128	
-2.22473	0.657654	
-2.22473	0.656128	
-2.22626	0.657654	
-2.22778	0.656128	
-2.22931	0.657654	
-2.23083	0.657654	
-2.23083	0.657654	
-2.23389	0.654602	
-2.23694	0.657654	
-2.23846	0.656128	
-2.23846	0.657654	
-2.23999	0.657654	
-2.24304	0.657654	
-2.24304	0.654602	
-2.24457	0.653076	
-2.24609	0.656128	
-2.24915	0.654602	
-2.25067	0.654602	
-2.25372	0.657654	
-2.25677	0.657654	
-2.2583	0.654602	
-2.25983	0.657654	
-2.26288	0.657654	
-2.26288	0.657654	
-2.26593	0.654602	
-2.26593	0.654602	
-2.26746	0.654602	
-2.27051	0.65918	
-2.27203	0.654602	
-2.27356	0.656128	
-2.27661	0.657654	
-2.27661	0.656128	
-2.27814	0.656128	
-2.27966	0.65918	
-2.28424	0.656128	
-2.28424	0.656128	
-2.28577	0.654602	
-2.29187	0.657654	
-2.29492	0.654602	
-2.29492	0.657654	
-2.29492	0.657654	
-2.29797	0.654602	
-2.30103	0.65155	
-2.30408	0.653076	
-2.30408	0.654602	
-2.30713	0.657654	
-2.30713	0.654602	
-2.31323	0.657654	
-2.31476	0.654602	
-2.31476	0.65918	
-2.31476	0.654602	
-2.31628	0.654602	
-2.31934	0.653076	
-2.32391	0.657654	
-2.32544	0.656128	
-2.32544	0.654602	
-2.33154	0.656128	
-2.33307	0.656128	
-2.33459	0.654602	
-2.33459	0.657654	
-2.33917	0.656128	
-2.33917	0.656128	
-2.34222	0.654602	
-2.34375	0.657654	
-2.3468	0.654602	
-2.34528	0.654602	
-2.34985	0.654602	
-2.35291	0.65918	
-2.35291	0.654602	
-2.35443	0.656128	
-2.35748	0.657654	
-2.36053	0.65918	
-2.36053	0.656128	
-2.36969	0.65918	
-2.36511	0.656128	
-2.36359	0.65918	
-2.36969	0.662231	
-2.36969	0.65918	
-2.37427	0.654602	
-2.37427	0.656128	
-2.36969	0.657654	
-2.36969	0.654602	
-2.36969	0.657654	
-2.36359	0.65918	
-2.35901	0.65918	
-2.36053	0.657654	
-2.35138	0.656128	
-2.3468	0.657654	
-2.33917	0.656128	
-2.33002	0.656128	
-2.32086	0.662231	
-2.31171	0.656128	
-2.30255	0.65918	
-2.28577	0.662231	
-2.27356	0.657654	
-2.2583	0.656128	
-2.23999	0.657654	
-2.22931	0.65918	
-2.211	0.653076	
-2.19574	0.65918	
-2.18048	0.657654	
-2.1637	0.65918	
-2.14539	0.656128	
-2.13165	0.662231	
-2.11639	0.657654	
-2.09808	0.657654	
-2.08282	0.657654	
-2.07062	0.656128	
-2.05688	0.654602	
-2.04468	0.65918	
-2.02789	0.657654	
-2.01569	0.657654	
-2.00195	0.65918	
-1.9928	0.662231	
-1.98059	0.657654	
-1.97144	0.657654	
-1.96228	0.65918	
-1.9516	0.657654	
-1.94092	0.654602	
-1.93329	0.656128	
-1.92871	0.656128	
-1.91956	0.653076	
-1.91345	0.657654	
-1.9043	0.662231	
-1.89972	0.65918	
-1.89362	0.657654	
-1.88904	0.65918	
-1.88446	0.657654	
-1.88293	0.656128	
-1.87836	0.657654	
-1.87378	0.656128	
-1.87225	0.65918	
-1.8692	0.657654	
-1.86768	0.665283	
-1.86462	0.663757	
-1.86615	0.657654	
-1.86157	0.662231	
-1.86462	0.662231	
-1.8631	0.654602	
-1.86462	0.65918	
-1.8631	0.657654	
-1.8631	0.657654	
-1.8631	0.65918	
-1.86462	0.657654	
-1.86615	0.65918	
-1.86768	0.657654	
-1.8692	0.657654	
-1.87378	0.65918	
-1.87378	0.65918	
-1.87836	0.657654	
-1.87988	0.65918	
-1.88293	0.65918	
-1.88599	0.656128	
-1.89056	0.657654	
-1.89362	0.65918	
-1.89514	0.65918	
-1.90125	0.662231	
-1.90582	0.662231	
-1.90735	0.656128	
-1.91193	0.65918	
-1.9165	0.654602	
-1.92261	0.65918	
-1.92871	0.657654	
-1.93024	0.65918	
-1.93481	0.662231	
-1.93787	0.654602	
-1.93787	0.65918	
-1.94397	0.65918	
-1.94855	0.657654	
-1.95313	0.656128	
-1.95923	0.656128	
-1.96381	0.662231	
-1.96686	0.65918	
-1.97296	0.662231	
-1.97906	0.662231	
-1.98212	0.657654	
-1.98669	0.656128	
-1.9928	0.656128	
-1.9928	0.657654	
-1.9989	0.656128	
-2.00348	0.657654	
-2.01111	0.657654	
-2.01263	0.662231	
-2.01721	0.65918	
-2.02179	0.65918	
-2.02789	0.657654	
-2.034	0.65918	
-2.03857	0.656128	
-2.04468	0.657654	
-2.05078	0.653076	
-2.05078	0.662231	
-2.05841	0.662231	
-2.06451	0.65918	
-2.06757	0.662231	
-2.07367	0.65918	
-2.0813	0.654602	
-2.08282	0.656128	
-2.09045	0.657654	
-2.09198	0.657654	
-2.09503	0.657654	
-2.10419	0.656128	
-2.10876	0.656128	
-2.11029	0.657654	
-2.11487	0.656128	
-2.11945	0.65918	
-2.12097	0.657654	
-2.1225	0.657654	
-2.1286	0.656128	
-2.13165	0.662231	
-2.13318	0.656128	
-2.13623	0.656128	
-2.14233	0.656128	
-2.14539	0.65918	
-2.14691	0.654602	
-2.14691	0.657654	
-2.15454	0.654602	
-2.15302	0.657654	
-2.15454	0.662231	
-2.15759	0.65918	
-2.15912	0.656128	
-2.15759	0.657654	
-2.16064	0.656128	
-2.16217	0.657654	
-2.1637	0.656128	
-2.1637	0.657654	
-2.1637	0.657654	
-2.16522	0.657654	
-2.1637	0.657654	
-2.16522	0.662231	
-2.16522	0.656128	
-2.16522	0.657654	
-2.16522	0.656128	
-2.16217	0.65918	
-2.16217	0.657654	
-2.16064	0.65918	
-2.15759	0.656128	
-2.15759	0.65918	
-2.15759	0.657654	
-2.15302	0.663757	
-2.15759	0.656128	
-2.15302	0.662231	
-2.15454	0.657654	
-2.15302	0.663757	
-2.15302	0.654602	
-2.14996	0.662231	
-2.14996	0.657654	
-2.14691	0.654602	
-2.14386	0.656128	
-2.14844	0.65918	
-2.14691	0.65918	
-2.14844	0.65918	
-2.14691	0.657654	
-2.14539	0.65918	
-2.14691	0.65155	
-2.14539	0.662231	
-2.14691	0.656128	
-2.14539	0.656128	
-2.14539	0.656128	
-2.14691	0.665283	
-2.14844	0.657654	
-2.14844	0.657654	
-2.14996	0.657654	
-2.14996	0.657654	
-2.14996	0.654602	
-2.15607	0.657654	
-2.15454	0.657654	
-2.15454	0.65918	
-2.15607	0.662231	
-2.15607	0.663757	
-2.15912	0.656128	
-2.16217	0.657654	
-2.1637	0.656128	
-2.1637	0.662231	
-2.16522	0.653076	
-2.1698	0.65918	
-2.16827	0.662231	
-2.17285	0.657654	
-2.17743	0.656128	
-2.17743	0.665283	
-2.18201	0.656128	
-2.18353	0.662231	
-2.18658	0.662231	
-2.18964	0.662231	
-2.19421	0.65918	
-2.19574	0.654602	
-2.19879	0.657654	
-2.20337	0.657654	
-2.2049	0.657654	
-2.20642	0.665283	
-2.211	0.657654	
-2.21558	0.657654	
-2.2171	0.657654	
-2.21863	0.656128	
-2.22321	0.656128	
-2.22778	0.65918	
-2.22626	0.65918	
-2.23236	0.662231	
-2.23694	0.657654	
-2.23999	0.665283	
-2.24304	0.656128	
-2.24609	0.662231	
-2.24915	0.657654	
-2.25525	0.662231	
-2.25677	0.654602	
-2.2583	0.65918	
-2.26135	0.656128	
-2.26746	0.657654	
-2.27203	0.657654	
-2.27203	0.665283	
-2.27661	0.65918	
-2.27814	0.662231	
-2.28424	0.662231	
-2.28577	0.657654	
-2.28882	0.653076	
-2.2934	0.65918	
-2.29492	0.657654	
-2.2995	0.65918	
-2.30713	0.65918	
-2.3056	0.662231	
-2.30713	0.657654	
-2.31171	0.65918	
-2.31323	0.65918	
-2.31781	0.657654	
-2.32391	0.653076	
-2.32391	0.662231	
-2.32544	0.656128	
-2.33154	0.656128	
-2.33612	0.65918	
-2.33612	0.65918	
-2.33917	0.656128	
-2.34375	0.65918	
-2.3468	0.65918	
-2.35138	0.662231	
-2.35291	0.656128	
-2.35748	0.657654	
-2.36206	0.656128	
-2.36359	0.654602	
-2.36969	0.657654	
-2.37122	0.65918	
-2.37274	0.657654	
-2.37885	0.663757	
-2.37579	0.65918	
-2.3819	0.654602	
-2.38342	0.657654	
-2.38953	0.65918	
-2.388	0.657654	
-2.39258	0.662231	
-2.3941	0.65918	
-2.39258	0.65918	
-2.3941	0.657654	
-2.3941	0.662231	
-2.39258	0.657654	
-2.39258	0.65918	
-2.38953	0.654602	
-2.38342	0.657654	
-2.38342	0.656128	
-2.37732	0.657654	
-2.36969	0.65918	
-2.36206	0.657654	
-2.35443	0.65918	
-2.34528	0.662231	
-2.33307	0.662231	
-2.31934	0.656128	
-2.30865	0.65918	
-2.29187	0.654602	
-2.27356	0.656128	
-2.26135	0.657654	
-2.24152	0.65918	
-2.22473	0.657654	
-2.20642	0.662231	
-2.18964	0.663757	
-2.17133	0.662231	
-2.15607	0.65918	
-2.13623	0.662231	
-2.12402	0.65918	
-2.10571	0.656128	
-2.08893	0.657654	
-2.0752	0.65918	
-2.05994	0.662231	
-2.04773	0.65918	
-2.03247	0.662231	
-2.01874	0.662231	
-2.00653	0.657654	
-1.99127	0.65918	
-1.98059	0.65918	
-1.97296	0.662231	
-1.95923	0.657654	
-1.94855	0.65918	
-1.93939	0.662231	
-1.93329	0.65918	
-1.92413	0.65918	
-1.91956	0.65918	
-1.91345	0.65918	
-1.9043	0.657654	
-1.89972	0.657654	
-1.89514	0.65918	
-1.89056	0.656128	
-1.88446	0.662231	
-1.88293	0.65918	
-1.87988	0.65918	
-1.87836	0.657654	
-1.87683	0.663757	
-1.87378	0.662231	
-1.87225	0.662231	
-1.86768	0.662231	
-1.87225	0.662231	
-1.8692	0.656128	
-1.87225	0.65918	
-1.87225	0.657654	
-1.87225	0.662231	
-1.87378	0.662231	
-1.87531	0.65918	
-1.87836	0.656128	
-1.87988	0.662231	
-1.88293	0.657654	
-1.88446	0.662231	
-1.88751	0.657654	
-1.89056	0.657654	
-1.89514	0.656128	
-1.89514	0.65918	
-1.9043	0.657654	
-1.90582	0.65918	
-1.91193	0.657654	
-1.9165	0.663757	
-1.91956	0.656128	
-1.92108	0.65918	
-1.92871	0.65918	
-1.92871	0.662231	
-1.93329	0.657654	
-1.93787	0.662231	
-1.9455	0.657654	
-1.94855	0.662231	
-1.9516	0.657654	
-1.95923	0.663757	
-1.96381	0.65918	
-1.96838	0.662231	
-1.97449	0.65918	
-1.97601	0.665283	
-1.98364	0.654602	
-1.98975	0.65918	
-1.99432	0.656128	
-1.99738	0.657654	
-1.9989	0.657654	
-2.00653	0.665283	
-2.00958	0.657654	
-2.01416	0.663757	
-2.02026	0.65918	
-2.02026	0.65918	
-2.02942	0.653076	
-2.02789	0.65918	
-2.03857	0.656128	
-2.04163	0.657654	
-2.04926	0.662231	
-2.05231	0.665283	
-2.05536	0.662231	
-2.06299	0.662231	
-2.06757	0.65918	
-2.07214	0.65918	
-2.07672	0.654602	
-2.0813	0.657654	
-2.0874	0.657654	
-2.09351	0.663757	
-2.09656	0.65918	
-2.10266	0.665283	
-2.10724	0.65918	
-2.11182	0.663757	
-2.11487	0.65918	
-2.1225	0.65918	
-2.12708	0.656128	
-2.13318	0.65918	
-2.13623	0.657654	
-2.14081	0.662231	
-2.14539	0.65918	
-2.14996	0.662231	
-2.15454	0.662231	
-2.16064	0.662231	
-2.16217	0.657654	
-2.1698	0.662231	
-2.17133	0.657654	
-2.17743	0.662231	
-2.17743	0.657654	
-2.18048	0.662231	
-2.18506	0.656128	
-2.18811	0.657654	
-2.18964	0.662231	
-2.19269	0.662231	
-2.19574	0.662231	
-2.19574	0.65918	
-2.20032	0.663757	
-2.20032	0.657654	
-2.20032	0.657654	
-2.20032	0.662231	
-2.20337	0.662231	
-2.20642	0.656128	
-2.2049	0.65918	
-2.2049	0.666809	
-2.2049	0.65918	
-2.2049	0.65918	
-2.20642	0.665283	
-2.20642	0.663757	
-2.20642	0.657654	
-2.2049	0.65918	
-2.20642	0.662231	
-2.20337	0.656128	
-2.20337	0.65918	
-2.2049	0.662231	
-2.20184	0.65918	
-2.20032	0.665283	
-2.19879	0.665283	
-2.20184	0.665283	
-2.19421	0.65918	
-2.19574	0.662231	
-2.19727	0.65918	
-2.19421	0.654602	
-2.19421	0.657654	
-2.19269	0.662231	
-2.19269	0.65918	
-2.18964	0.65918	
-2.19116	0.665283	
-2.19116	0.663757	
-2.18811	0.657654	
-2.18964	0.65918	
-2.18811	0.662231	
-2.18811	0.657654	
-2.18658	0.656128	
-2.18964	0.663757	
-2.18811	0.662231	
-2.18658	0.662231	
-2.18964	0.663757	
-2.18811	0.662231	
-2.19116	0.657654	
-2.18811	0.665283	
-2.18964	0.662231	
-2.19421	0.65918	
-2.18964	0.657654	
-2.19269	0.65918	
-2.19269	0.65918	
-2.19574	0.657654	
-2.19574	0.665283	
-2.19421	0.662231	
-2.19879	0.657654	
-2.20032	0.663757	
-2.20184	0.65918	
-2.20337	0.663757	
-2.2049	0.662231	
-2.2049	0.662231	
-2.20642	0.65918	
-2.211	0.657654	
-2.20947	0.662231	
-2.2171	0.663757	
-2.2171	0.65918	
-2.2171	0.662231	
-2.22168	0.665283	
-2.22015	0.65918	
-2.22168	0.654602	
-2.22778	0.662231	
-2.22626	0.65918	
-2.22931	0.662231	
-2.23083	0.665283	
-2.23389	0.662231	
-2.23389	0.65918	
-2.23999	0.663757	
-2.24152	0.65918	
-2.24457	0.662231	
-2.24762	0.662231	
-2.25067	0.662231	
-2.25525	0.657654	
-2.2583	0.662231	
-2.2583	0.662231	
-2.25983	0.665283	
-2.26135	0.657654	
-2.26593	0.665283	
-2.26746	0.662231	
-2.26746	0.662231	
-2.27203	0.662231	
-2.27203	0.662231	
-2.27509	0.65918	
-2.27814	0.657654	
-2.28271	0.656128	
-2.28271	0.663757	
-2.28577	0.663757	
-2.28729	0.665283	
-2.29492	0.65918	
-2.2934	0.657654	
-2.29492	0.656128	
-2.2995	0.65918	
-2.30103	0.65918	
-2.30255	0.657654	
-2.31018	0.657654	
-2.30713	0.662231	
-2.31018	0.65918	
-2.31476	0.663757	
-2.31476	0.662231	
-2.32086	0.65918	
-2.32239	0.654602	
-2.33002	0.657654	
-2.32697	0.653076	
-2.33154	0.657654	
-2.33765	0.657654	
-2.33917	0.665283	
-2.34375	0.65918	
-2.34528	0.662231	
-2.34833	0.663757	
-2.35291	0.65918	
-2.35443	0.656128	
-2.35901	0.662231	
-2.36053	0.657654	
-2.36359	0.657654	
-2.36206	0.656128	
-2.36969	0.663757	
-2.36969	0.657654	
-2.37274	0.662231	
-2.37427	0.65918	
-2.37885	0.65918	
-2.37885	0.654602	
-2.37732	0.65918	
-2.37885	0.656128	
-2.37885	0.657654	
-2.37885	0.663757	
-2.37579	0.663757	
-2.37427	0.65918	
-2.36969	0.662231	
-2.36816	0.663757	
-2.36206	0.663757	
-2.35596	0.656128	
-2.3468	0.662231	
-2.33765	0.65918	
-2.33307	0.656128	
-2.31781	0.65918	
-2.30408	0.663757	
-2.28882	0.663757	
-2.27661	0.666809	
-2.26288	0.65918	
-2.24304	0.666809	
-2.22778	0.657654	
-2.211	0.662231	
-2.18964	0.65918	
-2.17285	0.657654	
-2.15454	0.657654	
-2.13623	0.665283	
-2.11945	0.663757	
-2.10571	0.663757	
-2.08588	0.663757	
-2.07062	0.662231	
-2.05231	0.662231	
-2.03705	0.65918	
-2.02179	0.657654	
-2.00806	0.653076	
-1.99585	0.65918	
-1.97906	0.65918	
-1.96838	0.666809	
-1.95923	0.665283	
-1.9455	0.663757	
-1.93481	0.65918	
-1.92261	0.657654	
-1.9165	0.653076	
-1.90582	0.657654	
-1.89972	0.656128	
-1.89209	0.65918	
-1.88446	0.662231	
-1.87836	0.663757	
-1.87378	0.663757	
-1.86768	0.665283	
-1.86157	0.663757	
-1.86005	0.657654	
-1.85699	0.657654	
-1.85089	0.657654	
-1.84937	0.65918	
-1.84479	0.65918	
-1.84326	0.65918	
-1.83868	0.663757	
-1.84479	0.662231	
-1.83868	0.666809	
-1.84021	0.663757	
-1.84174	0.65918	
-1.84021	0.656128	
-1.84174	0.657654	
-1.84021	0.654602	
-1.84326	0.654602	
-1.84174	0.65918	
-1.84479	0.662231	
-1.84784	0.662231	
-1.85242	0.665283	
-1.85089	0.662231	
-1.85852	0.65918	
-1.85852	0.657654	
-1.86157	0.662231	
-1.86462	0.656128	
-1.8692	0.65918	
-1.86615	0.65918	
-1.87378	0.662231	
-1.88293	0.662231	
-1.87988	0.662231	
-1.88599	0.65918	
-1.88904	0.65918	
-1.89362	0.657654	
-1.89514	0.657654	
-1.90125	0.65918	
-1.9043	0.65918	
-1.91345	0.662231	
-1.91345	0.663757	
-1.91498	0.663757	
-1.91956	0.666809	
-1.92566	0.65918	
-1.92871	0.657654	
-1.93329	0.657654	
-1.93481	0.656128	
-1.94092	0.656128	
-1.94397	0.657654	
-1.9516	0.662231	
-1.95465	0.663757	
-1.96381	0.65918	
-1.96381	0.663757	
-1.97144	0.65918	
-1.97296	0.662231	
-1.98059	0.657654	
-1.98669	0.663757	
-1.98822	0.656128	
-1.9928	0.662231	
-1.99738	0.663757	
-2.005	0.666809	
-2.00958	0.663757	
-2.01416	0.65918	
-2.01569	0.662231	
-2.02637	0.65918	
-2.03094	0.65918	
-2.03552	0.657654	
-2.0401	0.657654	
-2.04315	0.65918	
-2.05078	0.662231	
-2.05231	0.662231	
-2.06299	0.665283	
-2.06451	0.663757	
-2.07214	0.662231	
-2.0752	0.662231	
-2.07672	0.657654	
-2.08282	0.65918	
-2.08893	0.65918	
-2.08893	0.657654	
-2.09351	0.656128	
-2.09656	0.663757	
-2.10266	0.65918	
-2.10724	0.665283	
-2.11182	0.663757	
-2.11334	0.662231	
-2.11639	0.657654	
-2.11945	0.657654	
-2.1225	0.656128	
-2.1225	0.662231	
-2.12555	0.65918	
-2.12555	0.662231	
-2.1286	0.662231	
-2.13318	0.662231	
-2.13318	0.663757	
-2.13318	0.662231	
-2.1347	0.657654	
-2.1347	0.656128	
-2.1347	0.65918	
-2.1347	0.662231	
-2.1347	0.65918	
-2.14081	0.663757	
-2.14081	0.665283	
-2.13928	0.663757	
-2.13623	0.663757	
-2.13928	0.662231	
-2.13928	0.662231	
-2.14081	0.657654	
-2.14081	0.656128	
-2.13928	0.65918	
-2.13623	0.662231	
-2.13928	0.662231	
-2.1347	0.657654	
-2.13318	0.663757	
-2.13318	0.662231	
-2.13013	0.657654	
-2.1286	0.662231	
-2.1286	0.657654	
-2.12555	0.657654	
-2.12402	0.657654	
-2.12402	0.663757	
-2.12402	0.662231	
-2.12097	0.663757	
-2.12097	0.65918	
-2.11792	0.662231	
-2.11792	0.662231	
-2.11945	0.663757	
-2.12097	0.65918	
-2.11792	0.65918	
-2.11639	0.65918	
-2.11639	0.65918	
-2.11334	0.662231	
-2.11487	0.662231	
-2.11639	0.663757	
-2.11487	0.65918	
-2.11487	0.662231	
-2.11945	0.662231	
-2.11792	0.662231	
-2.11792	0.657654	
-2.11639	0.65918	
-2.11945	0.65918	
-2.12097	0.656128	
-2.12097	0.663757	
-2.12402	0.663757	
-2.12402	0.663757	
-2.1225	0.662231	
-2.12555	0.666809	
-2.12708	0.662231	
-2.12708	0.65918	
-2.13165	0.662231	
-2.13318	0.662231	
-2.1347	0.656128	
-2.13928	0.662231	
-2.13623	0.663757	
-2.14233	0.662231	
-2.14386	0.662231	
-2.14539	0.663757	
-2.14539	0.657654	
-2.14996	0.662231	
-2.14996	0.657654	
-2.15454	0.65918	
-2.15454	0.654602	
-2.15759	0.663757	
-2.15912	0.662231	
-2.15759	0.663757	
-2.16522	0.663757	
-2.16827	0.668335	
-2.1698	0.65918	
-2.17285	0.65918	
-2.17438	0.662231	
-2.17896	0.662231	
-2.18048	0.656128	
-2.18353	0.663757	
-2.18658	0.663757	
-2.19116	0.65918	
-2.19421	0.665283	
-2.19879	0.665283	
-2.19879	0.662231	
-2.20032	0.65918	
-2.2049	0.663757	
-2.211	0.65918	
-2.211	0.654602	
-2.2171	0.662231	
-2.21863	0.663757	
-2.22168	0.65918	
-2.22473	0.65918	
-2.22473	0.666809	
-2.23083	0.65918	
-2.23389	0.662231	
-2.23694	0.65918	
-2.23999	0.663757	
-2.23999	0.653076	
-2.24762	0.663757	
-2.24915	0.663757	
-2.25525	0.657654	
-2.2583	0.662231	
-2.26135	0.666809	
-2.26135	0.65918	
-2.26593	0.65918	
-2.26898	0.657654	
-2.27051	0.65918	
-2.27661	0.650024	
-2.27661	0.65918	
-2.28119	0.657654	
-2.28119	0.662231	
-2.28729	0.657654	
-2.29492	0.669861	
-2.29492	0.65918	
-2.2995	0.662231	
-2.30408	0.663757	
-2.30408	0.662231	
-2.30713	0.65155	
-2.30865	0.65918	
-2.31171	0.662231	
-2.31476	0.65918	
-2.31781	0.65918	
-2.31934	0.669861	
-2.31934	0.65918	
-2.32086	0.662231	
-2.32391	0.662231	
-2.32239	0.65918	
-2.32086	0.653076	
-2.31934	0.663757	
-2.31934	0.662231	
-2.31628	0.65918	
-2.31628	0.65918	
-2.30865	0.669861	
-2.3056	0.656128	
-2.29645	0.65918	
-2.28882	0.65918	
-2.27966	0.65918	
-2.27051	0.65155	
-2.26135	0.662231	
-2.24457	0.65918	
-2.23083	0.65918	
-2.21558	0.65918	
-2.20337	0.668335	
-2.18506	0.663757	
-2.1637	0.656128	
-2.15149	0.657654	
-2.13165	0.662231	
-2.11487	0.654602	
-2.09808	0.662231	
-2.0813	0.657654	
-2.06451	0.662231	
-2.04773	0.662231	
-2.02942	0.668335	
-2.01416	0.65918	
-2.00043	0.65918	
-1.98364	0.656128	
-1.96838	0.662231	
-1.95465	0.653076	
-1.94244	0.662231	
-1.92871	0.663757	
-1.92108	0.662231	
-1.90582	0.65918	
-1.89514	0.666809	
-1.88599	0.662231	
-1.87836	0.663757	
-1.8692	0.656128	
-1.85852	0.663757	
-1.85394	0.653076	
-1.84479	0.662231	
-1.83868	0.65918	
-1.83105	0.662231	
-1.82495	0.65918	
-1.82343	0.668335	
-1.8158	0.65918	
-1.8158	0.65918	
-1.80969	0.65918	
-1.80664	0.662231	
-1.80511	0.656128	
-1.80054	0.663757	
-1.79901	0.657654	
-1.80054	0.663757	
-1.79749	0.662231	
-1.79596	0.665283	
-1.79749	0.665283	
-1.79749	0.662231	
-1.79901	0.662231	
-1.79901	0.65918	
-1.80054	0.656128	
-1.80054	0.662231	
-1.80054	0.65918	
-1.80359	0.665283	
-1.80664	0.65918	
-1.80969	0.665283	
-1.80817	0.663757	
-1.8158	0.65918	
-1.8158	0.662231	
-1.82037	0.65918	
-1.8219	0.65918	
-1.82343	0.663757	
-1.82648	0.65918	
-1.82953	0.657654	
-1.83411	0.662231	
-1.83868	0.663757	
-1.84479	0.657654	
-1.84479	0.662231	
-1.84937	0.65918	
-1.85242	0.657654	
-1.85547	0.662231	
-1.86005	0.665283	
-1.86462	0.657654	
-1.8692	0.65918	
-1.87531	0.663757	
-1.87836	0.662231	
-1.88293	0.662231	
-1.88599	0.662231	
-1.89209	0.657654	
-1.89514	0.65918	
-1.89972	0.666809	
-1.9043	0.662231	
-1.9104	0.662231	
-1.91498	0.663757	
-1.91956	0.65918	
-1.92108	0.657654	
-1.92719	0.656128	
-1.93176	0.663757	
-1.93787	0.65918	
-1.93939	0.65918	
-1.9455	0.663757	
-1.9516	0.662231	
-1.95465	0.662231	
-1.95923	0.656128	
-1.96533	0.662231	
-1.96991	0.654602	
-1.97296	0.662231	
-1.97754	0.662231	
-1.98364	0.663757	
-1.98975	0.662231	
-1.99432	0.669861	
-1.9989	0.662231	
-2.00348	0.657654	
-2.00653	0.662231	
-2.01263	0.663757	
-2.01263	0.653076	
-2.02026	0.65918	
-2.02789	0.663757	
-2.02789	0.662231	
-2.034	0.665283	
-2.03857	0.666809	
-2.03857	0.663757	
-2.04315	0.65918	
-2.04468	0.662231	
-2.05231	0.65918	
-2.05383	0.65155	
-2.05688	0.65918	
-2.05841	0.663757	
-2.06299	0.663757	
-2.06757	0.65918	
-2.06757	0.669861	
-2.07062	0.662231	
-2.0752	0.657654	
-2.07367	0.65918	
-2.07367	0.662231	
-2.0752	0.65155	
-2.07977	0.662231	
-2.07825	0.65918	
-2.07977	0.65918	
-2.07825	0.662231	
-2.07977	0.668335	
-2.0813	0.65918	
-2.08282	0.65918	
-2.07977	0.65918	
-2.07825	0.65918	
-2.07977	0.653076	
-2.07672	0.657654	
-2.07977	0.663757	
-2.07825	0.65918	
-2.07672	0.657654	
-2.07825	0.668335	
-2.0752	0.662231	
-2.07214	0.65918	
-2.0752	0.662231	
-2.07214	0.65918	
-2.07062	0.654602	
-2.06909	0.657654	
-2.07062	0.657654	
-2.06757	0.65918	
-2.06604	0.657654	
-2.06451	0.666809	
-2.06299	0.65918	
-2.06604	0.662231	
-2.05688	0.65918	
-2.05994	0.662231	
-2.05841	0.654602	
-2.05383	0.657654	
-2.05536	0.657654	
-2.05536	0.662231	
-2.05536	0.65918	
-2.05078	0.65918	
-2.05078	0.663757	
-2.05231	0.657654	
-2.05231	0.662231	
-2.05231	0.662231	
-2.05383	0.656128	
-2.05231	0.65918	
-2.04926	0.663757	
-2.05536	0.663757	
-2.05383	0.657654	
-2.05383	0.662231	
-2.05078	0.662231	
-2.05383	0.65918	
-2.05383	0.65918	
-2.05231	0.662231	
-2.05383	0.662231	
-2.05536	0.656128	
-2.05688	0.663757	
-2.05688	0.663757	
-2.05841	0.657654	
-2.05841	0.657654	
-2.05994	0.665283	
-2.06451	0.65918	
-2.06757	0.662231	
-2.07062	0.662231	
-2.06909	0.65918	
-2.07062	0.656128	
-2.07367	0.662231	
-2.0752	0.663757	
-2.07825	0.657654	
-2.07977	0.663757	
-2.08282	0.662231	
-2.08282	0.657654	
-2.08435	0.657654	
-2.08893	0.662231	
-2.08893	0.65918	
-2.09198	0.654602	
-2.09503	0.65918	
-2.09808	0.65918	
-2.10419	0.657654	
-2.10571	0.657654	
-2.10724	0.663757	
-2.10724	0.663757	
-2.11182	0.65918	
-2.11334	0.663757	
-2.11792	0.657654	
-2.11945	0.657654	
-2.1225	0.65918	
-2.1225	0.65918	
-2.12555	0.65918	
-2.12708	0.663757	
-2.13013	0.662231	
-2.13165	0.662231	
-2.13623	0.662231	
-2.14081	0.65918	
-2.14233	0.662231	
-2.14539	0.657654	
-2.14844	0.65918	
-2.15454	0.65918	
-2.15912	0.657654	
-2.16064	0.65918	
-2.16675	0.65918	
-2.1698	0.65918	
-2.17285	0.662231	
-2.17896	0.663757	
-2.18048	0.657654	
-2.18201	0.656128	
-2.18658	0.662231	
-2.18964	0.663757	
-2.19269	0.657654	
-2.19574	0.662231	
-2.20184	0.663757	
-2.2049	0.65918	
-2.20337	0.662231	
-2.20947	0.662231	
-2.211	0.662231	
-2.21558	0.65918	
-2.22015	0.663757	
-2.22321	0.65918	
-2.22168	0.662231	
-2.22473	0.662231	
-2.23236	0.662231	
-2.23083	0.65918	
-2.23389	0.662231	
-2.23846	0.662231	
-2.23999	0.657654	
-2.23999	0.65918	
-2.24304	0.662231	
-2.24304	0.663757	
-2.24457	0.657654	
-2.24457	0.665283	
-2.24457	0.663757	
-2.24152	0.662231	
-2.24304	0.662231	
-2.23999	0.662231	
-2.23694	0.662231	
-2.23389	0.657654	
-2.22778	0.65918	
-2.21863	0.663757	
-2.20947	0.65918	
-2.20337	0.65918	
-2.19116	0.657654	
-2.18048	0.663757	
-2.16522	0.656128	
-2.15149	0.662231	
-2.14081	0.662231	
-2.1225	0.65918	
-2.10876	0.65918	
-2.09198	0.656128	
-2.0752	0.662231	
-2.05841	0.663757	
-2.0401	0.663757	
-2.01874	0.665283	
-2.00653	0.663757	
-1.99432	0.662231	
-1.97449	0.662231	
-1.9577	0.65918	
-1.94092	0.65918	
-1.92871	0.663757	
-1.91345	0.65918	
-1.89819	0.665283	
-1.88293	0.663757	
-1.87225	0.65918	
-1.86005	0.65918	
-1.84631	0.65918	
-1.83563	0.65918	
-1.82648	0.663757	
-1.81427	0.663757	
-1.80817	0.65918	
-1.79901	0.662231	
-1.7868	0.662231	
-1.7807	0.663757	
-1.7746	0.662231	
-1.76697	0.65918	
-1.76239	0.657654	
-1.75781	0.662231	
-1.74866	0.65918	
-1.74713	0.662231	
-1.74255	0.662231	
-1.74103	0.663757	
-1.7395	0.662231	
-1.73645	0.662231	
-1.73645	0.662231	
-1.7334	0.663757	
-1.73187	0.662231	
-1.73035	0.65918	
-1.72882	0.657654	
-1.72882	0.662231	
-1.73187	0.657654	
-1.72882	0.662231	
-1.73187	0.663757	
-1.73187	0.663757	
-1.7334	0.662231	
-1.7334	0.65918	
-1.73492	0.663757	
-1.73798	0.662231	
-1.74103	0.662231	
-1.74408	0.657654	
-1.74408	0.662231	
-1.74866	0.65918	
-1.74866	0.65918	
-1.75171	0.663757	
-1.75781	0.662231	
-1.76086	0.665283	
-1.76392	0.662231	
-1.76697	0.663757	
-1.77155	0.663757	
-1.77612	0.65918	
-1.77765	0.662231	
-1.78375	0.662231	
-1.78833	0.65918	
-1.78833	0.663757	
-1.79596	0.662231	
-1.79901	0.663757	
-1.80359	0.65918	
-1.80817	0.663757	
-1.80969	0.662231	
-1.81732	0.662231	
-1.8219	0.65918	
-1.82495	0.662231	
-1.828	0.662231	
-1.83716	0.65918	
-1.84174	0.663757	
-1.84479	0.662231	
-1.84631	0.65918	
-1.85394	0.657654	
-1.85699	0.65918	
-1.86157	0.662231	
-1.86768	0.662231	
-1.87378	0.65918	
-1.87836	0.662231	
-1.88141	0.662231	
-1.88751	0.657654	
-1.89056	0.65918	
-1.89667	0.663757	
-1.89972	0.65918	
-1.9043	0.65918	
-1.9104	0.662231	
-1.91345	0.65918	
-1.91803	0.65918	
-1.92108	0.665283	
-1.92871	0.663757	
-1.93329	0.662231	
-1.93634	0.663757	
-1.94244	0.657654	
-1.9455	0.657654	
-1.9516	0.662231	
-1.95465	0.65918	
-1.95465	0.65918	
-1.96228	0.657654	
-1.96533	0.662231	
-1.96838	0.65918	
-1.96991	0.665283	
-1.97296	0.65918	
-1.97754	0.65918	
-1.98059	0.65918	
-1.98212	0.65918	
-1.98364	0.657654	
-1.98975	0.665283	
-1.99127	0.663757	
-1.99585	0.662231	
-1.99432	0.662231	
-1.99432	0.65918	
-1.9989	0.65918	
-1.9989	0.65918	
-1.99585	0.657654	
-2.00043	0.657654	
-1.9989	0.65918	
-2.00043	0.65918	
-1.99738	0.65918	
-1.99738	0.662231	
-2.00043	0.663757	
-1.9989	0.65918	
-1.99738	0.662231	
-1.99585	0.65918	
-1.99432	0.663757	
-1.99432	0.662231	
-1.99127	0.657654	
-1.98975	0.662231	
-1.98975	0.665283	
-1.98975	0.663757	
-1.98669	0.662231	
-1.98364	0.65918	
-1.98212	0.656128	
-1.97906	0.657654	
-1.97906	0.657654	
-1.97754	0.65918	
-1.97754	0.662231	
-1.97601	0.663757	
-1.97449	0.662231	
-1.97296	0.662231	
-1.97296	0.657654	
-1.96991	0.65918	
-1.96686	0.65918	
-1.97144	0.65918	
-1.96838	0.657654	
-1.96991	0.657654	
-1.96991	0.657654	
-1.96838	0.65918	
-1.96838	0.657654	
-1.96533	0.663757	
-1.96838	0.656128	
-1.96686	0.662231	
-1.96533	0.657654	
-1.96533	0.65918	
-1.96381	0.656128	
-1.96838	0.65918	
-1.96838	0.662231	
-1.96838	0.657654	
-1.96991	0.657654	
-1.97144	0.657654	
-1.97449	0.657654	
-1.97296	0.662231	
-1.97449	0.65918	
-1.97601	0.65918	
-1.97754	0.65918	
-1.97906	0.663757	
-1.98059	0.65918	
-1.98059	0.65918	
-1.98212	0.657654	
-1.98822	0.657654	
-1.98975	0.656128	
-1.99127	0.662231	
-1.99432	0.657654	
-1.99432	0.663757	
-1.99738	0.656128	
-1.9989	0.662231	
-2.00043	0.65918	
-2.00043	0.65918	
-2.00653	0.654602	
-2.00653	0.663757	
-2.00958	0.656128	
-2.01263	0.665283	
-2.01569	0.662231	
-2.01721	0.662231	
-2.01874	0.65918	
-2.02484	0.662231	
-2.02637	0.656128	
-2.02789	0.65918	
-2.03247	0.656128	
-2.03552	0.65918	
-2.03552	0.65918	
-2.0401	0.65918	
-2.04163	0.65918	
-2.04773	0.662231	
-2.04926	0.657654	
-2.05078	0.662231	
-2.05078	0.656128	
-2.05383	0.662231	
-2.05994	0.656128	
-2.05841	0.662231	
-2.06604	0.65918	
-2.06757	0.65918	
-2.07214	0.656128	
-2.07367	0.65918	
-2.07672	0.662231	
-2.07825	0.65918	
-2.08282	0.662231	
-2.08435	0.65918	
-2.08588	0.657654	
-2.08893	0.662231	
-2.09045	0.657654	
-2.09656	0.65918	
-2.09656	0.663757	
-2.10266	0.665283	
-2.10419	0.657654	
-2.10571	0.663757	
-2.11182	0.657654	
-2.11182	0.657654	
-2.11792	0.657654	
-2.11945	0.663757	
-2.12402	0.657654	
-2.12708	0.65918	
-2.12708	0.657654	
-2.1286	0.65918	
-2.1347	0.65918	
-2.13623	0.65918	
-2.13623	0.657654	
-2.14539	0.65918	
-2.14691	0.656128	
-2.14996	0.65918	
-2.14996	0.65918	
-2.15607	0.65918	
-2.16064	0.65918	
-2.16217	0.662231	
-2.16675	0.663757	
-2.16522	0.65918	
-2.17133	0.657654	
-2.17285	0.65918	
-2.17438	0.65918	
-2.17285	0.65918	
-2.17743	0.662231	
-2.18048	0.657654	
-2.18201	0.65918	
-2.18201	0.65918	
-2.17896	0.656128	
-2.17438	0.657654	
-2.17285	0.662231	
-2.16827	0.65918	
-2.16522	0.657654	
-2.16217	0.657654	
-2.15454	0.657654	
-2.14539	0.656128	
-2.13013	0.65918	
-2.12097	0.662231	
-2.11029	0.657654	
-2.09503	0.662231	
-2.08282	0.65918	
-2.06909	0.663757	
-2.05231	0.65918	
-2.03552	0.662231	
-2.01874	0.662231	
-2.00348	0.662231	
-1.98669	0.663757	
-1.96838	0.65918	
-1.95465	0.65918	
-1.93787	0.65918	
-1.92108	0.65918	
-1.9043	0.657654	
-1.88904	0.662231	
-1.87836	0.65918	
-1.8631	0.65918	
-1.84631	0.657654	
-1.83716	0.65918	
-1.82037	0.662231	
-1.80664	0.657654	
-1.79596	0.65918	
-1.78375	0.65918	
-1.77307	0.662231	
-1.76544	0.65918	
-1.75323	0.65918	
-1.74561	0.657654	
-1.73645	0.65918	
-1.72882	0.663757	
-1.71967	0.662231	
-1.71356	0.656128	
-1.70898	0.657654	
-1.70288	0.665283	
-1.69678	0.657654	
-1.6922	0.65918	
-1.69067	0.657654	
-1.68457	0.662231	
-1.68152	0.656128	
-1.67542	0.65918	
-1.67389	0.657654	
-1.67389	0.656128	
-1.67084	0.65918	
-1.66931	0.663757	
-1.66779	0.662231	
-1.66779	0.662231	
-1.66626	0.65918	
-1.66473	0.65918	
-1.66473	0.65155	
-1.66473	0.65918	
-1.66626	0.65918	
-1.66779	0.662231	
-1.67084	0.65918	
-1.66626	0.665283	
-1.66779	0.65918	
-1.66931	0.65918	
-1.67084	0.657654	
-1.67694	0.65918	
-1.68152	0.653076	
-1.67847	0.65918	
-1.6861	0.657654	
-1.68915	0.65918	
-1.68915	0.663757	
-1.69373	0.668335	
-1.69525	0.662231	
-1.69983	0.662231	
-1.70288	0.65918	
-1.70898	0.65918	
-1.71204	0.653076	
-1.71509	0.656128	
-1.71967	0.662231	
-1.72272	0.657654	
-1.72729	0.657654	
-1.72729	0.663757	
-1.73187	0.65918	
-1.73492	0.663757	
-1.74103	0.65918	
-1.74255	0.657654	
-1.74713	0.654602	
-1.75018	0.657654	
-1.75781	0.65918	
-1.76086	0.65918	
-1.76392	0.657654	
-1.77002	0.666809	
-1.7746	0.65918	
-1.77612	0.662231	
-1.7807	0.662231	
-1.7868	0.656128	
-1.78986	0.657654	
-1.79596	0.662231	
-1.79749	0.657654	
-1.80054	0.662231	
-1.80817	0.662231	
-1.81274	0.65918	
-1.81427	0.662231	
-1.8219	0.657654	
-1.82648	0.65918	
-1.82953	0.65918	
-1.83716	0.657654	
-1.84174	0.65918	
-1.84326	0.656128	
-1.84937	0.662231	
-1.85242	0.657654	
-1.85547	0.657654	
-1.8631	0.656128	
-1.86462	0.662231	
-1.86768	0.657654	
-1.87531	0.657654	
-1.88141	0.65918	
-1.88141	0.657654	
-1.88599	0.656128	
-1.88751	0.663757	
-1.89514	0.65918	
-1.89514	0.65918	
-1.89819	0.662231	
-1.89819	0.663757	
-1.90277	0.65918	
-1.9043	0.65918	
-1.90735	0.662231	
-1.9104	0.657654	
-1.91345	0.653076	
-1.9165	0.65918	
-1.91498	0.657654	
-1.91193	0.656128	
-1.91498	0.65918	
-1.9165	0.657654	
-1.9165	0.656128	
-1.9165	0.65918	
-1.91956	0.666809	
-1.91956	0.657654	
-1.91803	0.654602	
-1.91498	0.657654	
-1.91498	0.657654	
-1.9165	0.653076	
-1.9165	0.657654	
-1.9165	0.65918	
-1.91345	0.65918	
-1.91193	0.657654	
-1.9104	0.663757	
-1.90735	0.656128	
-1.90735	0.656128	
-1.90735	0.657654	
-1.9043	0.656128	
-1.9043	0.654602	
-1.90277	0.663757	
-1.89972	0.65918	
-1.89819	0.65918	
-1.89972	0.657654	
-1.89819	0.665283	
-1.89514	0.657654	
-1.89362	0.654602	
-1.89362	0.657654	
-1.89209	0.656128	
-1.89056	0.653076	
-1.89056	0.657654	
-1.88904	0.662231	
-1.88599	0.65918	
-1.88599	0.65918	
-1.88599	0.662231	
-1.88599	0.656128	
-1.88446	0.65918	
-1.88751	0.657654	
-1.88293	0.657654	
-1.88599	0.653076	
-1.88599	0.65918	
-1.88599	0.662231	
-1.88599	0.657654	
-1.88599	0.65918	
-1.88446	0.662231	
-1.88599	0.657654	
-1.88904	0.65918	
-1.88904	0.65918	
-1.89209	0.657654	
-1.89362	0.657654	
-1.89362	0.65918	
-1.89667	0.65918	
-1.89514	0.656128	
-1.89667	0.65918	
-1.90277	0.662231	
-1.90125	0.65918	
-1.90735	0.656128	
-1.90735	0.65918	
-1.90735	0.65918	
-1.91498	0.662231	
-1.91803	0.662231	
-1.92108	0.657654	
-1.91956	0.656128	
-1.92566	0.657654	
-1.92719	0.657654	
-1.93024	0.662231	
-1.93329	0.656128	
-1.93176	0.65918	
-1.93787	0.657654	
-1.94092	0.656128	
-1.94244	0.662231	
-1.9455	0.656128	
-1.94855	0.656128	
-1.9516	0.656128	
-1.95465	0.657654	
-1.95618	0.657654	
-1.96228	0.654602	
-1.96228	0.65918	
-1.96381	0.656128	
-1.96686	0.657654	
-1.97449	0.657654	
-1.97449	0.656128	
-1.97296	0.65918	
-1.97754	0.65918	
-1.98059	0.662231	
-1.98669	0.656128	
-1.98669	0.65918	
-1.9928	0.657654	
-1.99432	0.657654	
-1.99738	0.662231	
-2.00348	0.662231	
-2.005	0.657654	
-2.00806	0.657654	
-2.01111	0.65918	
-2.01111	0.65918	
-2.01569	0.657654	
-2.02026	0.662231	
-2.02179	0.656128	
-2.02484	0.65918	
-2.03094	0.657654	
-2.03247	0.65918	
-2.03552	0.657654	
-2.03705	0.656128	
-2.04163	0.657654	
-2.0462	0.656128	
-2.04468	0.654602	
-2.04926	0.65918	
-2.05078	0.654602	
-2.05383	0.657654	
-2.06299	0.65918	
-2.05688	0.657654	
-2.06604	0.653076	
-2.06757	0.65918	
-2.07214	0.662231	
-2.07367	0.662231	
-2.07367	0.657654	
-2.07825	0.662231	
-2.0813	0.65918	
-2.08282	0.656128	
-2.08282	0.65918	
-2.09045	0.65918	
-2.09045	0.654602	
-2.09198	0.657654	
-2.09656	0.657654	
-2.09808	0.657654	
-2.10266	0.656128	
-2.10419	0.662231	
-2.10724	0.662231	
-2.10724	0.657654	
-2.10876	0.657654	
-2.10724	0.65918	
-2.10571	0.654602	
-2.10571	0.662231	
-2.10266	0.657654	
-2.10114	0.656128	
-2.09656	0.656128	
-2.09351	0.662231	
-2.08435	0.654602	
-2.07977	0.656128	
-2.06757	0.654602	
-2.05536	0.657654	
-2.04773	0.654602	
-2.034	0.656128	
-2.02179	0.657654	
-2.00958	0.656128	
-1.9928	0.65918	
-1.97449	0.662231	
-1.96533	0.65918	
-1.95007	0.656128	
-1.93176	0.656128	
-1.91498	0.657654	
-1.89819	0.654602	
-1.88293	0.656128	
-1.86768	0.65918	
-1.85089	0.656128	
-1.84021	0.656128	
-1.82495	0.65918	
-1.80969	0.65918	
-1.79291	0.656128	
-1.78375	0.656128	
-1.76849	0.657654	
-1.75781	0.654602	
-1.74561	0.656128	
-1.7334	0.657654	
-1.72272	0.657654	
-1.71204	0.657654	
-1.6983	0.665283	
-1.6922	0.657654	
-1.68152	0.657654	
-1.67084	0.657654	
-1.66321	0.657654	
-1.65405	0.654602	
-1.64337	0.657654	
-1.6449	0.65918	
-1.63422	0.657654	
-1.62964	0.656128	
-1.62659	0.657654	
-1.62048	0.657654	
-1.61743	0.657654	
-1.61133	0.657654	
-1.60675	0.656128	
-1.60522	0.656128	
-1.60217	0.656128	
-1.60065	0.65918	
-1.60065	0.656128	
-1.5976	0.657654	
-1.5976	0.662231	
-1.5976	0.662231	
-1.59454	0.656128	
-1.5976	0.657654	
-1.59607	0.657654	
-1.5976	0.657654	
-1.59912	0.656128	
-1.60217	0.656128	
-1.59912	0.656128	
-1.60522	0.654602	
-1.60522	0.65918	
-1.60522	0.657654	
-1.60675	0.657654	
-1.61133	0.656128	
-1.61133	0.656128	
-1.61438	0.656128	
-1.61591	0.657654	
-1.61743	0.657654	
-1.62048	0.65918	
-1.62659	0.656128	
-1.62811	0.65918	
-1.62964	0.657654	
-1.63116	0.656128	
-1.63574	0.657654	
-1.63422	0.656128	
-1.6449	0.656128	
-1.64642	0.656128	
-1.64948	0.657654	
-1.65558	0.657654	
-1.65405	0.656128	
-1.65558	0.65918	
-1.66016	0.657654	
-1.66473	0.657654	
-1.66473	0.656128	
-1.67084	0.657654	
-1.67084	0.654602	
-1.67847	0.657654	
-1.67542	0.657654	
-1.68152	0.654602	
-1.68304	0.656128	
-1.6861	0.657654	
-1.69373	0.657654	
-1.69373	0.657654	
-1.6983	0.653076	
-1.69983	0.657654	
-1.70288	0.654602	
-1.70746	0.65918	
-1.70746	0.657654	
-1.71051	0.657654	
-1.71967	0.657654	
-1.71967	0.662231	
-1.72272	0.656128	
-1.72729	0.657654	
-1.72882	0.657654	
-1.72882	0.656128	
-1.73645	0.657654	
-1.73645	0.654602	
-1.73645	0.656128	
-1.74255	0.657654	
-1.74103	0.656128	
-1.74866	0.656128	
-1.74866	0.657654	
-1.75171	0.657654	
-1.75171	0.656128	
-1.75781	0.656128	
-1.75781	0.65918	
-1.75781	0.656128	
-1.76239	0.657654	
-1.76239	0.656128	
-1.76392	0.657654	
-1.76697	0.656128	
-1.76392	0.662231	
-1.76697	0.656128	
-1.76697	0.656128	
-1.76697	0.656128	
-1.76849	0.65918	
-1.76849	0.654602	
-1.76849	0.657654	
-1.76849	0.656128	
-1.77002	0.656128	
-1.77307	0.656128	
-1.77002	0.656128	
-1.76849	0.657654	
-1.77002	0.657654	
-1.77155	0.65918	
-1.77002	0.657654	
-1.76697	0.656128	
-1.77002	0.65918	
-1.76849	0.654602	
-1.76849	0.654602	
-1.76544	0.656128	
-1.76849	0.65918	
-1.76544	0.656128	
-1.76392	0.65918	
-1.76239	0.656128	
-1.76544	0.662231	
-1.76697	0.656128	
-1.76239	0.65918	
-1.76392	0.65918	
-1.76392	0.65918	
-1.76239	0.653076	
-1.76392	0.65918	
-1.76392	0.654602	
-1.76392	0.656128	
-1.76239	0.656128	
-1.75934	0.662231	
-1.76392	0.654602	
-1.76392	0.65918	
-1.76544	0.657654	
-1.76239	0.657654	
-1.76239	0.65155	
-1.76239	0.656128	
-1.76239	0.657654	
-1.76544	0.654602	
-1.76697	0.654602	
-1.76544	0.663757	
-1.76544	0.656128	
-1.76849	0.657654	
-1.76849	0.653076	
-1.77002	0.656128	
-1.76849	0.654602	
-1.77002	0.657654	
-1.77307	0.654602	
-1.7746	0.65918	
-1.7746	0.657654	
-1.7746	0.65918	
-1.77917	0.656128	
-1.77765	0.65918	
-1.77765	0.657654	
-1.78223	0.65918	
-1.78375	0.653076	
-1.78375	0.657654	
-1.78833	0.654602	
-1.78833	0.656128	
-1.78986	0.656128	
-1.79138	0.663757	
-1.79138	0.657654	
-1.79596	0.65918	
-1.79901	0.654602	
-1.79901	0.65918	
-1.80206	0.650024	
-1.80359	0.657654	
-1.80817	0.656128	
-1.80969	0.656128	
-1.81122	0.657654	
-1.81427	0.65918	
-1.81885	0.657654	
-1.82037	0.65918	
-1.82495	0.654602	
-1.82648	0.657654	
-1.82953	0.65155	
-1.83105	0.657654	
-1.83563	0.654602	
-1.83716	0.656128	
-1.83868	0.65918	
-1.84326	0.665283	
-1.84479	0.654602	
-1.84631	0.657654	
-1.84784	0.657654	
-1.85242	0.657654	
-1.85547	0.65155	
-1.86005	0.656128	
-1.86157	0.656128	
-1.8631	0.656128	
-1.86615	0.653076	
-1.87225	0.662231	
-1.87531	0.654602	
-1.87836	0.657654	
-1.87836	0.656128	
-1.88293	0.657654	
-1.88599	0.653076	
-1.88751	0.656128	
-1.89209	0.656128	
-1.89209	0.656128	
-1.89514	0.657654	
-1.89667	0.662231	
-1.90125	0.657654	
-1.9043	0.65918	
-1.9043	0.657654	
-1.9104	0.657654	
-1.91193	0.653076	
-1.9165	0.657654	
-1.92108	0.657654	
-1.91956	0.653076	
-1.92108	0.656128	
-1.92871	0.663757	
-1.93024	0.654602	
-1.93329	0.65918	
-1.93939	0.657654	
-1.94092	0.657654	
-1.94397	0.65155	
-1.94092	0.656128	
-1.95007	0.656128	
-1.95007	0.656128	
-1.95313	0.65918	
-1.95465	0.65918	
-1.9577	0.65918	
-1.96075	0.65918	
-1.96228	0.657654	
-1.96381	0.657654	
-1.96991	0.654602	
-1.96838	0.662231	
-1.96991	0.654602	
-1.96991	0.656128	
-1.97144	0.654602	
-1.97144	0.65918	
-1.97296	0.656128	
-1.97296	0.65918	
-1.97296	0.65918	
-1.96991	0.65918	
-1.96838	0.654602	
-1.96533	0.65918	
-1.96228	0.654602	
-1.95618	0.656128	
-1.95007	0.65918	
-1.94244	0.65918	
-1.93481	0.657654	
-1.92719	0.663757	
-1.91803	0.657654	
-1.90582	0.657654	
-1.89514	0.656128	
-1.88293	0.653076	
-1.86768	0.654602	
-1.85852	0.656128	
-1.84479	0.657654	
-1.83105	0.656128	
-1.81732	0.657654	
-1.80359	0.65918	
-1.78833	0.65918	
-1.77765	0.65918	
-1.76544	0.65918	
-1.75171	0.657654	
-1.73798	0.657654	
-1.72424	0.657654	
-1.71509	0.65918	
-1.69983	0.656128	
-1.69067	0.656128	
-1.67847	0.657654	
-1.66473	0.657654	
-1.6571	0.657654	
-1.64795	0.662231	
-1.63727	0.656128	
-1.62811	0.656128	
-1.61743	0.656128	
-1.6098	0.65918	
-1.60065	0.657654	
-1.59607	0.654602	
-1.58691	0.656128	
-1.58081	0.65918	
-1.57318	0.65918	
-1.57013	0.657654	
-1.56097	0.656128	
-1.55792	0.656128	
-1.55487	0.654602	
-1.54877	0.657654	
-1.54419	0.656128	
-1.54266	0.654602	
-1.53961	0.656128	
-1.53809	0.65918	
-1.53351	0.656128	
-1.53198	0.657654	
-1.53198	0.656128	
-1.52588	0.656128	
-1.53046	0.656128	
-1.52893	0.657654	
-1.53046	0.653076	
-1.53046	0.656128	
-1.52588	0.656128	
-1.52893	0.656128	
-1.53046	0.656128	
-1.53503	0.654602	
-1.53503	0.657654	
-1.53351	0.656128	
-1.53503	0.654602	
-1.53809	0.657654	
-1.53656	0.654602	
-1.54266	0.656128	
-1.54266	0.65918	
-1.54266	0.657654	
-1.54724	0.656128	
-1.55029	0.663757	
-1.55334	0.656128	
-1.55182	0.657654	
-1.5564	0.654602	
-1.55792	0.65918	
-1.55945	0.656128	
-1.5625	0.654602	
-1.56403	0.657654	
-1.56403	0.656128	
-1.57166	0.656128	
-1.57471	0.65918	
-1.57776	0.654602	
-1.58081	0.656128	
-1.58386	0.657654	
-1.58539	0.657654	
-1.58844	0.65155	
-1.59149	0.657654	
-1.59607	0.656128	
-1.5976	0.656128	
-1.5976	0.653076	
-1.59912	0.662231	
-1.60522	0.657654	
-1.60675	0.656128	
-1.61133	0.656128	
-1.61285	0.657654	
-1.61591	0.65155	
-1.62201	0.656128	
-1.62506	0.654602	
-1.62659	0.654602	
-1.63269	0.654602	
-1.63116	0.663757	
-1.63727	0.656128	
-1.64032	0.657654	
-1.64642	0.657654	
-1.64948	0.656128	
-1.65405	0.65155	
-1.6571	0.653076	
-1.66016	0.653076	
-1.66321	0.657654	
-1.67084	0.653076	
-1.67084	0.65918	
-1.67542	0.657654	
-1.67847	0.65918	
-1.6861	0.654602	
-1.6861	0.654602	
-1.6922	0.650024	
-1.69525	0.654602	
-1.69678	0.656128	
-1.69983	0.662231	
-1.70288	0.656128	
-1.70441	0.657654	
-1.70746	0.656128	
-1.70898	0.65918	
-1.71204	0.654602	
-1.71509	0.656128	
-1.71661	0.656128	
-1.72272	0.654602	
-1.72119	0.653076	
-1.71967	0.656128	
-1.72577	0.654602	
-1.72577	0.656128	
-1.72577	0.657654	
-1.72424	0.657654	
-1.72729	0.656128	
-1.72577	0.657654	
-1.72424	0.657654	
-1.72729	0.65155	
-1.72882	0.656128	
-1.72424	0.65918	
-1.72272	0.653076	
-1.72424	0.654602	
-1.72577	0.654602	
-1.72424	0.663757	
-1.71967	0.657654	
-1.72119	0.656128	
-1.72272	0.654602	
-1.72424	0.653076	
-1.72272	0.654602	
-1.72119	0.65155	
-1.71967	0.654602	
-1.71661	0.653076	
-1.71509	0.656128	
-1.71661	0.65918	
-1.70898	0.656128	
-1.71204	0.656128	
-1.71204	0.663757	
-1.71051	0.657654	
-1.70898	0.653076	
-1.71051	0.654602	
-1.70746	0.656128	
-1.70746	0.653076	
-1.70898	0.657654	
-1.70746	0.65918	
-1.70593	0.653076	
-1.70593	0.656128	
-1.70746	0.65918	
-1.70746	0.657654	
-1.70898	0.657654	
-1.70288	0.656128	
-1.70593	0.654602	
-1.71051	0.653076	
-1.71051	0.653076	
-1.71204	0.65918	
-1.71356	0.656128	
-1.71967	0.657654	
-1.71661	0.663757	
-1.71967	0.657654	
-1.72272	0.654602	
-1.71967	0.656128	
-1.72272	0.65918	
-1.72577	0.653076	
-1.72577	0.654602	
-1.72577	0.656128	
-1.72882	0.654602	
-1.73187	0.653076	
-1.7334	0.662231	
-1.73492	0.657654	
-1.7395	0.654602	
-1.74103	0.653076	
-1.74561	0.654602	
-1.74713	0.653076	
-1.75171	0.653076	
-1.75323	0.65918	
-1.75781	0.653076	
-1.75934	0.653076	
-1.76239	0.657654	
-1.76544	0.657654	
-1.76697	0.653076	
-1.77155	0.656128	
-1.77155	0.656128	
-1.77612	0.654602	
-1.77917	0.654602	
-1.7807	0.65918	
-1.78223	0.656128	
-1.7868	0.653076	
-1.78986	0.657654	
-1.79596	0.65918	
-1.79901	0.656128	
-1.80206	0.656128	
-1.80359	0.656128	
-1.80664	0.654602	
-1.80969	0.65155	
-1.81274	0.656128	
-1.8158	0.656128	
-1.8219	0.656128	
-1.8219	0.654602	
-1.82495	0.656128	
-1.83105	0.656128	
-1.83411	0.65918	
-1.83716	0.662231	
-1.83868	0.65918	
-1.84326	0.654602	
-1.84479	0.657654	
-1.84937	0.656128	
-1.85242	0.654602	
-1.85394	0.654602	
-1.85852	0.657654	
-1.8631	0.656128	
-1.86615	0.657654	
-1.8692	0.656128	
-1.87225	0.654602	
-1.87836	0.657654	
-1.87836	0.654602	
-1.88141	0.653076	
-1.88599	0.654602	
-1.88904	0.657654	
-1.89056	0.657654	
-1.89514	0.656128	
-1.89667	0.657654	
-1.90125	0.654602	
-1.90277	0.656128	
-1.9104	0.654602	
-1.91345	0.654602	
-1.9165	0.656128	
-1.91956	0.653076	
-1.92261	0.654602	
-1.92871	0.656128	
-1.92719	0.654602	
-1.93024	0.65918	
-1.93329	0.656128	
-1.93939	0.656128	
-1.93939	0.653076	
-1.94244	0.654602	
-1.95007	0.65155	
-1.9516	0.654602	
-1.9516	0.654602	
-1.95313	0.65918	
-1.95618	0.657654	
-1.9577	0.657654	
-1.95923	0.656128	
-1.9577	0.656128	
-1.96075	0.656128	
-1.96075	0.65155	
-1.96228	0.654602	
-1.9577	0.653076	
-1.95465	0.657654	
-1.95313	0.657654	
-1.95007	0.654602	
-1.94397	0.656128	
-1.94092	0.65918	
-1.92871	0.657654	
-1.92261	0.654602	
-1.91498	0.657654	
-1.90735	0.657654	
-1.89514	0.654602	
-1.88751	0.656128	
-1.87683	0.65918	
-1.8631	0.656128	
-1.85242	0.657654	
-1.83868	0.657654	
-1.828	0.657654	
-1.81427	0.656128	
-1.80206	0.653076	
-1.78986	0.654602	
-1.77765	0.654602	
-1.76392	0.656128	
-1.75323	0.654602	
-1.7395	0.657654	
-1.73187	0.65918	
-1.71967	0.656128	
-1.71204	0.657654	
-1.6983	0.654602	
-1.69067	0.656128	
-1.67847	0.654602	
-1.67084	0.648499	
-1.66016	0.656128	
-1.65253	0.65918	
-1.6449	0.65918	
-1.63727	0.657654	
-1.62964	0.65918	
-1.62506	0.65918	
-1.61743	0.653076	
-1.61285	0.65155	
-1.60675	0.653076	
-1.60065	0.653076	
-1.59454	0.654602	
-1.59149	0.657654	
-1.58844	0.65918	
-1.58386	0.654602	
-1.58386	0.657654	
-1.57928	0.657654	
-1.57776	0.654602	
-1.57318	0.65155	
-1.57471	0.657654	
-1.57166	0.65155	
-1.57318	0.653076	
-1.57166	0.65918	
-1.57471	0.662231	
-1.57471	0.656128	
-1.57471	0.662231	
-1.57623	0.657654	
-1.57776	0.657654	
-1.57928	0.653076	
-1.57928	0.653076	
-1.58386	0.65155	
-1.58539	0.654602	
-1.58844	0.654602	
-1.58997	0.656128	
-1.59302	0.653076	
-1.59607	0.657654	
-1.5976	0.65918	
-1.59912	0.654602	
-1.60522	0.653076	
-1.60675	0.653076	
-1.6098	0.65155	
-1.61285	0.654602	
-1.61591	0.656128	
-1.62354	0.654602	
-1.62201	0.656128	
-1.62506	0.656128	
-1.62811	0.657654	
-1.63574	0.653076	
-1.63727	0.65155	
-1.64032	0.654602	
-1.64642	0.650024	
-1.64948	0.654602	
-1.65253	0.654602	
-1.65863	0.65918	
-1.66168	0.654602	
-1.66473	0.65918	
-1.66779	0.656128	
-1.67084	0.656128	
-1.67542	0.65155	
-1.68152	0.654602	
-1.68457	0.653076	
-1.68762	0.65155	
-1.6922	0.654602	
-1.69525	0.65918	
-1.70135	0.657654	
-1.70746	0.657654	
-1.71051	0.654602	
-1.71356	0.653076	
-1.71661	0.654602	
-1.72272	0.653076	
-1.72882	0.65155	
-1.7334	0.653076	
-1.73645	0.654602	
-1.74408	0.65918	
-1.74561	0.656128	
-1.75171	0.65918	
-1.75934	0.657654	
-1.76239	0.653076	
-1.76697	0.65155	
-1.77307	0.65155	
-1.77612	0.650024	
-1.78223	0.654602	
-1.78375	0.654602	
-1.79138	0.657654	
-1.79596	0.654602	
-1.79901	0.656128	
-1.80206	0.656128	
-1.80817	0.654602	
-1.81274	0.653076	
-1.81427	0.653076	
-1.81732	0.653076	
-1.82343	0.653076	
-1.82343	0.654602	
-1.82953	0.653076	
-1.82953	0.654602	
-1.83563	0.654602	
-1.84021	0.65918	
-1.83868	0.657654	
-1.84479	0.654602	
-1.84479	0.653076	
-1.85089	0.653076	
-1.85242	0.653076	
-1.85242	0.653076	
-1.85242	0.654602	
-1.85242	0.654602	
-1.85242	0.657654	
-1.85547	0.657654	
-1.85699	0.654602	
-1.85547	0.653076	
-1.85699	0.657654	
-1.85699	0.65155	
-1.85852	0.650024	
-1.85852	0.653076	
-1.85699	0.656128	
-1.85547	0.653076	
-1.85699	0.654602	
-1.85394	0.65918	
-1.85547	0.650024	
-1.85394	0.650024	
-1.85242	0.653076	
-1.85242	0.650024	
-1.84937	0.65155	
-1.84937	0.653076	
-1.84784	0.654602	
-1.84784	0.653076	
-1.84631	0.656128	
-1.84479	0.657654	
-1.84479	0.656128	
-1.84021	0.653076	
-1.84021	0.656128	
-1.83868	0.65155	
-1.83716	0.650024	
-1.83716	0.653076	
-1.83716	0.654602	
-1.83563	0.654602	
-1.83411	0.656128	
-1.83105	0.657654	
-1.83563	0.656128	
-1.83105	0.654602	
-1.83105	0.653076	
-1.83411	0.65155	
-1.83563	0.65155	
-1.83411	0.653076	
-1.83105	0.650024	
-1.83411	0.654602	
-1.83563	0.657654	
-1.83716	0.657654	
-1.83716	0.653076	
-1.83716	0.656128	
-1.84021	0.656128	
-1.84021	0.65155	
-1.84174	0.650024	
-1.84479	0.654602	
-1.84326	0.65155	
-1.84479	0.654602	
-1.84937	0.654602	
-1.85089	0.654602	
-1.85089	0.656128	
-1.85394	0.656128	
-1.85394	0.65155	
-1.85394	0.653076	
-1.85699	0.654602	
-1.86005	0.65155	
-1.8631	0.65155	
-1.8631	0.656128	
-1.86768	0.654602	
-1.87225	0.654602	
-1.87378	0.654602	
-1.87988	0.65918	
-1.88141	0.654602	
-1.88141	0.65155	
-1.88446	0.650024	
-1.88751	0.653076	
-1.89056	0.650024	
-1.89667	0.654602	
-1.89514	0.656128	
-1.89972	0.656128	
-1.90125	0.654602	
-1.9043	0.65918	
-1.90582	0.650024	
-1.91193	0.653076	
-1.91498	0.653076	
-1.9165	0.650024	
-1.92108	0.646973	
-1.92413	0.65155	
-1.92566	0.656128	
-1.93329	0.654602	
-1.93481	0.65155	
-1.93481	0.662231	
-1.93939	0.65155	
-1.94244	0.65155	
-1.94244	0.65155	
-1.94855	0.656128	
-1.95313	0.648499	
-1.95618	0.656128	
-1.95923	0.657654	
-1.96228	0.656128	
-1.96381	0.654602	
-1.96838	0.65918	
-1.97144	0.654602	
-1.97296	0.656128	
-1.97601	0.653076	
-1.97906	0.653076	
-1.98364	0.645447	
-1.98364	0.653076	
-1.98975	0.656128	
-1.99432	0.653076	
-1.99738	0.653076	
-2.00195	0.665283	
-2.005	0.654602	
-2.00653	0.65155	
-2.00806	0.65155	
-2.01111	0.654602	
-2.01874	0.646973	
-2.02026	0.653076	
-2.02179	0.653076	
-2.02484	0.654602	
-2.02942	0.65155	
-2.03247	0.663757	
-2.034	0.65155	
-2.03857	0.654602	
-2.04163	0.653076	
-2.04468	0.653076	
-2.04468	0.645447	
-2.04773	0.653076	
-2.04773	0.653076	
-2.04926	0.653076	
-2.05536	0.654602	
-2.04926	0.663757	
-2.05231	0.654602	
-2.04926	0.653076	
-2.04926	0.654602	
-2.04773	0.656128	
-2.04163	0.645447	
-2.03552	0.657654	
-2.03247	0.657654	
-2.01569	0.653076	
-2.00958	0.654602	
-2.00043	0.662231	
-1.98822	0.654602	
-1.97601	0.656128	
-1.96381	0.65155	
-1.94855	0.654602	
-1.93329	0.645447	
-1.92413	0.653076	
-1.90582	0.653076	
-1.88904	0.654602	
-1.87531	0.65155	
-1.86005	0.662231	
-1.84784	0.653076	
-1.82953	0.654602	
-1.81427	0.653076	
-1.80206	0.656128	
-1.7868	0.646973	
-1.77155	0.653076	
-1.76239	0.653076	
-1.74255	0.656128	
-1.73035	0.653076	
-1.72119	0.657654	
-1.70746	0.653076	
-1.69525	0.656128	
-1.68457	0.654602	
-1.67236	0.656128	
-1.66473	0.648499	
-1.65558	0.656128	
-1.6449	0.656128	
-1.63574	0.653076	
-1.62964	0.653076	
-1.62201	0.657654	
-1.61591	0.656128	
-1.6098	0.653076	
-1.60522	0.653076	
-1.5976	0.654602	
-1.59149	0.650024	
-1.58997	0.653076	
-1.58691	0.653076	
-1.58234	0.653076	
-1.57623	0.654602	
-1.57776	0.654602	
-1.57623	0.653076	
-1.57471	0.653076	
-1.57013	0.653076	
-1.57013	0.653076	
-1.57013	0.65155	
-1.57166	0.653076	
-1.57013	0.65155	
-1.5686	0.656128	
-1.5686	0.653076	
-1.57318	0.656128	
-1.57013	0.65155	
-1.57623	0.653076	
-1.57776	0.656128	
-1.57776	0.653076	
-1.58081	0.653076	
-1.58081	0.656128	
-1.58386	0.65155	
-1.58386	0.65155	
-1.58844	0.653076	
-1.59302	0.653076	
-1.59149	0.65155	
-1.59607	0.656128	
-1.5976	0.653076	
-1.60522	0.653076	
-1.6098	0.656128	
-1.61133	0.657654	
-1.61591	0.65155	
-1.61743	0.650024	
-1.62048	0.650024	
-1.62659	0.65155	
-1.63116	0.65155	
-1.63269	0.654602	
-1.63574	0.654602	
-1.64032	0.65155	
-1.6449	0.654602	
-1.64795	0.654602	
-1.651	0.654602	
-1.6571	0.65155	
-1.66016	0.654602	
-1.66321	0.648499	
-1.66626	0.65155	
-1.67084	0.656128	
-1.67236	0.653076	
-1.67847	0.653076	
-1.68457	0.657654	
-1.69067	0.654602	
-1.69067	0.653076	
-1.6983	0.65155	
-1.70135	0.654602	
-1.70898	0.648499	
-1.71204	0.653076	
-1.71967	0.653076	
-1.72424	0.653076	
-1.72882	0.650024	
-1.7334	0.65918	
-1.73645	0.653076	
-1.74561	0.653076	
-1.74713	0.65155	
-1.75323	0.654602	
-1.76086	0.645447	
-1.76544	0.650024	
-1.77002	0.65155	
-1.7746	0.653076	
-1.77765	0.650024	
-1.78223	0.65918	
-1.7868	0.656128	
-1.79291	0.653076	
-1.79596	0.650024	
-1.80206	0.656128	
-1.80359	0.643921	
-1.80664	0.653076	
-1.80511	0.654602	
-1.81122	0.653076	
-1.81274	0.650024	
-1.8158	0.662231	
-1.8158	0.656128	
-1.8158	0.648499	
-1.81732	0.65155	
-1.81885	0.65155	
-1.82495	0.648499	
-1.82343	0.650024	
-1.82495	0.656128	
-1.82343	0.653076	
-1.82495	0.65155	
-1.82343	0.65918	
-1.8219	0.653076	
-1.81885	0.653076	
-1.81885	0.65155	
-1.81732	0.654602	
-1.81732	0.648499	
-1.81427	0.65155	
-1.81274	0.653076	
-1.81122	0.654602	
-1.81122	0.653076	
-1.80817	0.65918	
-1.80359	0.653076	
-1.80206	0.65155	
-1.79901	0.65155	
-1.79596	0.656128	
-1.79596	0.650024	
-1.79291	0.65155	
-1.79138	0.65155	
-1.7868	0.653076	
-1.78223	0.65155	
-1.77765	0.654602	
-1.7807	0.653076	
-1.77612	0.653076	
-1.77612	0.65155	
-1.77307	0.654602	
-1.77002	0.650024	
-1.76849	0.650024	
-1.76697	0.654602	
-1.76392	0.653076	
-1.76239	0.65155	
-1.76086	0.65155	
-1.76239	0.653076	
-1.76086	0.65155	
-1.75934	0.650024	
-1.75781	0.653076	
-1.75934	0.65155	
-1.76086	0.646973	
-1.75476	0.65155	
-1.75934	0.653076	
-1.75781	0.65155	
-1.75781	0.653076	
-1.75934	0.657654	
-1.75934	0.653076	
-1.75934	0.653076	
-1.76086	0.656128	
-1.76239	0.654602	
-1.76392	0.650024	
-1.76392	0.650024	
-1.76544	0.65155	
-1.76849	0.65155	
-1.76697	0.653076	
-1.77002	0.654602	
-1.77155	0.65155	
-1.7746	0.653076	
-1.77765	0.653076	
-1.77612	0.653076	
-1.77917	0.65155	
-1.78375	0.65155	
-1.78528	0.65155	
-1.78528	0.648499	
-1.79138	0.653076	
-1.79138	0.656128	
-1.79596	0.653076	
-1.79901	0.65155	
-1.79901	0.65155	
-1.80359	0.654602	
-1.80969	0.650024	
-1.80817	0.653076	
-1.81122	0.650024	
-1.81732	0.650024	
-1.8158	0.65155	
-1.82037	0.650024	
-1.82495	0.646973	
-1.82648	0.653076	
-1.828	0.653076	
-1.83716	0.65155	
-1.83716	0.648499	
-1.84174	0.65155	
-1.84631	0.653076	
-1.84937	0.65155	
-1.85547	0.65155	
-1.85547	0.653076	
-1.85699	0.653076	
-1.8631	0.650024	
-1.86768	0.65155	
-1.87378	0.653076	
-1.87683	0.650024	
-1.87836	0.650024	
-1.88446	0.653076	
-1.88751	0.650024	
-1.89362	0.654602	
-1.89514	0.654602	
-1.89972	0.654602	
-1.9043	0.648499	
-1.91345	0.654602	
-1.91345	0.65155	
-1.91803	0.65155	
-1.92108	0.653076	
-1.92261	0.654602	
-1.92566	0.648499	
-1.93176	0.65155	
-1.93634	0.653076	
-1.93787	0.65155	
-1.94244	0.654602	
-1.9455	0.65155	
-1.95007	0.650024	
-1.95007	0.650024	
-1.95465	0.65155	
-1.95618	0.654602	
-1.95923	0.653076	
-1.96228	0.657654	
-1.95923	0.65155	
-1.95923	0.65155	
-1.9577	0.650024	
-1.95465	0.65155	
-1.95465	0.65155	
-1.94855	0.650024	
-1.9455	0.650024	
-1.93634	0.65155	
-1.92871	0.650024	
-1.92261	0.653076	
-1.91498	0.653076	
-1.90125	0.650024	
-1.89056	0.653076	
-1.87836	0.65155	
-1.86615	0.650024	
-1.85394	0.65155	
-1.83868	0.65155	
-1.82343	0.650024	
-1.81122	0.650024	
-1.79749	0.65155	
-1.78375	0.653076	
-1.76544	0.650024	
-1.75323	0.653076	
-1.7395	0.65155	
-1.72577	0.650024	
-1.71051	0.65155	
-1.69678	0.653076	
-1.68457	0.65155	
-1.67542	0.653076	
-1.65558	0.650024	
-1.6449	0.650024	
-1.63422	0.650024	
-1.62201	0.648499	
-1.61438	0.65155	
-1.60217	0.653076	
-1.58844	0.648499	
-1.58081	0.653076	
-1.57318	0.65155	
-1.56708	0.65155	
-1.5564	0.653076	
-1.54877	0.653076	
-1.54266	0.653076	
-1.53503	0.657654	
-1.52893	0.65155	
-1.52435	0.65155	
-1.5213	0.656128	
-1.51062	0.653076	
-1.50757	0.653076	
-1.50452	0.654602	
-1.50299	0.65155	
-1.49994	0.653076	
-1.49689	0.650024	
-1.49689	0.653076	
-1.49536	0.653076	
-1.49536	0.653076	
-1.49384	0.653076	
-1.49231	0.65155	
-1.49231	0.648499	
-1.49689	0.65155	
-1.49536	0.65155	
-1.49536	0.653076	
-1.49231	0.65155	
-1.49536	0.65155	
-1.49689	0.65155	
-1.49841	0.65155	
-1.50146	0.653076	
-1.49841	0.654602	
-1.50299	0.648499	
-1.50604	0.653076	
-1.50757	0.654602	
-1.50909	0.653076	
-1.51367	0.65155	
-1.5152	0.65155	
-1.51672	0.65155	
-1.51978	0.65155	
-1.51978	0.650024	
-1.52893	0.65155	
-1.53046	0.646973	
-1.53198	0.65155	
-1.53503	0.653076	
-1.53961	0.65155	
-1.54419	0.65155	
-1.54724	0.65155	
-1.55029	0.653076	
-1.55334	0.65155	
-1.55792	0.65155	
-1.56403	0.648499	
-1.56708	0.650024	
-1.57318	0.653076	
-1.57623	0.65155	
-1.57776	0.654602	
-1.58234	0.653076	
-1.58234	0.650024	
-1.58691	0.65155	
-1.58997	0.653076	
-1.5976	0.650024	
-1.60065	0.648499	
-1.60675	0.648499	
-1.61133	0.653076	
-1.61438	0.65155	
-1.61743	0.654602	
-1.62506	0.653076	
-1.62811	0.650024	
-1.63269	0.65155	
-1.63727	0.65155	
-1.64337	0.65155	
-1.64795	0.650024	
-1.65253	0.650024	
-1.6571	0.650024	
-1.66168	0.653076	
-1.66779	0.65155	
-1.67084	0.654602	
-1.67694	0.650024	
-1.68304	0.65155	
-1.68762	0.65155	
-1.6922	0.65155	
-1.69373	0.648499	
-1.69678	0.653076	
-1.70288	0.65155	
-1.70746	0.653076	
-1.71356	0.653076	
-1.71509	0.653076	
-1.71967	0.65155	
-1.72424	0.650024	
-1.72424	0.650024	
-1.72729	0.648499	
-1.73187	0.65155	
-1.73187	0.654602	
-1.73492	0.65155	
-1.73492	0.653076	
-1.73645	0.653076	
-1.74103	0.65155	
-1.73798	0.650024	
-1.74103	0.653076	
-1.7395	0.65155	
-1.74103	0.650024	
-1.74103	0.65155	
-1.73798	0.650024	
-1.73798	0.650024	
-1.73645	0.650024	
-1.7395	0.65155	
-1.73492	0.65155	
-1.73492	0.650024	
-1.73035	0.65155	
-1.73187	0.65155	
-1.7334	0.650024	
-1.72729	0.65155	
-1.72729	0.65155	
-1.72424	0.650024	
-1.72424	0.65155	
-1.71967	0.650024	
-1.71967	0.650024	
-1.72119	0.648499	
-1.71967	0.653076	
-1.71967	0.650024	
-1.71356	0.65155	
-1.71051	0.650024	
-1.71204	0.653076	
-1.70593	0.650024	
-1.70746	0.65155	
-1.70746	0.650024	
-1.70441	0.65155	
-1.70288	0.648499	
-1.70746	0.653076	
-1.70135	0.650024	
-1.70135	0.650024	
-1.70288	0.65155	
-1.70288	0.650024	
-1.70441	0.648499	
-1.70135	0.648499	
-1.70135	0.646973	
-1.70441	0.65155	
-1.70288	0.65155	
-1.70593	0.653076	
-1.70593	0.65155	
-1.70746	0.648499	
-1.70746	0.646973	
-1.70898	0.650024	
-1.71051	0.648499	
-1.70898	0.65155	
-1.71356	0.648499	
-1.71509	0.653076	
-1.71356	0.650024	
-1.71509	0.653076	
-1.71661	0.648499	
-1.72119	0.653076	
-1.72424	0.646973	
-1.72729	0.65155	
-1.72729	0.648499	
-1.73035	0.650024	
-1.73035	0.648499	
-1.73492	0.650024	
-1.73645	0.65155	
-1.7395	0.653076	
-1.74255	0.650024	
-1.74408	0.65155	
-1.74408	0.648499	
-1.75018	0.648499	
-1.75171	0.65155	
-1.75781	0.65155	
-1.75934	0.646973	
-1.76086	0.65155	
-1.76697	0.65155	
-1.77002	0.65155	
-1.77307	0.648499	
-1.7746	0.646973	
-1.77765	0.650024	
-1.77917	0.653076	
-1.78375	0.648499	
-1.78833	0.653076	
-1.79138	0.648499	
-1.79291	0.648499	
-1.79749	0.650024	
-1.80511	0.65155	
-1.80969	0.650024	
-1.80969	0.648499	
-1.8158	0.65155	
-1.81885	0.650024	
-1.8219	0.646973	
-1.82495	0.648499	
-1.82953	0.653076	
-1.83105	0.648499	
-1.83716	0.653076	
-1.84174	0.653076	
-1.84631	0.650024	
-1.84784	0.650024	
-1.85242	0.65155	
-1.85852	0.650024	
-1.86462	0.648499	
-1.86462	0.65155	
-1.86768	0.650024	
-1.87378	0.65155	
-1.87988	0.653076	
-1.88141	0.650024	
-1.88599	0.65155	
-1.88904	0.65155	
-1.89362	0.65155	
-1.89667	0.650024	
-1.89972	0.653076	
-1.90582	0.650024	
-1.90735	0.650024	
-1.91193	0.650024	
-1.9165	0.65155	
-1.91956	0.650024	
-1.92719	0.650024	
-1.92719	0.654602	
-1.92719	0.653076	
-1.93481	0.65155	
-1.93176	0.648499	
-1.93481	0.65155	
-1.93481	0.648499	
-1.93329	0.65155	
-1.93481	0.646973	
-1.93176	0.65155	
-1.93176	0.65155	
-1.92719	0.650024	
-1.92413	0.653076	
-1.9165	0.65155	
-1.9104	0.648499	
-1.89972	0.648499	
-1.89209	0.650024	
-1.88141	0.646973	
-1.86768	0.65155	
-1.85547	0.65155	
-1.84479	0.648499	
-1.82648	0.650024	
-1.81122	0.65155	
-1.80206	0.650024	
-1.7807	0.648499	
-1.76849	0.648499	
-1.75171	0.650024	
-1.7334	0.650024	
-1.72272	0.650024	
-1.70746	0.65155	
-1.68915	0.650024	
-1.67389	0.646973	
-1.66168	0.65155	
-1.64795	0.650024	
-1.63269	0.653076	
-1.61896	0.653076	
-1.60828	0.646973	
-1.59454	0.645447	
-1.58234	0.65155	
-1.56708	0.65155	
-1.55487	0.650024	
-1.54572	0.650024	
-1.53809	0.654602	
-1.52588	0.65155	
-1.5152	0.65155	
-1.50757	0.65155	
-1.49841	0.648499	
-1.49078	0.643921	
-1.48468	0.650024	
-1.47552	0.648499	
-1.4679	0.650024	
-1.46332	0.65155	
-1.45874	0.653076	
-1.45416	0.650024	
-1.44958	0.654602	
-1.44653	0.65155	
-1.44348	0.645447	
-1.4389	0.643921	
-1.43738	0.65155	
-1.43433	0.645447	
-1.43127	0.650024	
-1.4328	0.65155	
-1.42975	0.657654	
-1.4267	0.648499	
-1.4267	0.653076	
-1.4267	0.65155	
-1.42975	0.650024	
-1.42822	0.643921	
-1.43127	0.650024	
-1.43127	0.646973	
-1.4328	0.650024	
-1.4328	0.650024	
-1.43585	0.657654	
-1.43433	0.65155	
-1.4389	0.65155	
-1.44196	0.650024	
-1.44196	0.648499	
-1.44806	0.646973	
-1.44806	0.646973	
-1.45264	0.646973	
-1.45569	0.646973	
-1.45721	0.650024	
-1.46027	0.656128	
-1.46179	0.65155	
-1.46179	0.65155	
-1.4679	0.648499	
-1.4679	0.646973	
-1.47247	0.645447	
-1.474	0.650024	
-1.47858	0.646973	
-1.47858	0.650024	
-1.48163	0.646973	
-1.48315	0.65155	
-1.48315	0.648499	
-1.49078	0.653076	
-1.49384	0.648499	
-1.49384	0.650024	
-1.49384	0.646973	
-1.49841	0.650024	
-1.50299	0.648499	
-1.50604	0.650024	
-1.50757	0.648499	
-1.50757	0.650024	
-1.51215	0.65155	
-1.51215	0.650024	
-1.5152	0.650024	
-1.51978	0.65155	
-1.52435	0.650024	
-1.52893	0.65155	
-1.53198	0.645447	
-1.53503	0.65155	
-1.53656	0.648499	
-1.54114	0.648499	
-1.54419	0.650024	
-1.55029	0.65155	
-1.55182	0.650024	
-1.5564	0.650024	
-1.55945	0.65155	
-1.5625	0.648499	
-1.5686	0.646973	
-1.57471	0.646973	
-1.57623	0.65155	
-1.57776	0.643921	
-1.58234	0.653076	
-1.58386	0.650024	
-1.59302	0.65155	
-1.59454	0.650024	
-1.59607	0.653076	
-1.60065	0.648499	
-1.59912	0.650024	
-1.60217	0.650024	
-1.60522	0.653076	
-1.61133	0.645447	
-1.61438	0.650024	
-1.61285	0.65155	
-1.61438	0.65155	
-1.61743	0.646973	
-1.62048	0.653076	
-1.62354	0.648499	
-1.62201	0.645447	
-1.62354	0.650024	
-1.62811	0.653076	
-1.62506	0.648499	
-1.62811	0.65155	
-1.62964	0.65155	
-1.62811	0.648499	
-1.62506	0.650024	
-1.62964	0.653076	
-1.62964	0.648499	
-1.62659	0.648499	
-1.62964	0.65155	
-1.62964	0.648499	
-1.63116	0.645447	
-1.62811	0.65155	
-1.62964	0.65155	
-1.62811	0.653076	
-1.62964	0.650024	
-1.62811	0.654602	
-1.62811	0.648499	
-1.62659	0.650024	
-1.62659	0.648499	
-1.62506	0.648499	
-1.62354	0.650024	
-1.62354	0.65155	
-1.62201	0.653076	
-1.62201	0.65155	
-1.62354	0.650024	
-1.62201	0.650024	
-1.62201	0.648499	
-1.62048	0.648499	
-1.62048	0.65155	
-1.62506	0.65155	
-1.62201	0.653076	
-1.62201	0.653076	
-1.62201	0.654602	
-1.62048	0.650024	
-1.62048	0.65155	
-1.62048	0.65155	
-1.61896	0.648499	
-1.62048	0.646973	
-1.62354	0.645447	
-1.62048	0.650024	
-1.62506	0.646973	
-1.62354	0.650024	
-1.62354	0.648499	
-1.62506	0.650024	
-1.62506	0.650024	
-1.62811	0.653076	
-1.62964	0.648499	
-1.63269	0.646973	
-1.63269	0.65155	
-1.63727	0.653076	
-1.63727	0.648499	
-1.63574	0.648499	
-1.64032	0.650024	
-1.6449	0.65155	
-1.6449	0.650024	
-1.64642	0.650024	
-1.64948	0.648499	
-1.65253	0.650024	
-1.65405	0.646973	
-1.66016	0.650024	
-1.66168	0.650024	
-1.66321	0.650024	
-1.66321	0.65155	
-1.66779	0.650024	
-1.67236	0.65155	
-1.67389	0.650024	
-1.67847	0.650024	
-1.68152	0.650024	
-1.68304	0.646973	
-1.6861	0.650024	
-1.69067	0.648499	
-1.69067	0.648499	
-1.6983	0.648499	
-1.6983	0.648499	
-1.70135	0.650024	
-1.70593	0.65155	
-1.70898	0.646973	
-1.71356	0.648499	
-1.71356	0.648499	
-1.72119	0.65155	
-1.72272	0.648499	
-1.72424	0.650024	
-1.73035	0.646973	
-1.73187	0.653076	
-1.7395	0.650024	
-1.74408	0.648499	
-1.74561	0.650024	
-1.74866	0.65155	
-1.75323	0.648499	
-1.75781	0.650024	
-1.75476	0.648499	
-1.76392	0.65155	
-1.76544	0.646973	
-1.76849	0.648499	
-1.7746	0.650024	
-1.77612	0.648499	
-1.7807	0.643921	
-1.78223	0.65155	
-1.78375	0.648499	
-1.78986	0.648499	
-1.79596	0.648499	
-1.79901	0.653076	
-1.80664	0.648499	
-1.80817	0.650024	
-1.80969	0.65155	
-1.81122	0.648499	
-1.81885	0.65155	
-1.82037	0.65155	
-1.82343	0.648499	
-1.82648	0.65155	
-1.83105	0.648499	
-1.83563	0.650024	
-1.83411	0.646973	
-1.83868	0.648499	
-1.84326	0.650024	
-1.84479	0.648499	
-1.84937	0.648499	
-1.84937	0.656128	
-1.84937	0.650024	
-1.85394	0.648499	
-1.85699	0.65155	
-1.85547	0.650024	
-1.85547	0.645447	
-1.85547	0.648499	
-1.85242	0.65155	
-1.85089	0.648499	
-1.84784	0.646973	
-1.84326	0.650024	
-1.83868	0.650024	
-1.83105	0.646973	
-1.82495	0.648499	
-1.81274	0.650024	
-1.80359	0.646973	
-1.79291	0.650024	
-1.77917	0.648499	
-1.76849	0.650024	
-1.75323	0.65155	
-1.7395	0.653076	
-1.72424	0.650024	
-1.71051	0.648499	
-1.69525	0.646973	
-1.67694	0.648499	
-1.66626	0.645447	
-1.65253	0.646973	
-1.63879	0.650024	
-1.62201	0.648499	
-1.60828	0.650024	
-1.59149	0.653076	
-1.57928	0.650024	
-1.56403	0.648499	
-1.55334	0.648499	
-1.53809	0.648499	
-1.53046	0.645447	
-1.5152	0.646973	
-1.50146	0.650024	
-1.49384	0.648499	
-1.4801	0.648499	
-1.47247	0.650024	
-1.46179	0.650024	
-1.45264	0.650024	
-1.4389	0.65155	
-1.43585	0.65155	
-1.42975	0.646973	
-1.42059	0.648499	
-1.41602	0.650024	
-1.40839	0.650024	
-1.40533	0.646973	
-1.39618	0.65155	
-1.39313	0.65155	
-1.38855	0.648499	
-1.3855	0.648499	
-1.38092	0.648499	
-1.37939	0.646973	
-1.37787	0.646973	
-1.37177	0.650024	
-1.37177	0.650024	
-1.37177	0.648499	
-1.36719	0.650024	
-1.36566	0.648499	
-1.36871	0.646973	
-1.37024	0.648499	
-1.36871	0.650024	
-1.36871	0.648499	
-1.37177	0.648499	
-1.37024	0.650024	
-1.37329	0.65155	
-1.37329	0.648499	
-1.37634	0.65155	
-1.37787	0.648499	
-1.37939	0.650024	
-1.38092	0.648499	
-1.38245	0.65155	
-1.38855	0.646973	
-1.38855	0.646973	
-1.3916	0.65155	
-1.3916	0.648499	
-1.39465	0.645447	
-1.40076	0.650024	
-1.40228	0.650024	
-1.40381	0.648499	
-1.40686	0.648499	
-1.41144	0.648499	
-1.41602	0.650024	
-1.41449	0.648499	
-1.42059	0.653076	
-1.42365	0.648499	
-1.42517	0.65155	
-1.42975	0.65155	
-1.43433	0.648499	
-1.43127	0.643921	
-1.43433	0.65155	
-1.44043	0.65155	
-1.44653	0.648499	
-1.44806	0.650024	
-1.45264	0.646973	
-1.45569	0.65155	
-1.45721	0.650024	
-1.46332	0.648499	
-1.46484	0.648499	
-1.46942	0.648499	
-1.47247	0.650024	
-1.47705	0.650024	
-1.4801	0.65155	
-1.48163	0.650024	
-1.48468	0.653076	
-1.49231	0.650024	
-1.49384	0.650024	
-1.49384	0.648499	
-1.49994	0.650024	
-1.50604	0.650024	
-1.51062	0.650024	
-1.5152	0.650024	
-1.51825	0.65155	
-1.52283	0.650024	
-1.52435	0.650024	
-1.53198	0.650024	
-1.53503	0.648499	
-1.54114	0.645447	
-1.54419	0.653076	
-1.54724	0.650024	
-1.55487	0.65155	
-1.5564	0.646973	
-1.55945	0.650024	
-1.56097	0.646973	
-1.56708	0.650024	
-1.56403	0.648499	
-1.57166	0.646973	
-1.57471	0.645447	
-1.57776	0.648499	
-1.57776	0.645447	
-1.58081	0.648499	
-1.58234	0.650024	
-1.58386	0.65155	
-1.58691	0.648499	
-1.58691	0.650024	
-1.58844	0.648499	
-1.58844	0.648499	
-1.58844	0.642395	
-1.58844	0.646973	
-1.58997	0.646973	
-1.58997	0.650024	
-1.58997	0.650024	
-1.58997	0.654602	
-1.58844	0.645447	
-1.58844	0.65155	
-1.58997	0.650024	
-1.58691	0.650024	
-1.58997	0.643921	
-1.58691	0.648499	
-1.58386	0.645447	
-1.58691	0.646973	
-1.58691	0.648499	
-1.58539	0.653076	
-1.58386	0.645447	
-1.58234	0.648499	
-1.58081	0.650024	
-1.58386	0.654602	
-1.58081	0.643921	
-1.57928	0.650024	
-1.58081	0.646973	
-1.58081	0.648499	
-1.57928	0.646973	
-1.58081	0.65155	
-1.57776	0.646973	
-1.57928	0.650024	
-1.57928	0.650024	
-1.58234	0.645447	
-1.58081	0.643921	
-1.58081	0.650024	
-1.58234	0.648499	
-1.58386	0.646973	
-1.58386	0.648499	
-1.58539	0.654602	
-1.58539	0.646973	
-1.58539	0.65155	
-1.58539	0.648499	
-1.58997	0.650024	
-1.59149	0.643921	
-1.59302	0.650024	
-1.59454	0.645447	
-1.59607	0.646973	
-1.5976	0.645447	
-1.59454	0.653076	
-1.60065	0.650024	
-1.60675	0.650024	
-1.60828	0.648499	
-1.61133	0.650024	
-1.61285	0.645447	
-1.61438	0.648499	
-1.61285	0.648499	
-1.62048	0.648499	
-1.61591	0.650024	
-1.62201	0.656128	
-1.62354	0.650024	
-1.62811	0.65155	
-1.63116	0.648499	
-1.63116	0.650024	
-1.63727	0.643921	
-1.64337	0.648499	
-1.64795	0.646973	
-1.64948	0.65155	
-1.651	0.648499	
-1.65405	0.656128	
-1.65558	0.645447	
-1.66168	0.650024	
-1.66626	0.653076	
-1.66626	0.65155	
-1.67236	0.643921	
-1.67847	0.650024	
-1.68304	0.648499	
-1.68762	0.648499	
-1.68915	0.650024	
-1.6922	0.654602	
-1.69678	0.650024	
-1.69983	0.65155	
-1.70441	0.650024	
-1.71051	0.653076	
-1.71051	0.643921	
-1.71967	0.65155	
-1.71661	0.648499	
-1.72577	0.648499	
-1.73035	0.648499	
-1.73187	0.654602	
-1.73798	0.648499	
-1.74103	0.65155	
-1.74255	0.650024	
-1.74713	0.65155	
-1.75323	0.648499	
-1.75934	0.650024	
-1.75781	0.648499	
-1.76544	0.650024	
-1.76697	0.650024	
-1.77155	0.650024	
-1.77307	0.653076	
-1.77765	0.65155	
-1.78223	0.650024	
-1.78375	0.648499	
-1.78833	0.648499	
-1.79291	0.646973	
-1.79596	0.646973	
-1.80511	0.650024	
-1.80969	0.650024	
-1.80969	0.650024	
-1.81427	0.650024	
-1.81732	0.65155	
-1.8219	0.646973	
-1.82495	0.648499	
-1.828	0.650024	
-1.83563	0.648499	
-1.83868	0.648499	
-1.84021	0.650024	
-1.84326	0.650024	
-1.84631	0.648499	
-1.85242	0.648499	
-1.85699	0.65155	
-1.85852	0.65155	
-1.86005	0.648499	
-1.86615	0.650024	
-1.8692	0.648499	
-1.87378	0.646973	
-1.87683	0.645447	
-1.87683	0.65155	
-1.87683	0.648499	
-1.88141	0.648499	
-1.88446	0.65155	
-1.88446	0.650024	
-1.88446	0.648499	
-1.88446	0.653076	
-1.88141	0.648499	
-1.87836	0.648499	
-1.87683	0.645447	
-1.86768	0.65155	
-1.8631	0.646973	
-1.85547	0.648499	
-1.85242	0.65155	
-1.83868	0.650024	
-1.82648	0.646973	
-1.8158	0.65155	
-1.80054	0.650024	
-1.78833	0.645447	
-1.77155	0.648499	
-1.75934	0.65155	
-1.74255	0.648499	
-1.73187	0.648499	
-1.71204	0.650024	
-1.69678	0.648499	
-1.68304	0.648499	
-1.66321	0.648499	
-1.65253	0.648499	
-1.63574	0.646973	
-1.62048	0.648499	
-1.60217	0.646973	
-1.59149	0.646973	
-1.57623	0.646973	
-1.5625	0.646973	
-1.54877	0.654602	
-1.53503	0.646973	
-1.5213	0.648499	
-1.51367	0.650024	
-1.49994	0.65155	
-1.48773	0.650024	
-1.47858	0.648499	
-1.46942	0.645447	
-1.46027	0.650024	
-1.45264	0.650024	
-1.44196	0.648499	
-1.43433	0.646973	
-1.42975	0.648499	
-1.42059	0.648499	
-1.41754	0.648499	
-1.40991	0.645447	
-1.40686	0.650024	
-1.40381	0.645447	
-1.39923	0.645447	
-1.39618	0.650024	
-1.39465	0.650024	
-1.39313	0.648499	
-1.38855	0.650024	
-1.39008	0.648499	
-1.3855	0.650024	
-1.3855	0.648499	
-1.3855	0.646973	
-1.38702	0.643921	
-1.38702	0.650024	
-1.38245	0.650024	
-1.38855	0.653076	
-1.38855	0.646973	
-1.39008	0.650024	
-1.39313	0.645447	
-1.39313	0.650024	
-1.39618	0.645447	
-1.39771	0.646973	
-1.40533	0.642395	
-1.40381	0.648499	
-1.40991	0.646973	
-1.40991	0.650024	
-1.41449	0.645447	
-1.41602	0.653076	
-1.42059	0.648499	
-1.42212	0.650024	
-1.42822	0.646973	
-1.42975	0.650024	
-1.4328	0.640869	
-1.44043	0.648499	
-1.44043	0.643921	
-1.44501	0.648499	
-1.44806	0.648499	
-1.45416	0.653076	
-1.46027	0.65155	
-1.46179	0.650024	
-1.46484	0.648499	
-1.4679	0.650024	
-1.47247	0.642395	
-1.47552	0.650024	
-1.47858	0.645447	
-1.48163	0.650024	
-1.48773	0.643921	
-1.49078	0.653076	
-1.49384	0.648499	
-1.50299	0.650024	
-1.50299	0.645447	
-1.50909	0.650024	
-1.51367	0.645447	
-1.51825	0.650024	
-1.52283	0.646973	
-1.52893	0.648499	
-1.53351	0.646973	
-1.53809	0.648499	
-1.54114	0.650024	
-1.54266	0.650024	
-1.55029	0.646973	
-1.5564	0.650024	
-1.55792	0.65155	
-1.56403	0.645447	
-1.57318	0.645447	
-1.57776	0.65155	
-1.58234	0.645447	
-1.58691	0.643921	
-1.59302	0.646973	
-1.5976	0.650024	
-1.60065	0.648499	
-1.60675	0.653076	
-1.61438	0.65155	
-1.61896	0.648499	
-1.62354	0.645447	
-1.62659	0.65155	
-1.63269	0.646973	
-1.63422	0.642395	
-1.64032	0.648499	
-1.6449	0.650024	
-1.64795	0.648499	
-1.651	0.648499	
-1.65405	0.653076	
-1.65405	0.650024	
-1.6571	0.646973	
-1.66168	0.648499	
-1.66473	0.645447	
-1.66626	0.642395	
-1.66779	0.645447	
-1.67236	0.648499	
-1.66931	0.648499	
-1.67084	0.648499	
-1.67236	0.650024	
-1.67389	0.650024	
-1.66931	0.646973	
-1.67084	0.650024	
-1.67236	0.646973	
-1.67084	0.648499	
-1.67084	0.646973	
-1.67236	0.646973	
-1.67084	0.646973	
-1.67084	0.65155	
-1.66779	0.653076	
-1.66931	0.65155	
-1.66473	0.646973	
-1.66779	0.646973	
-1.66321	0.648499	
-1.66473	0.645447	
-1.66168	0.645447	
-1.66168	0.650024	
-1.66168	0.648499	
-1.66168	0.648499	
-1.65863	0.65155	
-1.65558	0.65155	
-1.6571	0.648499	
-1.65405	0.650024	
-1.65558	0.650024	
-1.65253	0.646973	
-1.65405	0.645447	
-1.651	0.648499	
-1.651	0.645447	
-1.65253	0.648499	
-1.64795	0.650024	
-1.64948	0.654602	
-1.64948	0.646973	
-1.64948	0.650024	
-1.651	0.650024	
-1.64948	0.646973	
-1.651	0.646973	
-1.651	0.648499	
-1.65253	0.645447	
-1.64948	0.648499	
-1.65253	0.646973	
-1.651	0.653076	
-1.65405	0.645447	
-1.65558	0.648499	
-1.65558	0.645447	
-1.65558	0.650024	
-1.65863	0.645447	
-1.66321	0.646973	
-1.66016	0.643921	
-1.66168	0.650024	
-1.66473	0.650024	
-1.66626	0.646973	
-1.66931	0.646973	
-1.66931	0.650024	
-1.67236	0.650024	
-1.67542	0.648499	
-1.67847	0.646973	
-1.68152	0.650024	
-1.68457	0.648499	
-1.68915	0.646973	
-1.69067	0.648499	
-1.69067	0.648499	
-1.69373	0.645447	
-1.6983	0.65155	
-1.69983	0.648499	
-1.70746	0.650024	
-1.70746	0.646973	
-1.71204	0.646973	
-1.71967	0.650024	
-1.72272	0.648499	
-1.72424	0.646973	
-1.72882	0.646973	
-1.73187	0.646973	
-1.73492	0.650024	
-1.74255	0.650024	
-1.74255	0.650024	
-1.74866	0.646973	
-1.75323	0.648499	
-1.75781	0.645447	
-1.76086	0.645447	
-1.76392	0.648499	
-1.77002	0.648499	
-1.77155	0.65155	
-1.77917	0.648499	
-1.78223	0.650024	
-1.78375	0.648499	
-1.79291	0.648499	
-1.79291	0.645447	
-1.80054	0.643921	
-1.80359	0.645447	
-1.80817	0.648499	
-1.81274	0.650024	
-1.8158	0.650024	
-1.8219	0.648499	
-1.82648	0.650024	
-1.82495	0.645447	
-1.83563	0.645447	
-1.83716	0.646973	
-1.84021	0.645447	
-1.84631	0.645447	
-1.84631	0.648499	
-1.85242	0.648499	
-1.85852	0.65155	
-1.86005	0.65155	
-1.86615	0.653076	
-1.8692	0.648499	
-1.87378	0.643921	
-1.87988	0.645447	
-1.88141	0.645447	
-1.89056	0.643921	
-1.89056	0.646973	
-1.89667	0.650024	
-1.90125	0.654602	
-1.90582	0.648499	
-1.9104	0.65155	
-1.9165	0.648499	
-1.9165	0.643921	
-1.92413	0.645447	
-1.92719	0.645447	
-1.93024	0.646973	
-1.93329	0.646973	
-1.93787	0.648499	
-1.94244	0.650024	
-1.9455	0.650024	
-1.95465	0.653076	
-1.9577	0.648499	
-1.95923	0.648499	
-1.96228	0.643921	
-1.96991	0.648499	
-1.97144	0.643921	
-1.97601	0.646973	
-1.98059	0.650024	
-1.98059	0.650024	
-1.98975	0.65155	
-1.98975	0.650024	
-1.99585	0.648499	
-1.99738	0.645447	
-1.9989	0.645447	
-2.00195	0.642395	
-2.00195	0.643921	
-2.00043	0.643921	
-2.005	0.650024	
-2.00806	0.650024	
-2.00653	0.65155	
-2.00348	0.653076	
-2.00043	0.65155	
-1.99432	0.648499	
-1.99127	0.645447	
-1.98059	0.645447	
-1.97906	0.648499	
-1.96838	0.645447	
-1.95923	0.645447	
-1.9455	0.653076	
-1.93329	0.646973	
-1.9165	0.650024	
-1.90582	0.648499	
-1.88599	0.650024	
-1.87378	0.646973	
-1.85547	0.645447	
-1.84021	0.642395	
-1.82037	0.646973	
-1.80206	0.648499	
-1.7868	0.650024	
-1.77002	0.650024	
-1.75018	0.65155	
-1.73492	0.65155	
-1.71967	0.645447	
-1.69983	0.645447	
-1.68762	0.646973	
-1.67084	0.643921	
-1.65863	0.645447	
-1.64032	0.650024	
-1.62964	0.650024	
-1.61285	0.650024	
-1.60065	0.654602	
-1.58844	0.650024	
-1.57623	0.648499	
-1.56708	0.646973	
-1.5564	0.645447	
-1.54877	0.645447	
-1.53961	0.645447	
-1.53046	0.650024	
-1.51978	0.650024	
-1.51367	0.650024	
-1.50604	0.650024	
-1.50146	0.65155	
-1.49384	0.648499	
-1.49078	0.648499	
-1.48621	0.646973	
-1.4801	0.645447	
-1.47858	0.645447	
-1.474	0.65155	
-1.47095	0.653076	
-1.47247	0.653076	
-1.47247	0.657654	
-1.4679	0.653076	
-1.46942	0.650024	
-1.47095	0.646973	
-1.46637	0.650024	
-1.46942	0.650024	
-1.4679	0.648499	
-1.46942	0.65155	
-1.47095	0.65155	
-1.47095	0.65155	
-1.474	0.656128	
-1.47705	0.654602	
-1.47858	0.65155	
-1.48315	0.646973	
-1.48315	0.65155	
-1.48773	0.650024	
-1.48773	0.650024	
-1.49384	0.650024	
-1.49689	0.653076	
-1.50146	0.654602	
-1.50452	0.654602	
-1.50604	0.654602	
-1.51215	0.653076	
-1.51825	0.650024	
-1.51978	0.648499	
-1.5213	0.650024	
-1.53046	0.646973	
-1.53656	0.646973	
-1.53961	0.65155	
-1.54266	0.650024	
-1.55029	0.650024	
-1.55029	0.65155	
-1.5564	0.648499	
-1.55945	0.648499	
-1.56708	0.650024	
-1.57166	0.648499	
-1.57318	0.645447	
-1.57928	0.650024	
-1.58539	0.646973	
-1.58539	0.65155	
-1.59454	0.653076	
-1.60217	0.65155	
-1.60217	0.650024	
-1.61285	0.646973	
-1.61591	0.65155	
-1.62354	0.648499	
-1.62659	0.65155	
-1.63269	0.650024	
-1.64032	0.650024	
-1.6449	0.650024	
-1.65253	0.65155	
-1.6571	0.65155	
-1.66473	0.65155	
-1.67084	0.650024	
-1.67389	0.646973	
-1.68304	0.650024	
-1.6861	0.648499	
-1.6922	0.648499	
-1.69678	0.648499	
-1.69983	0.65155	
-1.71051	0.654602	
-1.71509	0.650024	
-1.72272	0.648499	
-1.72424	0.653076	
-1.72882	0.648499	
-1.73645	0.646973	
-1.74255	0.646973	
-1.74255	0.648499	
-1.74866	0.645447	
-1.75476	0.65155	
-1.76086	0.648499	
-1.76239	0.650024	
-1.76544	0.648499	
-1.77002	0.65155	
-1.77307	0.648499	
-1.7746	0.646973	
-1.7807	0.648499	
-1.77917	0.645447	
-1.78223	0.643921	
-1.78375	0.648499	
-1.78528	0.650024	
-1.78833	0.650024	
-1.7868	0.648499	
-1.78833	0.65155	
-1.7868	0.646973	
-1.7868	0.645447	
-1.78986	0.646973	
-1.78986	0.650024	
-1.7868	0.639343	
-1.7868	0.646973	
-1.7868	0.648499	
-1.78528	0.650024	
-1.78528	0.646973	
-1.78375	0.654602	
-1.7807	0.646973	
-1.77917	0.648499	
-1.77765	0.645447	
-1.7746	0.650024	
-1.7746	0.640869	
-1.77002	0.648499	
-1.77002	0.65155	
-1.77002	0.648499	
-1.77002	0.645447	
-1.76697	0.656128	
-1.76392	0.65155	
-1.76086	0.65155	
-1.76086	0.650024	
-1.75934	0.648499	
-1.75171	0.639343	
-1.75323	0.650024	
-1.75323	0.648499	
-1.75323	0.65155	
-1.75171	0.650024	
-1.75171	0.65918	
-1.74866	0.646973	
-1.74866	0.646973	
-1.75018	0.646973	
-1.75171	0.648499	
-1.74713	0.642395	
-1.74713	0.648499	
-1.75018	0.646973	
-1.75018	0.648499	
-1.75171	0.648499	
-1.75323	0.657654	
-1.75171	0.648499	
-1.75323	0.650024	
-1.75781	0.648499	
-1.75934	0.648499	
-1.75781	0.639343	
-1.75476	0.648499	
-1.76086	0.646973	
-1.76544	0.650024	
-1.76544	0.646973	
-1.76544	0.656128	
-1.77002	0.646973	
-1.77002	0.646973	
-1.77155	0.648499	
-1.7746	0.648499	
-1.77612	0.640869	
-1.77917	0.648499	
-1.78375	0.646973	
-1.78528	0.642395	
-1.78986	0.648499	
-1.79596	0.657654	
-1.79749	0.650024	
-1.80054	0.648499	
-1.80511	0.650024	
-1.80969	0.646973	
-1.81274	0.640869	
-1.8158	0.645447	
-1.81885	0.650024	
-1.82495	0.645447	
-1.82495	0.643921	
-1.82953	0.656128	
-1.83411	0.648499	
-1.83563	0.648499	
-1.84174	0.645447	
-1.84784	0.650024	
-1.84937	0.643921	
-1.85394	0.645447	
-1.85699	0.645447	
-1.86157	0.648499	
-1.8692	0.646973	
-1.8692	0.653076	
-1.87378	0.646973	
-1.87836	0.650024	
-1.87988	0.645447	
-1.88599	0.650024	
-1.89056	0.645447	
-1.89362	0.65155	
-1.89972	0.645447	
-1.89972	0.648499	
-1.9043	0.646973	
-1.9104	0.65155	
-1.91498	0.645447	
-1.91803	0.646973	
-1.92413	0.648499	
-1.92566	0.648499	
-1.92871	0.642395	
-1.93329	0.650024	
-1.93787	0.646973	
-1.94092	0.650024	
-1.9455	0.650024	
-1.95007	0.650024	
-1.95465	0.645447	
-1.9577	0.653076	
-1.96228	0.648499	
-1.96381	0.650024	
-1.96991	0.645447	
-1.97296	0.650024	
-1.97449	0.648499	
-1.97906	0.648499	
-1.98364	0.648499	
-1.98669	0.65155	
-1.9928	0.646973	
-1.99738	0.650024	
-1.99738	0.648499	
-2.005	0.648499	
-2.005	0.646973	
-2.00653	0.65155	
-2.01263	0.648499	
-2.01874	0.646973	
-2.02026	0.648499	
-2.02637	0.650024	
-2.03247	0.648499	
-2.03094	0.650024	
-2.03705	0.648499	
-2.0401	0.648499	
-2.04315	0.646973	
-2.05078	0.65155	
-2.05078	0.648499	
-2.05383	0.648499	
-2.05841	0.648499	
-2.06451	0.646973	
-2.06604	0.646973	
-2.07367	0.65155	
-2.07672	0.650024	
-2.07825	0.650024	
-2.08435	0.650024	
-2.08893	0.65155	
-2.09045	0.648499	
-2.09351	0.648499	
-2.09808	0.650024	
-2.09808	0.640869	
-2.10571	0.643921	
-2.10876	0.650024	
-2.11334	0.648499	
-2.11639	0.650024	
-2.11487	0.653076	
-2.11792	0.653076	
-2.12097	0.65155	
-2.12402	0.648499	
-2.12402	0.648499	
-2.12402	0.642395	
-2.12402	0.645447	
-2.12402	0.648499	
-2.11945	0.65155	
-2.11792	0.648499	
-2.11487	0.656128	
-2.10876	0.650024	
-2.10571	0.645447	
-2.09503	0.648499	
-2.08588	0.648499	
-2.07825	0.639343	
-2.06604	0.648499	
-2.05231	0.650024	
-2.03705	0.646973	
-2.02179	0.648499	
-2.00195	0.654602	
-1.98364	0.653076	
-1.96381	0.65155	
-1.9455	0.650024	
-1.92261	0.650024	
-1.90582	0.642395	
-1.88751	0.646973	
-1.86768	0.646973	
-1.84479	0.646973	
-1.82648	0.645447	
-1.80664	0.656128	
-1.78833	0.650024	
-1.77155	0.646973	
-1.74866	0.65155	
-1.73645	0.65155	
-1.72119	0.640869	
-1.70441	0.646973	
-1.68915	0.650024	
-1.67542	0.648499	
-1.66016	0.646973	
-1.65405	0.657654	
-1.63574	0.65155	
-1.62659	0.646973	
-1.61591	0.646973	
-1.60675	0.648499	
-1.59607	0.643921	
-1.58539	0.648499	
-1.57776	0.650024	
-1.57166	0.648499	
-1.56097	0.648499	
-1.55792	0.656128	
-1.54877	0.648499	
-1.54724	0.65155	
-1.54114	0.648499	
-1.53351	0.648499	
-1.53198	0.646973	
-1.52893	0.646973	
-1.52893	0.650024	
-1.52435	0.65155	
-1.5213	0.650024	
-1.52283	0.653076	
-1.52283	0.650024	
-1.52435	0.648499	
-1.52435	0.648499	
-1.52435	0.653076	
-1.52588	0.645447	
-1.52435	0.645447	
-1.52893	0.650024	
-1.52893	0.653076	
-1.53198	0.645447	
-1.53351	0.65155	
-1.53961	0.650024	
-1.53961	0.650024	
-1.54266	0.648499	
-1.54572	0.650024	
-1.55029	0.648499	
-1.55487	0.646973	
-1.5564	0.65155	
-1.56097	0.65155	
-1.56708	0.646973	
-1.57166	0.648499	
-1.57623	0.65155	
-1.57928	0.648499	
-1.58539	0.65155	
-1.58691	0.65155	
-1.59302	0.65155	
-1.59607	0.646973	
-1.60217	0.650024	
-1.60828	0.646973	
-1.61438	0.646973	
-1.61743	0.648499	
-1.62201	0.653076	
-1.62506	0.648499	
-1.63422	0.648499	
-1.63879	0.65155	
-1.6449	0.650024	
-1.65253	0.645447	
-1.65558	0.650024	
-1.66168	0.648499	
-1.66779	0.645447	
-1.67542	0.645447	
-1.68152	0.650024	
-1.69067	0.646973	
-1.69678	0.646973	
-1.70135	0.65155	
-1.70898	0.648499	
-1.71967	0.650024	
-1.72424	0.650024	
-1.73035	0.650024	
-1.7395	0.650024	
-1.74713	0.65155	
-1.75323	0.650024	
-1.76086	0.648499	
-1.77002	0.648499	
-1.77612	0.648499	
-1.78528	0.646973	
-1.79291	0.646973	
-1.79901	0.648499	
-1.80511	0.65155	
-1.81122	0.648499	
-1.81885	0.65155	
-1.82495	0.653076	
-1.82953	0.646973	
-1.83563	0.648499	
-1.84174	0.65155	
-1.84784	0.648499	
-1.85547	0.648499	
-1.86005	0.650024	
-1.86462	0.65155	
-1.8692	0.648499	
-1.87225	0.65155	
-1.87683	0.648499	
-1.88141	0.648499	
-1.88446	0.650024	
-1.88446	0.65155	
-1.89056	0.646973	
-1.89209	0.650024	
-1.89667	0.65155	
-1.89514	0.65155	
-1.89972	0.646973	
-1.89972	0.65155	
-1.89972	0.650024	
-1.89972	0.648499	
-1.89819	0.650024	
-1.90125	0.650024	
-1.90277	0.648499	
-1.89819	0.65155	
-1.90125	0.653076	
-1.90125	0.653076	
-1.90125	0.648499	
-1.89972	0.65155	
-1.89972	0.650024	
-1.89514	0.650024	
-1.89667	0.650024	
-1.89514	0.648499	
-1.89209	0.650024	
-1.89056	0.648499	
-1.88904	0.648499	
-1.88599	0.653076	
-1.88446	0.65155	
-1.88293	0.650024	
-1.88293	0.653076	
-1.87988	0.65155	
-1.87683	0.648499	
-1.87836	0.648499	
-1.87378	0.653076	
-1.87225	0.650024	
-1.87531	0.648499	
-1.86768	0.65155	
-1.86615	0.654602	
-1.8692	0.65155	
-1.86768	0.648499	
-1.86462	0.648499	
-1.86615	0.65155	
-1.86615	0.648499	
-1.86768	0.65155	
-1.86615	0.650024	
-1.86768	0.65155	
-1.86768	0.648499	
-1.87225	0.65155	
-1.87225	0.65155	
-1.87225	0.65155	
-1.87225	0.646973	
-1.8692	0.650024	
-1.87225	0.648499	
-1.87378	0.648499	
-1.87683	0.648499	
-1.87378	0.648499	
-1.87378	0.646973	
-1.87683	0.650024	
-1.87988	0.648499	
-1.87836	0.650024	
-1.88446	0.648499	
-1.88599	0.648499	
-1.88599	0.648499	
-1.88751	0.650024	
-1.89362	0.645447	
-1.89667	0.650024	
-1.89819	0.650024	
-1.90125	0.648499	
-1.90277	0.648499	
-1.90735	0.653076	
-1.91193	0.648499	
-1.91345	0.65155	
-1.91803	0.648499	
-1.92261	0.650024	
-1.92261	0.646973	
-1.92871	0.648499	
-1.93176	0.650024	
-1.93634	0.650024	
-1.93634	0.650024	
-1.94092	0.65155	
-1.94397	0.648499	
-1.95313	0.648499	
-1.9516	0.648499	
-1.96075	0.65155	
-1.96075	0.650024	
-1.96533	0.65155	
-1.96991	0.65155	
-1.97296	0.650024	
-1.97601	0.653076	
-1.98059	0.648499	
-1.98669	0.650024	
-1.99127	0.650024	
-1.99738	0.653076	
-1.99738	0.650024	
-2.00195	0.646973	
-2.00653	0.650024	
-2.01263	0.65155	
-2.01721	0.653076	
-2.01874	0.650024	
-2.02026	0.65155	
-2.02942	0.653076	
-2.034	0.650024	
-2.03705	0.650024	
-2.0401	0.650024	
-2.04315	0.646973	
-2.05078	0.648499	
-2.05383	0.65155	
-2.05841	0.650024	
-2.06451	0.650024	
-2.06451	0.646973	
-2.07367	0.648499	
-2.0752	0.648499	
-2.07977	0.65155	
-2.08282	0.648499	
-2.08588	0.650024	
-2.09045	0.65155	
-2.09656	0.650024	
-2.09656	0.648499	
-2.10266	0.65155	
-2.10724	0.65155	
-2.11182	0.650024	
-2.11487	0.650024	
-2.11792	0.645447	
-2.12097	0.650024	
-2.12402	0.650024	
-2.1286	0.653076	
-2.13318	0.65155	
-2.1347	0.650024	
-2.14081	0.650024	
-2.14386	0.646973	
-2.14691	0.648499	
-2.15302	0.648499	
-2.15759	0.65155	
-2.16064	0.648499	
-2.1637	0.650024	
-2.16522	0.646973	
-2.16827	0.646973	
-2.1698	0.650024	
-2.17896	0.650024	
-2.18201	0.646973	
-2.18658	0.648499	
-2.18658	0.648499	
-2.19116	0.650024	
-2.19421	0.650024	
-2.19879	0.650024	
-2.19879	0.65155	
-2.2049	0.648499	
-2.20795	0.646973	
-2.20947	0.648499	
-2.21558	0.648499	
-2.21863	0.646973	
-2.21863	0.646973	
-2.22473	0.65155	
-2.22931	0.65155	
-2.22931	0.648499	
-2.23541	0.645447	
-2.23541	0.650024	
-2.24304	0.650024	
-2.24457	0.648499	
-2.24609	0.646973	
-2.24915	0.648499	
-2.25372	0.65155	
-2.25525	0.65155	
-2.2583	0.650024	
-2.26288	0.648499	
-2.2644	0.645447	
-2.2644	0.648499	
-2.26593	0.648499	
-2.26593	0.650024	
-2.26593	0.650024	
-2.26593	0.650024	
-2.2644	0.648499	
-2.2583	0.65155	
-2.25677	0.650024	
-2.25067	0.650024	
-2.24457	0.648499	
-2.23389	0.648499	
-2.22626	0.648499	
-2.2171	0.65155	
-2.20184	0.646973	
-2.18811	0.653076	
-2.17133	0.650024	
-2.15454	0.653076	
-2.13928	0.650024	
-2.11792	0.65155	
-2.09656	0.650024	
-2.07977	0.648499	
-2.05841	0.650024	
-2.03857	0.65155	
-2.01569	0.648499	
-1.9928	0.650024	
-1.97144	0.650024	
-1.95313	0.650024	
-1.93176	0.650024	
-1.91193	0.650024	
-1.89209	0.650024	
-1.87225	0.65155	
-1.85089	0.648499	
-1.83716	0.65155	
-1.81885	0.650024	
-1.80511	0.648499	
-1.7868	0.65155	
-1.77002	0.65155	
-1.75934	0.650024	
-1.74103	0.65155	
-1.73035	0.648499	
-1.71967	0.650024	
-1.70746	0.650024	
-1.69525	0.648499	
-1.6861	0.648499	
-1.67694	0.650024	
-1.66473	0.650024	
-1.66016	0.65155	
-1.65253	0.648499	
-1.64642	0.650024	
-1.63727	0.648499	
-1.63422	0.648499	
-1.62659	0.65155	
-1.62354	0.65155	
-1.62354	0.650024	
-1.62048	0.650024	
-1.61743	0.650024	
-1.61896	0.654602	
-1.61591	0.650024	
-1.61285	0.65155	
-1.61285	0.650024	
-1.61285	0.650024	
-1.61285	0.65155	
-1.61285	0.650024	
-1.61438	0.650024	
-1.61591	0.645447	
-1.61743	0.650024	
-1.62201	0.648499	
-1.62201	0.653076	
-1.62354	0.648499	
-1.62811	0.648499	
-1.63116	0.650024	
-1.63269	0.65155	
-1.63727	0.646973	
-1.6449	0.650024	
-1.64795	0.646973	
-1.651	0.65155	
-1.65863	0.650024	
-1.66016	0.646973	
-1.66473	0.650024	
-1.67084	0.648499	
-1.67694	0.650024	
-1.68152	0.650024	
-1.6861	0.65155	
-1.69067	0.65155	
-1.69678	0.65155	
-1.70288	0.65155	
-1.70593	0.648499	
-1.71051	0.65155	
-1.71967	0.65155	
-1.72729	0.648499	
-1.72882	0.648499	
-1.7334	0.65155	
-1.73798	0.650024	
-1.74561	0.646973	
-1.74713	0.646973	
-1.75476	0.653076	
-1.76239	0.65155	
-1.76392	0.648499	
-1.77002	0.65155	
-1.77307	0.656128	
-1.7807	0.650024	
-1.78375	0.65155	
-1.79138	0.65155	
-1.79901	0.648499	
-1.80359	0.643921	
-1.80664	0.648499	
-1.81427	0.65155	
-1.8219	0.65155	
-1.82495	0.653076	
-1.83105	0.657654	
-1.83868	0.653076	
-1.84631	0.650024	
-1.85242	0.650024	
-1.85547	0.650024	
-1.86005	0.645447	
-1.86615	0.650024	
-1.87225	0.646973	
-1.87683	0.650024	
-1.87988	0.650024	
-1.88599	0.656128	
-1.89514	0.65155	
-1.89514	0.653076	
-1.90277	0.648499	
-1.90735	0.65155	
-1.9104	0.646973	
-1.9165	0.648499	
-1.91956	0.646973	
-1.92413	0.65155	
-1.92566	0.65155	
-1.93176	0.653076	
-1.93176	0.648499	
-1.93634	0.65155	
-1.93939	0.648499	
-1.94092	0.650024	
-1.94855	0.645447	
-1.94855	0.648499	
-1.94855	0.643921	
-1.95313	0.650024	
-1.9516	0.650024	
-1.95465	0.65155	
-1.95465	0.650024	
-1.95618	0.65155	
-1.9577	0.65155	
-1.95465	0.648499	
-1.9577	0.646973	
-1.95618	0.650024	
-1.95465	0.646973	
-1.95465	0.646973	
-1.95313	0.648499	
-1.95313	0.65155	
-1.9516	0.650024	
-1.95313	0.653076	
-1.9516	0.646973	
-1.94244	0.650024	
-1.94855	0.650024	
-1.94244	0.646973	
-1.94092	0.645447	
-1.93939	0.650024	
-1.93787	0.648499	
-1.93481	0.646973	
-1.93481	0.65155	
-1.93481	0.65155	
-1.93024	0.650024	
-1.92871	0.650024	
-1.92719	0.650024	
-1.92566	0.650024	
-1.92261	0.646973	
-1.92108	0.648499	
-1.92108	0.65155	
-1.92108	0.646973	
-1.92108	0.65155	
-1.9165	0.65155	
-1.91956	0.648499	
-1.91498	0.65155	
-1.9165	0.65155	
-1.91193	0.648499	
-1.9165	0.648499	
-1.91345	0.650024	
-1.91345	0.650024	
-1.91498	0.646973	
-1.91498	0.653076	
-1.91803	0.653076	
-1.91345	0.650024	
-1.91498	0.650024	
-1.91803	0.653076	
-1.92108	0.646973	
-1.91956	0.643921	
-1.92108	0.65155	
-1.92108	0.650024	
-1.92566	0.646973	
-1.92413	0.650024	
-1.93024	0.653076	
-1.93024	0.648499	
-1.93176	0.65155	
-1.93481	0.653076	
-1.93634	0.648499	
-1.93939	0.646973	
-1.94244	0.648499	
-1.9455	0.650024	
-1.9516	0.645447	
-1.95465	0.648499	
-1.9577	0.65155	
-1.9577	0.646973	
-1.96381	0.650024	
-1.96533	0.653076	
-1.96838	0.65155	
-1.97144	0.646973	
-1.97449	0.648499	
-1.97906	0.650024	
-1.98212	0.645447	
-1.98822	0.646973	
-1.98975	0.650024	
-1.99432	0.650024	
-1.99738	0.650024	
-1.9989	0.653076	
-2.00348	0.650024	
-2.00806	0.646973	
-2.01416	0.648499	
-2.01416	0.648499	
-2.01874	0.646973	
-2.02179	0.65155	
-2.03094	0.650024	
-2.03247	0.648499	
-2.034	0.65155	
-2.04163	0.650024	
-2.04468	0.650024	
-2.05078	0.648499	
-2.05383	0.650024	
-2.05536	0.648499	
-2.05841	0.65155	
-2.05994	0.650024	
-2.06909	0.65155	
-2.07367	0.648499	
-2.0752	0.650024	
-2.07825	0.650024	
-2.08282	0.648499	
-2.08893	0.646973	
-2.09198	0.648499	
-2.09503	0.646973	
-2.10266	0.646973	
-2.10571	0.648499	
-2.10724	0.650024	
-2.11334	0.650024	
-2.11639	0.648499	
-2.1225	0.648499	
-2.12555	0.650024	
-2.1286	0.648499	
-2.13165	0.65155	
-2.1347	0.648499	
-2.14081	0.65155	
-2.14233	0.648499	
-2.14539	0.650024	
-2.15149	0.650024	
-2.15607	0.650024	
-2.15912	0.646973	
-2.16217	0.65155	
-2.16827	0.65155	
-2.16675	0.65155	
-2.17285	0.648499	
-2.17438	0.648499	
-2.17896	0.65155	
-2.18353	0.65155	
-2.18658	0.65155	
-2.19116	0.65155	
-2.19574	0.650024	
-2.19421	0.65155	
-2.20184	0.653076	
-2.2049	0.65155	
-2.20947	0.65155	
-2.20947	0.648499	
-2.21558	0.648499	
-2.22015	0.648499	
-2.22015	0.648499	
-2.22626	0.646973	
-2.23083	0.650024	
-2.23083	0.650024	
-2.23694	0.65155	
-2.23999	0.65155	
-2.24152	0.650024	
-2.24304	0.65155	
-2.24609	0.648499	
-2.25067	0.650024	
-2.25372	0.646973	
-2.25525	0.650024	
-2.2583	0.646973	
-2.25983	0.65155	
-2.2583	0.65155	
-2.26135	0.650024	
-2.25677	0.648499	
-2.25983	0.648499	
-2.25372	0.648499	
-2.25372	0.645447	
-2.24915	0.650024	
-2.24152	0.65155	
-2.23846	0.650024	
-2.22473	0.646973	
-2.22015	0.653076	
-2.20795	0.650024	
-2.19574	0.65155	
-2.17896	0.65155	
-2.16217	0.65155	
-2.14996	0.648499	
-2.13165	0.646973	
-2.11487	0.650024	
-2.09656	0.650024	
-2.0752	0.646973	
-2.05536	0.653076	
-2.03552	0.648499	
-2.01569	0.650024	
-1.99432	0.65155	
-1.97296	0.65155	
-1.95313	0.645447	
-1.93329	0.650024	
-1.91345	0.648499	
-1.89667	0.648499	
-1.87683	0.653076	
-1.85852	0.656128	
-1.84326	0.650024	
-1.82648	0.648499	
-1.80664	0.650024	
-1.79291	0.650024	
-1.78223	0.646973	
-1.77002	0.650024	
-1.75323	0.650024	
-1.74255	0.65155	
-1.7334	0.648499	
-1.71967	0.653076	
-1.71204	0.65155	
-1.70135	0.650024	
-1.69067	0.650024	
-1.68762	0.646973	
-1.67694	0.648499	
-1.67084	0.650024	
-1.66626	0.646973	
-1.65863	0.65155	
-1.65558	0.65155	
-1.651	0.65155	
-1.64948	0.648499	
-1.64337	0.646973	
-1.64337	0.648499	
-1.64032	0.650024	
-1.63727	0.646973	
-1.63879	0.648499	
-1.63727	0.650024	
-1.63727	0.65155	
-1.63879	0.648499	
-1.63422	0.654602	
-1.64032	0.653076	
-1.64032	0.650024	
-1.6449	0.650024	
-1.6449	0.648499	
-1.64795	0.646973	
-1.64948	0.650024	
-1.65405	0.650024	
-1.65863	0.648499	
-1.6571	0.648499	
-1.65863	0.653076	
-1.66473	0.65155	
-1.66626	0.646973	
-1.66779	0.65155	
-1.67389	0.650024	
-1.68152	0.650024	
-1.6861	0.648499	
-1.68762	0.650024	
-1.6922	0.650024	
-1.69525	0.65155	
-1.70135	0.65155	
-1.70746	0.650024	
-1.71051	0.650024	
-1.71967	0.650024	
-1.72119	0.650024	
-1.72577	0.648499	
-1.72882	0.648499	
-1.73492	0.650024	
-1.74103	0.653076	
-1.74408	0.65155	
-1.75018	0.65155	
-1.75476	0.650024	
-1.76086	0.646973	
-1.77002	0.65155	
-1.7746	0.648499	
-1.77917	0.653076	
-1.78375	0.65155	
-1.78986	0.65155	
-1.79596	0.65155	
-1.80511	0.650024	
-1.80969	0.648499	
-1.81427	0.653076	
-1.8219	0.648499	
-1.828	0.65155	
-1.83411	0.65155	
-1.84326	0.650024	
-1.84784	0.653076	
-1.85242	0.650024	
-1.85852	0.650024	
-1.86768	0.650024	
-1.87378	0.650024	
-1.87683	0.65155	
-1.88599	0.648499	
-1.89056	0.650024	
-1.89819	0.646973	
-1.90277	0.654602	
-1.9104	0.648499	
-1.91803	0.648499	
-1.92108	0.648499	
-1.92566	0.650024	
-1.93329	0.648499	
-1.93787	0.65155	
-1.94092	0.648499	
-1.9455	0.646973	
-1.95313	0.650024	
-1.95923	0.65155	
-1.96075	0.65155	
-1.96381	0.648499	
-1.96991	0.648499	
-1.96991	0.648499	
-1.97449	0.648499	
-1.97906	0.650024	
-1.98212	0.648499	
-1.98822	0.648499	
-1.98364	0.648499	
-1.98975	0.654602	
-1.99127	0.645447	
-1.99585	0.65155	
-1.99738	0.65155	
-1.99432	0.653076	
-1.99585	0.646973	
-1.9989	0.65155	
-1.99738	0.646973	
-2.00043	0.650024	
-1.9989	0.646973	
-1.99738	0.653076	
-1.9989	0.648499	
-1.9989	0.650024	
-1.99432	0.650024	
-1.99585	0.65155	
-1.99585	0.646973	
-1.99127	0.650024	
-1.9928	0.648499	
-1.9928	0.648499	
-1.98822	0.648499	
-1.98822	0.654602	
-1.98669	0.645447	
-1.98364	0.65155	
-1.97906	0.65155	
-1.98059	0.65155	
-1.97449	0.643921	
-1.97601	0.654602	
-1.97449	0.645447	
-1.97449	0.643921	
-1.96991	0.65155	
-1.96991	0.653076	
-1.96838	0.648499	
-1.96838	0.65155	
-1.96686	0.648499	
-1.96686	0.65155	
-1.96686	0.646973	
-1.96838	0.65155	
-1.96686	0.646973	
-1.96533	0.650024	
-1.96381	0.645447	
-1.96381	0.654602	
-1.96533	0.645447	
-1.96381	0.653076	
-1.96381	0.650024	
-1.96381	0.654602	
-1.96686	0.643921	
-1.96533	0.653076	
-1.96533	0.648499	
-1.96838	0.646973	
-1.96838	0.650024	
-1.96533	0.653076	
-1.97144	0.648499	
-1.96838	0.650024	
-1.97296	0.648499	
-1.97296	0.65155	
-1.97449	0.646973	
-1.97754	0.648499	
-1.97754	0.645447	
-1.97906	0.650024	
-1.98212	0.65155	
-1.98364	0.657654	
-1.98364	0.648499	
-1.98975	0.65155	
-1.99127	0.653076	
-1.99432	0.650024	
-2.00195	0.645447	
-2.00043	0.648499	
-2.00348	0.650024	
-2.005	0.648499	
-2.00806	0.648499	
-2.01111	0.657654	
-2.01111	0.650024	
-2.01721	0.653076	
-2.02026	0.650024	
-2.02179	0.65155	
-2.02179	0.645447	
-2.03094	0.648499	
-2.03094	0.646973	
-2.03705	0.648499	
-2.03857	0.648499	
-2.04315	0.653076	
-2.0462	0.646973	
-2.04773	0.65155	
-2.05231	0.648499	
-2.05688	0.648499	
-2.05994	0.642395	
-2.06451	0.65155	
-2.06909	0.646973	
-2.06909	0.648499	
-2.0752	0.650024	
-2.07977	0.653076	
-2.08282	0.646973	
-2.08435	0.653076	
-2.08893	0.648499	
-2.09503	0.650024	
-2.10114	0.645447	
-2.10419	0.648499	
-2.10724	0.646973	
-2.11029	0.645447	
-2.11334	0.650024	
-2.12097	0.654602	
-2.12402	0.650024	
-2.12402	0.65155	
-2.1286	0.648499	
-2.1347	0.648499	
-2.13928	0.648499	
-2.14081	0.648499	
-2.14539	0.643921	
-2.15149	0.648499	
-2.15302	0.650024	
-2.15912	0.653076	
-2.16064	0.648499	
-2.16522	0.653076	
-2.1698	0.648499	
-2.17285	0.648499	
-2.18048	0.648499	
-2.18353	0.650024	
-2.18506	0.650024	
-2.19269	0.65155	
-2.19421	0.648499	
-2.19879	0.65155	
-2.20337	0.648499	
-2.2049	0.65155	
-2.20795	0.65155	
-2.2171	0.646973	
-2.22015	0.650024	
-2.22473	0.650024	
-2.22626	0.65155	
-2.23083	0.646973	
-2.23541	0.65155	
-2.23846	0.650024	
-2.24304	0.650024	
-2.24457	0.648499	
-2.24762	0.650024	
-2.24915	0.648499	
-2.25525	0.650024	
-2.2583	0.650024	
-2.25983	0.646973	
-2.2583	0.646973	
-2.26135	0.650024	
-2.26288	0.646973	
-2.26288	0.646973	
-2.26135	0.653076	
-2.25677	0.65155	
-2.25525	0.646973	
-2.25372	0.650024	
-2.24457	0.648499	
-2.23694	0.65155	
-2.22931	0.646973	
-2.22015	0.650024	
-2.20642	0.65155	
-2.19269	0.65155	
-2.17743	0.648499	
-2.15912	0.65155	
-2.14539	0.646973	
-2.12555	0.65155	
-2.10571	0.650024	
-2.08282	0.645447	
-2.06299	0.648499	
-2.04163	0.650024	
-2.01874	0.645447	
-1.99432	0.646973	
-1.97449	0.648499	
-1.95007	0.648499	
-1.93024	0.650024	
-1.90582	0.650024	
-1.88751	0.645447	
-1.86768	0.650024	
-1.84631	0.648499	
-1.82953	0.650024	
-1.81122	0.648499	
-1.79596	0.646973	
-1.77612	0.648499	
-1.76086	0.650024	
-1.74255	0.648499	
-1.72882	0.650024	
-1.71661	0.650024	
-1.70135	0.654602	
-1.6922	0.648499	
-1.68152	0.653076	
-1.66779	0.645447	
-1.65863	0.65155	
-1.65253	0.650024	
-1.63879	0.650024	
-1.63422	0.646973	
-1.62506	0.653076	
-1.61743	0.648499	
-1.61133	0.648499	
-1.60675	0.648499	
-1.60675	0.648499	
-1.60065	0.646973	
-1.5976	0.650024	
-1.59149	0.648499	
-1.58997	0.648499	
-1.58844	0.653076	
-1.58691	0.656128	
-1.58691	0.648499	
-1.58539	0.65155	
-1.58539	0.648499	
-1.58386	0.650024	
-1.58386	0.645447	
-1.58691	0.650024	
-1.58844	0.650024	
-1.58539	0.65155	
-1.59149	0.650024	
-1.59454	0.656128	
-1.59454	0.65155	
-1.5976	0.650024	
-1.60065	0.648499	
-1.60675	0.650024	
-1.60828	0.645447	
-1.61133	0.650024	
-1.61591	0.648499	
-1.61743	0.65155	
-1.62048	0.648499	
-1.62506	0.654602	
-1.62659	0.646973	
-1.63116	0.648499	
-1.63879	0.650024	
-1.64032	0.650024	
-1.64642	0.643921	
-1.651	0.646973	
-1.65558	0.646973	
-1.66016	0.650024	
-1.66931	0.648499	
-1.66779	0.65155	
-1.67542	0.648499	
-1.68304	0.648499	
-1.6861	0.646973	
-1.6922	0.648499	
-1.6983	0.646973	
-1.70288	0.645447	
-1.70593	0.646973	
-1.71204	0.648499	
-1.72119	0.648499	
-1.72119	0.653076	
-1.72729	0.650024	
-1.7334	0.65155	
-1.73645	0.646973	
-1.74408	0.650024	
-1.75018	0.653076	
-1.75476	0.648499	
-1.76392	0.650024	
-1.77002	0.648499	
-1.77307	0.648499	
-1.7807	0.646973	
-1.78528	0.650024	
-1.79138	0.65155	
-1.79749	0.65155	
-1.80359	0.648499	
-1.80969	0.65155	
-1.81427	0.650024	
-1.8219	0.648499	
-1.82343	0.648499	
-1.83105	0.650024	
-1.83868	0.648499	
-1.84631	0.648499	
-1.84937	0.650024	
-1.85699	0.646973	
-1.85852	0.65155	
-1.86462	0.654602	
-1.8692	0.648499	
-1.87531	0.646973	
-1.87683	0.65155	
-1.88293	0.650024	
-1.88446	0.643921	
-1.88904	0.645447	
-1.89056	0.65155	
-1.89667	0.646973	
-1.89819	0.646973	
-1.90277	0.65155	
-1.90735	0.650024	
-1.90582	0.648499	
-1.91193	0.650024	
-1.91193	0.650024	
-1.91803	0.643921	
-1.91956	0.646973	
-1.9165	0.65155	
-1.91803	0.646973	
-1.92108	0.648499	
-1.92261	0.653076	
-1.92261	0.653076	
-1.92261	0.645447	
-1.92108	0.648499	
-1.92108	0.650024	
-1.92261	0.645447	
-1.92261	0.645447	
-1.92108	0.650024	
-1.91956	0.646973	
-1.91956	0.650024	
-1.91956	0.653076	
-1.91498	0.650024	
-1.91345	0.648499	
-1.9165	0.65155	
-1.91803	0.650024	
-1.91193	0.648499	
-1.91193	0.648499	
-1.9104	0.646973	
-1.90582	0.648499	
-1.90125	0.645447	
-1.89972	0.650024	
-1.89972	0.650024	
-1.89819	0.645447	
-1.89667	0.648499	
-1.89514	0.648499	
-1.89667	0.648499	
-1.89362	0.645447	
-1.89209	0.648499	
-1.89056	0.650024	
-1.89209	0.65155	
-1.89056	0.650024	
-1.89056	0.648499	
-1.89209	0.648499	
-1.89056	0.646973	
-1.89209	0.650024	
-1.89056	0.646973	
-1.88904	0.646973	
-1.89056	0.650024	
-1.88904	0.646973	
-1.89056	0.650024	
-1.89209	0.648499	
-1.89056	0.646973	
-1.89209	0.648499	
-1.89362	0.650024	
-1.89362	0.646973	
-1.89667	0.65155	
-1.89972	0.646973	
-1.89972	0.650024	
-1.89972	0.650024	
-1.89972	0.645447	
-1.90582	0.646973	
-1.90735	0.65155	
-1.90735	0.648499	
-1.91193	0.648499	
-1.91498	0.650024	
-1.91803	0.650024	
-1.92108	0.645447	
-1.92261	0.646973	
-1.92719	0.646973	
-1.93024	0.648499	
-1.93329	0.648499	
-1.93634	0.65155	
-1.94092	0.650024	
-1.94244	0.65155	
-1.94397	0.65155	
-1.95007	0.648499	
-1.9516	0.645447	
-1.95465	0.648499	
-1.96075	0.645447	
-1.96533	0.648499	
-1.96533	0.650024	
-1.96686	0.650024	
-1.97296	0.648499	
-1.97449	0.653076	
-1.98059	0.650024	
-1.98669	0.65155	
-1.98822	0.650024	
-1.99432	0.65155	
-1.9928	0.645447	
-2.00195	0.646973	
-2.00348	0.650024	
-2.00958	0.653076	
-2.01263	0.65155	
-2.01569	0.653076	
-2.01721	0.650024	
-2.02484	0.65155	
-2.03094	0.648499	
-2.03247	0.648499	
-2.03705	0.648499	
-2.03857	0.648499	
-2.04315	0.645447	
-2.0462	0.65155	
-2.05231	0.650024	
-2.05536	0.650024	
-2.06299	0.648499	
-2.06604	0.648499	
-2.07062	0.645447	
-2.07214	0.646973	
-2.07825	0.645447	
-2.0813	0.645447	
-2.0813	0.646973	
-2.08893	0.65155	
-2.09351	0.65155	
-2.09656	0.650024	
-2.10266	0.648499	
-2.10724	0.65155	
-2.11029	0.648499	
-2.11334	0.643921	
-2.11639	0.646973	
-2.12097	0.646973	
-2.1225	0.648499	
-2.13013	0.648499	
-2.13318	0.653076	
-2.1347	0.648499	
-2.13928	0.653076	
-2.14233	0.65155	
-2.14996	0.65155	
-2.15149	0.646973	
-2.15607	0.648499	
-2.16064	0.643921	
-2.16522	0.648499	
-2.16827	0.65155	
-2.1698	0.65155	
-2.17743	0.653076	
-2.17896	0.653076	
-2.18353	0.648499	
-2.18201	0.650024	
-2.18811	0.645447	
-2.19116	0.646973	
-2.19421	0.648499	
-2.19727	0.645447	
-2.20032	0.648499	
-2.20337	0.654602	
-2.20184	0.65155	
-2.20337	0.65155	
-2.20337	0.65155	
-2.20337	0.646973	
-2.19879	0.645447	
-2.19879	0.646973	
-2.19879	0.643921	
-2.19421	0.646973	
-2.18658	0.650024	
-2.17896	0.65155	
-2.16827	0.65155	
-2.15912	0.653076	
-2.14996	0.648499	
-2.1347	0.648499	
-2.11792	0.648499	
-2.10419	0.645447	
-2.08588	0.643921	
-2.06604	0.643921	
-2.04315	0.645447	
-2.02637	0.648499	
-2.00348	0.650024	
-1.98059	0.653076	
-1.9577	0.65155	
-1.93787	0.650024	
-1.9104	0.645447	
-1.88904	0.646973	
-1.8692	0.645447	
-1.84784	0.645447	
-1.82495	0.648499	
-1.80817	0.65155	
-1.78528	0.648499	
-1.76544	0.650024	
-1.74866	0.648499	
