-1.7395	0.505066	
-1.72729	0.505066	
-1.72119	0.505066	
-1.71204	0.506592	
-1.70441	0.505066	
-1.69983	0.50354	
-1.69373	0.50354	
-1.6922	0.506592	
-1.68457	0.50354	
-1.68152	0.50354	
-1.67847	0.505066	
-1.68152	0.506592	
-1.67542	0.505066	
-1.67236	0.506592	
-1.66931	0.505066	
-1.66931	0.498962	
-1.66626	0.50354	
-1.66473	0.502014	
-1.66473	0.505066	
-1.66321	0.502014	
-1.66168	0.50354	
-1.66626	0.505066	
-1.66626	0.505066	
-1.66626	0.50354	
-1.66626	0.505066	
-1.66779	0.506592	
-1.66931	0.502014	
-1.66931	0.50354	
-1.67389	0.506592	
-1.67694	0.505066	
-1.67542	0.50354	
-1.68152	0.50354	
-1.68304	0.502014	
-1.6861	0.502014	
-1.68915	0.505066	
-1.6922	0.506592	
-1.69373	0.505066	
-1.6983	0.506592	
-1.70135	0.50354	
-1.69983	0.50354	
-1.70288	0.500488	
-1.70746	0.50354	
-1.71204	0.505066	
-1.71509	0.502014	
-1.71661	0.50354	
-1.72577	0.505066	
-1.72577	0.50354	
-1.73187	0.508118	
-1.7334	0.505066	
-1.73492	0.502014	
-1.73798	0.502014	
-1.74255	0.50354	
-1.74561	0.502014	
-1.75323	0.506592	
-1.75781	0.505066	
-1.75934	0.505066	
-1.76239	0.50354	
-1.76697	0.506592	
-1.77002	0.505066	
-1.77307	0.502014	
-1.77765	0.502014	
-1.78375	0.505066	
-1.78528	0.50354	
-1.78986	0.506592	
-1.79291	0.502014	
-1.79901	0.505066	
-1.79901	0.500488	
-1.80969	0.505066	
-1.80664	0.505066	
-1.80969	0.502014	
-1.81274	0.50354	
-1.81427	0.50354	
-1.82037	0.502014	
-1.82495	0.505066	
-1.82495	0.506592	
-1.828	0.50354	
-1.83105	0.50354	
-1.83716	0.505066	
-1.84021	0.50354	
-1.83868	0.50354	
-1.84631	0.502014	
-1.84784	0.50354	
-1.85242	0.505066	
-1.85547	0.50354	
-1.85852	0.505066	
-1.85852	0.502014	
-1.86462	0.50354	
-1.86615	0.50354	
-1.86768	0.50354	
-1.87225	0.500488	
-1.87531	0.505066	
-1.87836	0.505066	
-1.87836	0.505066	
-1.87988	0.500488	
-1.88293	0.50354	
-1.88751	0.505066	
-1.89056	0.502014	
-1.89056	0.50354	
-1.89209	0.505066	
-1.89667	0.50354	
-1.89667	0.50354	
-1.89819	0.505066	
-1.89819	0.50354	
-1.90125	0.505066	
-1.90277	0.505066	
-1.9043	0.505066	
-1.90582	0.506592	
-1.90277	0.505066	
-1.90735	0.50354	
-1.91193	0.508118	
-1.91193	0.500488	
-1.91498	0.505066	
-1.91498	0.502014	
-1.9165	0.502014	
-1.91498	0.502014	
-1.9165	0.506592	
-1.9165	0.505066	
-1.91803	0.506592	
-1.91803	0.505066	
-1.91956	0.505066	
-1.92261	0.500488	
-1.92261	0.50354	
-1.92261	0.502014	
-1.92413	0.502014	
-1.92413	0.502014	
-1.92261	0.505066	
-1.92566	0.502014	
-1.92871	0.506592	
-1.92719	0.505066	
-1.92719	0.505066	
-1.92871	0.502014	
-1.93176	0.506592	
-1.93481	0.50354	
-1.93329	0.502014	
-1.93481	0.50354	
-1.93787	0.508118	
-1.93634	0.50354	
-1.93939	0.505066	
-1.94244	0.502014	
-1.94092	0.505066	
-1.94244	0.502014	
-1.9455	0.505066	
-1.94397	0.498962	
-1.94855	0.50354	
-1.94855	0.500488	
-1.94855	0.506592	
-1.9516	0.500488	
-1.94855	0.505066	
-1.95618	0.505066	
-1.9577	0.50354	
-1.95618	0.500488	
-1.9577	0.505066	
-1.95618	0.502014	
-1.96228	0.502014	
-1.96228	0.505066	
-1.96228	0.506592	
-1.96381	0.506592	
-1.96686	0.505066	
-1.96838	0.502014	
-1.96991	0.505066	
-1.96991	0.505066	
-1.97449	0.506592	
-1.97449	0.502014	
-1.97754	0.50354	
-1.98059	0.505066	
-1.98212	0.50354	
-1.98212	0.50354	
-1.98364	0.508118	
-1.98975	0.505066	
-1.9928	0.506592	
-1.9928	0.50354	
-1.99432	0.50354	
-2.00043	0.502014	
-2.00348	0.50354	
-2.00653	0.50354	
-2.005	0.505066	
-2.00806	0.502014	
-2.01416	0.502014	
-2.01416	0.500488	
-2.02026	0.505066	
-2.02026	0.50354	
-2.02637	0.50354	
-2.02637	0.50354	
-2.02942	0.50354	
-2.03247	0.50354	
-2.034	0.502014	
-2.03705	0.50354	
-2.04163	0.506592	
-2.04163	0.502014	
-2.04468	0.50354	
-2.04926	0.505066	
-2.05231	0.500488	
-2.05536	0.50354	
-2.05841	0.502014	
-2.05994	0.50354	
-2.06451	0.502014	
-2.06299	0.506592	
-2.06909	0.50354	
-2.07214	0.50354	
-2.07825	0.50354	
-2.07977	0.50354	
-2.0813	0.50354	
-2.08588	0.502014	
-2.08893	0.506592	
-2.09198	0.505066	
-2.09351	0.505066	
-2.10114	0.50354	
-2.10266	0.502014	
-2.10571	0.505066	
-2.10571	0.505066	
-2.11029	0.506592	
-2.11487	0.505066	
-2.11639	0.50354	
-2.11792	0.50354	
-2.11945	0.50354	
-2.12402	0.50354	
-2.12402	0.505066	
-2.12708	0.505066	
-2.13013	0.500488	
-2.13013	0.505066	
-2.13165	0.506592	
-2.1347	0.50354	
-2.13623	0.505066	
-2.14233	0.505066	
-2.13928	0.502014	
-2.1347	0.50354	
-2.13623	0.50354	
-2.1347	0.502014	
-2.13165	0.50354	
-2.1286	0.506592	
-2.1286	0.506592	
-2.12555	0.502014	
-2.12402	0.505066	
-2.11639	0.505066	
-2.11639	0.500488	
-2.10571	0.502014	
-2.10571	0.505066	
-2.09808	0.505066	
-2.09045	0.505066	
-2.08282	0.506592	
-2.07062	0.506592	
-2.05994	0.50354	
-2.05078	0.505066	
-2.03705	0.50354	
-2.02789	0.505066	
-2.01721	0.500488	
-2.005	0.502014	
-1.99432	0.502014	
-1.98059	0.50354	
-1.96533	0.50354	
-1.95465	0.508118	
-1.94092	0.506592	
-1.92566	0.506592	
-1.91193	0.500488	
-1.89972	0.500488	
-1.88446	0.495911	
-1.87225	0.50354	
-1.85699	0.502014	
-1.84631	0.50354	
-1.83105	0.505066	
-1.81732	0.509644	
-1.80511	0.505066	
-1.79291	0.50354	
-1.78223	0.506592	
-1.7746	0.505066	
-1.76392	0.494385	
-1.75018	0.502014	
-1.74103	0.500488	
-1.73187	0.502014	
-1.72577	0.505066	
-1.71661	0.512695	
-1.70898	0.502014	
-1.70135	0.509644	
-1.69678	0.50354	
-1.68762	0.500488	
-1.68457	0.494385	
-1.67694	0.50354	
-1.67236	0.500488	
-1.66931	0.505066	
-1.66473	0.506592	
-1.66321	0.509644	
-1.65863	0.505066	
-1.6571	0.506592	
-1.6571	0.50354	
-1.65558	0.50354	
-1.65405	0.497437	
-1.65405	0.502014	
-1.64948	0.50354	
-1.65253	0.50354	
-1.65253	0.50354	
-1.65405	0.509644	
-1.651	0.50354	
-1.65558	0.508118	
-1.65558	0.50354	
-1.65405	0.50354	
-1.65558	0.498962	
-1.6571	0.505066	
-1.6571	0.498962	
-1.66016	0.502014	
-1.66168	0.508118	
-1.66321	0.508118	
-1.66473	0.50354	
-1.66779	0.508118	
-1.66931	0.50354	
-1.67236	0.500488	
-1.67694	0.498962	
-1.67694	0.50354	
-1.68152	0.498962	
-1.6861	0.506592	
-1.6861	0.506592	
-1.68915	0.506592	
-1.6922	0.505066	
-1.6922	0.506592	
-1.69678	0.505066	
-1.70135	0.50354	
-1.70288	0.495911	
-1.70593	0.50354	
-1.70441	0.502014	
-1.70898	0.502014	
-1.71356	0.505066	
-1.71967	0.505066	
-1.72119	0.505066	
-1.72577	0.506592	
-1.72577	0.505066	
-1.7334	0.50354	
-1.73492	0.506592	
-1.7395	0.502014	
-1.74561	0.498962	
-1.75018	0.505066	
-1.75171	0.505066	
-1.75476	0.505066	
-1.75934	0.502014	
-1.76239	0.508118	
-1.76697	0.50354	
-1.76849	0.500488	
-1.7746	0.508118	
-1.77917	0.50354	
-1.7807	0.502014	
-1.78833	0.50354	
-1.79291	0.50354	
-1.79291	0.497437	
-1.79901	0.505066	
-1.80359	0.506592	
-1.80817	0.505066	
-1.80969	0.506592	
-1.8158	0.505066	
-1.81427	0.505066	
-1.82037	0.500488	
-1.8219	0.50354	
-1.82648	0.502014	
-1.82953	0.495911	
-1.83105	0.508118	
-1.83563	0.508118	
-1.84021	0.502014	
-1.84021	0.508118	
-1.84479	0.511169	
-1.84631	0.50354	
-1.84784	0.500488	
-1.85242	0.500488	
-1.85242	0.506592	
-1.85394	0.497437	
-1.85547	0.505066	
-1.85852	0.506592	
-1.86157	0.500488	
-1.8631	0.506592	
-1.8631	0.508118	
-1.86615	0.50354	
-1.86615	0.498962	
-1.8692	0.505066	
-1.8692	0.50354	
-1.87531	0.500488	
-1.87378	0.50354	
-1.87836	0.508118	
-1.87683	0.502014	
-1.87683	0.502014	
-1.87988	0.505066	
-1.88141	0.50354	
-1.88293	0.497437	
-1.88446	0.505066	
-1.88751	0.508118	
-1.88293	0.50354	
-1.88599	0.502014	
-1.88599	0.506592	
-1.88904	0.500488	
-1.89056	0.502014	
-1.89209	0.508118	
-1.89209	0.502014	
-1.89362	0.500488	
-1.89514	0.505066	
-1.89514	0.50354	
-1.89667	0.50354	
-1.89972	0.505066	
-1.89667	0.506592	
-1.90125	0.502014	
-1.89972	0.500488	
-1.89972	0.505066	
-1.90277	0.50354	
-1.90125	0.500488	
-1.90582	0.50354	
-1.90735	0.50354	
-1.90735	0.502014	
-1.90735	0.500488	
-1.9104	0.505066	
-1.91193	0.505066	
-1.91345	0.50354	
-1.91498	0.506592	
-1.9165	0.505066	
-1.91803	0.502014	
-1.91956	0.502014	
-1.92108	0.505066	
-1.92108	0.500488	
-1.92413	0.500488	
-1.92566	0.505066	
-1.92719	0.505066	
-1.92871	0.505066	
-1.93024	0.502014	
-1.92871	0.502014	
-1.93329	0.50354	
-1.93634	0.502014	
-1.93329	0.505066	
-1.93481	0.50354	
-1.93634	0.50354	
-1.93939	0.50354	
-1.94092	0.502014	
-1.94397	0.505066	
-1.94397	0.506592	
-1.95007	0.502014	
-1.95007	0.500488	
-1.95618	0.505066	
-1.95465	0.50354	
-1.9577	0.50354	
-1.95923	0.508118	
-1.96381	0.50354	
-1.96381	0.505066	
-1.96533	0.50354	
-1.96686	0.50354	
-1.96991	0.50354	
-1.97144	0.506592	
-1.97449	0.50354	
-1.98059	0.500488	
-1.98822	0.502014	
-1.98364	0.506592	
-1.98975	0.500488	
-1.99127	0.50354	
-1.99432	0.50354	
-1.99432	0.50354	
-1.99738	0.505066	
-2.00043	0.50354	
-2.00043	0.50354	
-2.005	0.502014	
-2.00806	0.50354	
-2.00958	0.505066	
-2.01111	0.502014	
-2.01569	0.502014	
-2.01416	0.505066	
-2.02026	0.505066	
-2.02179	0.50354	
-2.02637	0.502014	
-2.02942	0.50354	
-2.034	0.506592	
-2.03552	0.50354	
-2.03705	0.506592	
-2.04163	0.498962	
-2.0462	0.506592	
-2.04926	0.50354	
-2.05078	0.498962	
-2.05536	0.500488	
-2.05536	0.505066	
-2.06299	0.505066	
-2.05841	0.500488	
-2.06604	0.502014	
-2.06757	0.50354	
-2.07062	0.502014	
-2.0752	0.502014	
-2.07825	0.502014	
-2.0813	0.50354	
-2.0813	0.505066	
-2.0874	0.506592	
-2.08893	0.50354	
-2.09198	0.502014	
-2.09351	0.505066	
-2.09808	0.502014	
-2.09808	0.500488	
-2.09503	0.50354	
-2.10571	0.50354	
-2.10419	0.505066	
-2.10876	0.502014	
-2.10419	0.508118	
-2.10876	0.502014	
-2.10724	0.502014	
-2.10724	0.505066	
-2.10724	0.505066	
-2.10571	0.494385	
-2.10571	0.50354	
-2.10266	0.505066	
-2.09808	0.502014	
-2.09656	0.500488	
-2.09198	0.506592	
-2.08893	0.505066	
-2.08435	0.50354	
-2.07672	0.50354	
-2.07367	0.50354	
-2.06451	0.500488	
-2.05688	0.505066	
-2.04926	0.500488	
-2.03857	0.50354	
-2.02942	0.498962	
-2.01721	0.509644	
-2.005	0.50354	
-1.99585	0.500488	
-1.98364	0.506592	
-1.97144	0.502014	
-1.9577	0.497437	
-1.94244	0.505066	
-1.93176	0.505066	
-1.91803	0.502014	
-1.9043	0.502014	
-1.89056	0.508118	
-1.87836	0.50354	
-1.86462	0.502014	
-1.84937	0.502014	
-1.83868	0.498962	
-1.82343	0.495911	
-1.80969	0.505066	
-1.79749	0.505066	
-1.78833	0.505066	
-1.77307	0.50354	
-1.76392	0.509644	
-1.75018	0.505066	
-1.74255	0.502014	
-1.73035	0.50354	
-1.71967	0.505066	
-1.71051	0.500488	
-1.70441	0.502014	
-1.69678	0.505066	
-1.68762	0.500488	
-1.68304	0.50354	
-1.67389	0.508118	
-1.66779	0.505066	
-1.66168	0.506592	
-1.65405	0.502014	
-1.65253	0.50354	
-1.64948	0.500488	
-1.6449	0.502014	
-1.63879	0.50354	
-1.63727	0.505066	
-1.63116	0.502014	
-1.62964	0.505066	
-1.63269	0.502014	
-1.62964	0.50354	
-1.62659	0.50354	
-1.62659	0.50354	
-1.62811	0.500488	
-1.62354	0.506592	
-1.62811	0.505066	
-1.62659	0.50354	
-1.62811	0.50354	
-1.62964	0.508118	
-1.62811	0.50354	
-1.63269	0.502014	
-1.63116	0.50354	
-1.63269	0.502014	
-1.63422	0.498962	
-1.63422	0.505066	
-1.63727	0.50354	
-1.64337	0.502014	
-1.64642	0.50354	
-1.64642	0.50354	
-1.64948	0.505066	
-1.651	0.50354	
-1.65253	0.50354	
-1.6571	0.50354	
-1.66016	0.500488	
-1.66321	0.502014	
-1.66473	0.50354	
-1.66779	0.502014	
-1.67084	0.50354	
-1.67542	0.50354	
-1.67694	0.50354	
-1.67847	0.50354	
-1.68304	0.50354	
-1.6861	0.502014	
-1.6922	0.498962	
-1.69525	0.498962	
-1.6983	0.505066	
-1.70288	0.500488	
-1.71051	0.50354	
-1.71204	0.505066	
-1.71356	0.50354	
-1.72119	0.500488	
-1.72577	0.505066	
-1.72729	0.50354	
-1.73035	0.50354	
-1.73492	0.502014	
-1.73798	0.50354	
-1.74103	0.505066	
-1.74408	0.50354	
-1.75171	0.502014	
-1.75476	0.505066	
-1.76086	0.50354	
-1.76392	0.500488	
-1.76697	0.50354	
-1.77002	0.50354	
-1.77765	0.502014	
-1.77917	0.502014	
-1.78223	0.50354	
-1.7868	0.50354	
-1.78986	0.502014	
-1.79596	0.506592	
-1.79901	0.50354	
-1.80206	0.502014	
-1.80359	0.505066	
-1.80817	0.50354	
-1.80969	0.502014	
-1.81122	0.50354	
-1.81427	0.50354	
-1.81732	0.50354	
-1.82343	0.502014	
-1.82343	0.506592	
-1.82648	0.502014	
-1.828	0.502014	
-1.83105	0.505066	
-1.83105	0.505066	
-1.83716	0.502014	
-1.84021	0.505066	
-1.84479	0.50354	
-1.84174	0.502014	
-1.84631	0.502014	
-1.84631	0.505066	
-1.84784	0.50354	
-1.85089	0.500488	
-1.85242	0.502014	
-1.85089	0.50354	
-1.85394	0.498962	
-1.85394	0.505066	
-1.85394	0.50354	
-1.85547	0.50354	
-1.85547	0.495911	
-1.86157	0.508118	
-1.85852	0.502014	
-1.86005	0.50354	
-1.86157	0.502014	
-1.86157	0.508118	
-1.86157	0.500488	
-1.86462	0.502014	
-1.86157	0.502014	
-1.86462	0.505066	
-1.86462	0.497437	
-1.87225	0.502014	
-1.86768	0.502014	
-1.86768	0.502014	
-1.86768	0.50354	
-1.86615	0.506592	
-1.86768	0.500488	
-1.86768	0.50354	
-1.8692	0.50354	
-1.86768	0.506592	
-1.87225	0.497437	
-1.87225	0.50354	
-1.87531	0.50354	
-1.87378	0.505066	
-1.87683	0.505066	
-1.87531	0.508118	
-1.87683	0.498962	
-1.87378	0.505066	
-1.87531	0.50354	
-1.87683	0.50354	
-1.87836	0.495911	
-1.87836	0.505066	
-1.88141	0.500488	
-1.87988	0.50354	
-1.88293	0.502014	
-1.88293	0.512695	
-1.88446	0.500488	
-1.88293	0.508118	
-1.88599	0.50354	
-1.88751	0.50354	
-1.89209	0.497437	
-1.88751	0.502014	
-1.89056	0.500488	
-1.89362	0.502014	
-1.89362	0.502014	
-1.89819	0.511169	
-1.89667	0.502014	
-1.89972	0.50354	
-1.90125	0.502014	
-1.90277	0.500488	
-1.90735	0.494385	
-1.90735	0.50354	
-1.91193	0.50354	
-1.9165	0.500488	
-1.91803	0.500488	
-1.91956	0.508118	
-1.92108	0.502014	
-1.92108	0.50354	
-1.92566	0.502014	
-1.92719	0.50354	
-1.92871	0.497437	
-1.92871	0.505066	
-1.93329	0.502014	
-1.93634	0.502014	
-1.93787	0.500488	
-1.93939	0.509644	
-1.94397	0.505066	
-1.94855	0.505066	
-1.95313	0.502014	
-1.95007	0.506592	
-1.95313	0.497437	
-1.9577	0.502014	
-1.96075	0.497437	
-1.96381	0.500488	
-1.96533	0.502014	
-1.96991	0.509644	
-1.97144	0.498962	
-1.97601	0.50354	
-1.97601	0.502014	
-1.97754	0.502014	
-1.98212	0.497437	
-1.98669	0.50354	
-1.99127	0.500488	
-1.99127	0.50354	
-1.9928	0.50354	
-1.99585	0.511169	
-2.00043	0.500488	
-2.00348	0.50354	
-2.005	0.502014	
-2.00958	0.500488	
-2.01111	0.494385	
-2.01569	0.50354	
-2.01874	0.497437	
-2.02484	0.502014	
-2.03094	0.50354	
-2.02637	0.508118	
-2.02942	0.498962	
-2.03247	0.505066	
-2.03552	0.505066	
-2.0401	0.502014	
-2.0401	0.497437	
-2.04315	0.50354	
-2.0462	0.502014	
-2.04773	0.502014	
-2.05078	0.502014	
-2.05383	0.506592	
-2.05688	0.500488	
-2.05383	0.506592	
-2.05994	0.50354	
-2.06299	0.502014	
-2.05841	0.497437	
-2.05994	0.502014	
-2.06299	0.500488	
-2.05994	0.502014	
-2.05841	0.505066	
-2.05841	0.506592	
-2.05383	0.498962	
-2.05231	0.505066	
-2.04926	0.502014	
-2.04926	0.50354	
-2.04468	0.498962	
-2.0401	0.50354	
-2.034	0.498962	
-2.02789	0.50354	
-2.01569	0.50354	
-2.01111	0.50354	
-2.00195	0.50354	
-1.9928	0.505066	
-1.98212	0.502014	
-1.96991	0.502014	
-1.9577	0.502014	
-1.94855	0.505066	
-1.93481	0.498962	
-1.92261	0.502014	
-1.9104	0.50354	
-1.89667	0.505066	
-1.88446	0.500488	
-1.86768	0.50354	
-1.85699	0.502014	
-1.84174	0.500488	
-1.828	0.50354	
-1.81122	0.50354	
-1.79901	0.500488	
-1.7807	0.502014	
-1.77002	0.502014	
-1.75323	0.502014	
-1.74255	0.500488	
-1.73035	0.505066	
-1.71661	0.505066	
-1.70441	0.500488	
-1.6922	0.50354	
-1.68152	0.50354	
-1.67084	0.497437	
-1.66321	0.500488	
-1.65253	0.50354	
-1.64642	0.500488	
-1.63727	0.50354	
-1.62811	0.50354	
-1.62354	0.505066	
-1.61591	0.502014	
-1.6098	0.50354	
-1.60522	0.50354	
-1.59912	0.500488	
-1.59454	0.500488	
-1.58997	0.502014	
-1.58539	0.500488	
-1.58386	0.50354	
-1.58081	0.50354	
-1.57928	0.506592	
-1.57318	0.50354	
-1.57471	0.502014	
-1.57471	0.502014	
-1.57013	0.500488	
-1.57166	0.497437	
-1.57318	0.50354	
-1.57166	0.500488	
-1.57166	0.500488	
-1.57318	0.502014	
-1.57166	0.500488	
-1.57318	0.500488	
-1.57623	0.50354	
-1.57623	0.505066	
-1.57623	0.505066	
-1.58081	0.500488	
-1.57928	0.505066	
-1.58539	0.50354	
-1.58386	0.500488	
-1.58844	0.50354	
-1.58997	0.50354	
-1.59149	0.498962	
-1.59607	0.505066	
-1.59607	0.50354	
-1.60217	0.500488	
-1.60522	0.497437	
-1.60828	0.502014	
-1.6098	0.502014	
-1.61133	0.502014	
-1.61743	0.502014	
-1.62048	0.506592	
-1.62354	0.50354	
-1.62506	0.508118	
-1.63116	0.502014	
-1.63269	0.502014	
-1.63269	0.502014	
-1.63879	0.50354	
-1.6449	0.500488	
-1.64948	0.502014	
-1.65405	0.50354	
-1.66016	0.505066	
-1.65863	0.50354	
-1.66168	0.506592	
-1.66626	0.50354	
-1.67236	0.505066	
-1.67694	0.497437	
-1.68152	0.500488	
-1.6861	0.497437	
-1.69067	0.502014	
-1.6922	0.50354	
-1.69678	0.505066	
-1.70288	0.50354	
-1.70593	0.508118	
-1.71204	0.50354	
-1.71661	0.502014	
-1.71967	0.498962	
-1.72424	0.502014	
-1.73035	0.495911	
-1.73492	0.498962	
-1.7395	0.498962	
-1.74103	0.50354	
-1.74713	0.505066	
-1.74713	0.509644	
-1.74866	0.502014	
-1.75476	0.50354	
-1.75934	0.502014	
-1.76086	0.502014	
-1.76392	0.492859	
-1.76697	0.497437	
-1.77155	0.498962	
-1.77307	0.502014	
-1.77612	0.502014	
-1.77917	0.505066	
-1.7807	0.50354	
-1.78528	0.506592	
-1.78528	0.50354	
-1.78528	0.50354	
-1.79138	0.500488	
-1.79291	0.502014	
-1.79291	0.502014	
-1.79901	0.50354	
-1.79901	0.502014	
-1.79901	0.505066	
-1.80206	0.500488	
-1.80359	0.50354	
-1.80359	0.502014	
-1.80511	0.500488	
-1.80664	0.505066	
-1.80664	0.500488	
-1.80664	0.498962	
-1.80664	0.505066	
-1.80969	0.502014	
-1.80817	0.50354	
-1.80664	0.500488	
-1.80664	0.50354	
-1.80511	0.500488	
-1.80817	0.502014	
-1.80664	0.506592	
-1.80664	0.502014	
-1.80664	0.498962	
-1.80511	0.502014	
-1.80511	0.500488	
-1.80664	0.497437	
-1.80817	0.502014	
-1.80511	0.50354	
-1.80511	0.505066	
-1.80206	0.500488	
-1.80511	0.509644	
-1.80359	0.50354	
-1.80511	0.50354	
-1.80511	0.505066	
-1.80511	0.50354	
-1.80511	0.497437	
-1.80817	0.498962	
-1.81122	0.506592	
-1.81122	0.500488	
-1.81122	0.502014	
-1.81122	0.506592	
-1.8158	0.505066	
-1.81427	0.500488	
-1.81427	0.505066	
-1.81732	0.505066	
-1.8158	0.497437	
-1.81885	0.497437	
-1.8219	0.50354	
-1.8219	0.502014	
-1.8219	0.497437	
-1.82343	0.508118	
-1.82495	0.508118	
-1.82648	0.502014	
-1.83105	0.50354	
-1.82953	0.505066	
-1.83411	0.497437	
-1.83563	0.497437	
-1.83411	0.505066	
-1.83868	0.502014	
-1.84174	0.502014	
-1.84326	0.506592	
-1.84479	0.505066	
-1.84479	0.500488	
-1.84937	0.505066	
-1.85089	0.505066	
-1.85242	0.497437	
-1.85547	0.50354	
-1.85699	0.505066	
-1.86005	0.502014	
-1.8631	0.502014	
-1.8631	0.505066	
-1.8692	0.506592	
-1.87225	0.500488	
-1.87225	0.502014	
-1.87531	0.50354	
-1.87531	0.500488	
-1.87836	0.500488	
-1.88141	0.502014	
-1.88599	0.502014	
-1.88751	0.500488	
-1.89056	0.50354	
-1.89056	0.505066	
-1.89667	0.500488	
-1.89972	0.505066	
-1.89819	0.50354	
-1.90277	0.502014	
-1.90582	0.502014	
-1.90735	0.505066	
-1.91345	0.498962	
-1.9165	0.500488	
-1.9165	0.50354	
-1.91956	0.505066	
-1.92108	0.502014	
-1.92719	0.508118	
-1.93024	0.50354	
-1.93481	0.50354	
-1.93481	0.500488	
-1.93787	0.505066	
-1.94397	0.502014	
-1.94397	0.500488	
-1.94397	0.502014	
-1.9516	0.50354	
-1.95313	0.498962	
-1.95618	0.502014	
-1.95923	0.506592	
-1.96228	0.50354	
-1.96686	0.500488	
-1.96686	0.50354	
-1.96991	0.50354	
-1.97144	0.500488	
-1.97754	0.502014	
-1.97449	0.508118	
-1.97754	0.50354	
-1.98059	0.50354	
-1.98059	0.50354	
-1.98364	0.505066	
-1.98669	0.498962	
-1.98364	0.50354	
-1.98669	0.50354	
-1.98822	0.500488	
-1.98975	0.50354	
-1.99127	0.505066	
-1.9928	0.50354	
-1.98975	0.506592	
-1.98364	0.505066	
-1.98364	0.500488	
-1.98059	0.498962	
-1.97906	0.50354	
-1.97601	0.502014	
-1.97296	0.500488	
-1.96838	0.50354	
-1.9577	0.505066	
-1.9516	0.50354	
-1.94244	0.505066	
-1.93329	0.508118	
-1.92108	0.500488	
-1.9104	0.498962	
-1.89972	0.505066	
-1.88599	0.497437	
-1.87683	0.497437	
-1.86005	0.502014	
-1.84937	0.50354	
-1.83105	0.505066	
-1.8158	0.506592	
-1.80206	0.50354	
-1.78833	0.50354	
-1.77155	0.497437	
-1.75476	0.500488	
-1.74103	0.502014	
-1.72272	0.500488	
-1.71051	0.506592	
-1.69373	0.509644	
-1.68152	0.50354	
-1.66779	0.505066	
-1.651	0.50354	
-1.64032	0.50354	
-1.62506	0.498962	
-1.61591	0.50354	
-1.60522	0.498962	
-1.59302	0.497437	
-1.58234	0.502014	
-1.57318	0.505066	
-1.5625	0.505066	
-1.55487	0.509644	
-1.54877	0.50354	
-1.53961	0.498962	
-1.53351	0.500488	
-1.53046	0.498962	
-1.5213	0.500488	
-1.51215	0.500488	
-1.50909	0.500488	
-1.50452	0.505066	
-1.50452	0.508118	
-1.49689	0.505066	
-1.49689	0.508118	
-1.49231	0.50354	
-1.48621	0.500488	
-1.48468	0.498962	
-1.48315	0.50354	
-1.48468	0.495911	
-1.48163	0.50354	
-1.48163	0.50354	
-1.4801	0.509644	
-1.47858	0.505066	
-1.47705	0.506592	
-1.47858	0.502014	
-1.48315	0.505066	
-1.48315	0.495911	
-1.48163	0.497437	
-1.48163	0.497437	
-1.48468	0.500488	
-1.48315	0.505066	
-1.48773	0.505066	
-1.48621	0.502014	
-1.49231	0.506592	
-1.49384	0.505066	
-1.49689	0.502014	
-1.49536	0.500488	
-1.50146	0.502014	
-1.50299	0.500488	
-1.50299	0.502014	
-1.50757	0.502014	
-1.51062	0.509644	
-1.51215	0.50354	
-1.51672	0.505066	
-1.51672	0.50354	
-1.52283	0.497437	
-1.52283	0.498962	
-1.52283	0.505066	
-1.53046	0.502014	
-1.53503	0.500488	
-1.53809	0.505066	
-1.54114	0.506592	
-1.54266	0.50354	
-1.54572	0.505066	
-1.54877	0.505066	
-1.55029	0.500488	
-1.55334	0.498962	
-1.5564	0.500488	
-1.56097	0.498962	
-1.56708	0.502014	
-1.57166	0.50354	
-1.57318	0.508118	
-1.57776	0.50354	
-1.58081	0.509644	
-1.58386	0.506592	
-1.58997	0.500488	
-1.59302	0.498962	
-1.59454	0.50354	
-1.60217	0.498962	
-1.60522	0.502014	
-1.6098	0.506592	
-1.61133	0.506592	
-1.61743	0.505066	
-1.62048	0.505066	
-1.62354	0.506592	
-1.62964	0.502014	
-1.63116	0.500488	
-1.63574	0.500488	
-1.64032	0.498962	
-1.64337	0.502014	
-1.64795	0.506592	
-1.64795	0.50354	
-1.64948	0.50354	
-1.65405	0.50354	
-1.66016	0.505066	
-1.66168	0.50354	
-1.66321	0.500488	
-1.66473	0.500488	
-1.66626	0.502014	
-1.66779	0.498962	
-1.67236	0.505066	
-1.67542	0.505066	
-1.67542	0.50354	
-1.67847	0.508118	
-1.68304	0.505066	
-1.68304	0.50354	
-1.6861	0.502014	
-1.68762	0.505066	
-1.6861	0.498962	
-1.68762	0.500488	
-1.68762	0.50354	
-1.68915	0.509644	
-1.6922	0.508118	
-1.69067	0.505066	
-1.6922	0.50354	
-1.6922	0.50354	
-1.6922	0.497437	
-1.6922	0.502014	
-1.69525	0.502014	
-1.6922	0.502014	
-1.69525	0.50354	
-1.6922	0.506592	
-1.6922	0.506592	
-1.69373	0.506592	
-1.69373	0.506592	
-1.69067	0.505066	
-1.6922	0.500488	
-1.69525	0.498962	
-1.69525	0.502014	
-1.69373	0.500488	
-1.69678	0.50354	
-1.69373	0.508118	
-1.69525	0.505066	
-1.69525	0.506592	
-1.69525	0.506592	
-1.69373	0.506592	
-1.69373	0.502014	
-1.69525	0.502014	
-1.69525	0.498962	
-1.69678	0.50354	
-1.69983	0.502014	
-1.6983	0.508118	
-1.6983	0.506592	
-1.70135	0.506592	
-1.70135	0.505066	
-1.70135	0.50354	
-1.70288	0.505066	
-1.70593	0.50354	
-1.70441	0.500488	
-1.70746	0.502014	
-1.70593	0.506592	
-1.70898	0.502014	
-1.70898	0.508118	
-1.71204	0.50354	
-1.71204	0.508118	
-1.71509	0.50354	
-1.71661	0.508118	
-1.71509	0.50354	
-1.72119	0.50354	
-1.72272	0.500488	
-1.72577	0.50354	
-1.72577	0.50354	
-1.73187	0.50354	
-1.7334	0.505066	
-1.7334	0.506592	
-1.73645	0.50354	
-1.74103	0.508118	
-1.74408	0.50354	
-1.74561	0.502014	
-1.74561	0.498962	
-1.75171	0.50354	
-1.75476	0.502014	
-1.75476	0.505066	
-1.76086	0.506592	
-1.76086	0.506592	
-1.76392	0.505066	
-1.76849	0.506592	
-1.76849	0.505066	
-1.77155	0.505066	
-1.77612	0.502014	
-1.77917	0.505066	
-1.7807	0.502014	
-1.78375	0.50354	
-1.7868	0.506592	
-1.79138	0.508118	
-1.79291	0.505066	
-1.79749	0.512695	
-1.80054	0.50354	
-1.80511	0.502014	
-1.80664	0.502014	
-1.80969	0.505066	
-1.81427	0.498962	
-1.8158	0.506592	
-1.81732	0.508118	
-1.82037	0.505066	
-1.82343	0.50354	
-1.82953	0.508118	
-1.82953	0.500488	
-1.83716	0.50354	
-1.84021	0.500488	
-1.84021	0.508118	
-1.84479	0.497437	
-1.84937	0.505066	
-1.85242	0.508118	
-1.85547	0.509644	
-1.85699	0.50354	
-1.85852	0.512695	
-1.86615	0.50354	
-1.86768	0.50354	
-1.87225	0.498962	
-1.87683	0.506592	
-1.87988	0.500488	
-1.87988	0.509644	
-1.88293	0.506592	
-1.88599	0.509644	
-1.89209	0.505066	
-1.89362	0.512695	
-1.89667	0.502014	
-1.89819	0.508118	
-1.90125	0.50354	
-1.90582	0.506592	
-1.90735	0.495911	
-1.91345	0.505066	
-1.91498	0.508118	
-1.91345	0.508118	
-1.9165	0.502014	
-1.91803	0.514221	
-1.91956	0.50354	
-1.91956	0.50354	
-1.91956	0.502014	
-1.91956	0.509644	
-1.91956	0.494385	
-1.92108	0.508118	
-1.91956	0.502014	
-1.91956	0.506592	
-1.91345	0.50354	
-1.9104	0.515747	
-1.90277	0.502014	
-1.89667	0.505066	
-1.89056	0.506592	
-1.88141	0.506592	
-1.87225	0.494385	
-1.86157	0.505066	
-1.85089	0.505066	
-1.83563	0.508118	
-1.82648	0.505066	
-1.81122	0.517273	
-1.80206	0.506592	
-1.77917	0.50354	
-1.76544	0.505066	
-1.75323	0.506592	
-1.73645	0.494385	
-1.71967	0.505066	
-1.70288	0.505066	
-1.6861	0.505066	
-1.66931	0.505066	
-1.65558	0.517273	
-1.63574	0.505066	
-1.62354	0.502014	
-1.6098	0.50354	
-1.58844	0.506592	
-1.57776	0.494385	
-1.56097	0.506592	
-1.55182	0.502014	
-1.53656	0.505066	
-1.52435	0.50354	
-1.51062	0.517273	
-1.50299	0.506592	
-1.49231	0.50354	
-1.48163	0.505066	
-1.47247	0.508118	
-1.46484	0.497437	
-1.45721	0.50354	
-1.44653	0.50354	
-1.4389	0.505066	
-1.4328	0.502014	
-1.42975	0.514221	
-1.42365	0.505066	
-1.41907	0.506592	
-1.41144	0.506592	
-1.40991	0.506592	
-1.40839	0.497437	
-1.40228	0.506592	
-1.39771	0.505066	
-1.39923	0.506592	
-1.39465	0.505066	
-1.39313	0.511169	
-1.39313	0.505066	
-1.38855	0.506592	
-1.3916	0.505066	
-1.3916	0.508118	
-1.38855	0.498962	
-1.39313	0.502014	
-1.38855	0.505066	
-1.39008	0.502014	
-1.39008	0.506592	
-1.39313	0.511169	
-1.39465	0.506592	
-1.39618	0.50354	
-1.39771	0.506592	
-1.40076	0.505066	
-1.40076	0.500488	
-1.40381	0.50354	
-1.40381	0.50354	
-1.40686	0.505066	
-1.40686	0.508118	
-1.40991	0.506592	
-1.41449	0.50354	
-1.41449	0.508118	
-1.41907	0.505066	
-1.41907	0.50354	
-1.42212	0.500488	
-1.42517	0.508118	
-1.4267	0.50354	
-1.42975	0.505066	
-1.43127	0.508118	
-1.43127	0.511169	
-1.43738	0.508118	
-1.4389	0.505066	
-1.44043	0.508118	
-1.44196	0.50354	
-1.44348	0.500488	
-1.44653	0.506592	
-1.44958	0.50354	
-1.44958	0.505066	
-1.45569	0.506592	
-1.45721	0.509644	
-1.46179	0.505066	
-1.46179	0.505066	
-1.4679	0.505066	
-1.46637	0.506592	
-1.46942	0.506592	
-1.474	0.506592	
-1.47552	0.505066	
-1.47858	0.505066	
-1.47858	0.508118	
-1.48315	0.509644	
-1.48621	0.502014	
-1.49078	0.50354	
-1.49384	0.506592	
-1.49689	0.50354	
-1.49994	0.512695	
-1.50299	0.508118	
-1.50452	0.505066	
-1.51215	0.505066	
-1.51367	0.508118	
-1.5152	0.502014	
-1.51978	0.50354	
-1.5213	0.508118	
-1.52588	0.50354	
-1.52588	0.508118	
-1.53046	0.509644	
-1.53809	0.508118	
-1.53961	0.508118	
-1.54266	0.506592	
-1.54266	0.506592	
-1.54419	0.502014	
-1.54877	0.50354	
-1.55182	0.506592	
-1.55182	0.505066	
-1.5564	0.508118	
-1.55945	0.517273	
-1.56097	0.509644	
-1.5625	0.508118	
-1.5625	0.506592	
-1.5625	0.506592	
-1.56708	0.498962	
-1.56708	0.502014	
-1.57318	0.508118	
-1.57013	0.505066	
-1.57166	0.50354	
-1.57318	0.515747	
-1.57623	0.509644	
-1.57471	0.508118	
-1.57776	0.50354	
-1.57776	0.511169	
-1.57623	0.498962	
-1.57928	0.50354	
-1.57928	0.505066	
-1.57776	0.506592	
-1.58081	0.500488	
-1.58081	0.517273	
-1.58081	0.509644	
-1.58234	0.506592	
-1.58386	0.506592	
-1.58234	0.509644	
-1.58234	0.494385	
-1.58386	0.50354	
-1.58539	0.506592	
-1.58234	0.505066	
-1.58386	0.500488	
-1.58539	0.517273	
-1.58539	0.506592	
-1.58997	0.506592	
-1.58386	0.509644	
-1.58539	0.506592	
-1.58691	0.495911	
-1.58691	0.509644	
-1.58997	0.506592	
-1.58997	0.508118	
-1.58997	0.505066	
-1.59302	0.511169	
-1.59149	0.509644	
-1.59302	0.506592	
-1.59607	0.505066	
-1.59607	0.508118	
-1.5976	0.498962	
-1.5976	0.506592	
-1.60065	0.508118	
-1.59912	0.508118	
-1.60217	0.50354	
-1.60522	0.512695	
-1.6098	0.509644	
-1.60522	0.506592	
-1.61285	0.505066	
-1.61285	0.509644	
-1.61591	0.500488	
-1.61743	0.506592	
-1.62201	0.509644	
-1.62048	0.506592	
-1.62201	0.505066	
-1.62506	0.511169	
-1.62811	0.506592	
-1.62811	0.506592	
-1.63116	0.506592	
-1.63422	0.509644	
-1.63574	0.500488	
-1.63879	0.505066	
-1.64032	0.506592	
-1.64337	0.508118	
-1.64948	0.50354	
-1.64948	0.506592	
-1.65405	0.509644	
-1.65558	0.506592	
-1.65863	0.505066	
-1.66016	0.509644	
-1.66321	0.506592	
-1.66779	0.505066	
-1.66473	0.506592	
-1.66779	0.509644	
-1.67389	0.505066	
-1.67389	0.509644	
-1.67847	0.506592	
-1.68457	0.506592	
-1.6861	0.506592	
-1.69067	0.509644	
-1.69373	0.509644	
-1.6922	0.50354	
-1.6983	0.509644	
-1.69983	0.506592	
-1.70441	0.502014	
-1.70898	0.508118	
-1.71204	0.508118	
-1.71356	0.508118	
-1.71661	0.506592	
-1.71967	0.511169	
-1.72729	0.511169	
-1.73035	0.508118	
-1.73035	0.508118	
-1.73492	0.505066	
-1.73645	0.506592	
-1.73645	0.508118	
-1.74255	0.511169	
-1.74408	0.505066	
-1.75018	0.506592	
-1.74866	0.508118	
-1.75171	0.506592	
-1.75781	0.506592	
-1.75934	0.509644	
-1.76544	0.506592	
-1.76697	0.506592	
-1.77002	0.508118	
-1.77155	0.509644	
-1.77765	0.506592	
-1.77917	0.505066	
-1.78223	0.511169	
-1.78375	0.506592	
-1.7868	0.506592	
-1.78986	0.508118	
-1.79291	0.508118	
-1.79596	0.505066	
-1.79901	0.506592	
-1.80206	0.511169	
-1.80206	0.508118	
-1.80664	0.508118	
-1.81274	0.508118	
-1.81274	0.506592	
-1.81885	0.50354	
-1.81732	0.508118	
-1.8219	0.511169	
-1.82495	0.506592	
-1.82953	0.508118	
-1.83105	0.508118	
-1.82953	0.508118	
-1.83411	0.508118	
-1.83716	0.509644	
-1.84174	0.506592	
-1.84479	0.502014	
-1.84479	0.509644	
-1.84937	0.509644	
-1.85089	0.508118	
-1.85394	0.506592	
-1.85394	0.506592	
-1.85699	0.506592	
-1.85852	0.505066	
-1.86005	0.508118	
-1.86157	0.508118	
-1.86615	0.506592	
-1.86462	0.509644	
-1.86615	0.508118	
-1.86615	0.508118	
-1.86462	0.509644	
-1.86615	0.509644	
-1.86157	0.506592	
-1.85852	0.506592	
-1.85547	0.509644	
-1.85089	0.508118	
-1.84479	0.508118	
-1.83716	0.512695	
-1.82953	0.508118	
-1.82343	0.508118	
-1.80969	0.506592	
-1.80054	0.506592	
-1.78833	0.508118	
-1.7746	0.509644	
-1.76392	0.506592	
-1.74408	0.508118	
-1.7334	0.506592	
-1.71356	0.506592	
-1.70135	0.509644	
-1.68304	0.511169	
-1.66779	0.508118	
-1.65253	0.509644	
-1.63574	0.506592	
-1.61438	0.50354	
-1.5976	0.508118	
-1.58386	0.505066	
-1.5686	0.506592	
-1.54724	0.511169	
-1.53656	0.509644	
-1.5213	0.508118	
-1.50757	0.508118	
-1.49078	0.508118	
-1.47858	0.508118	
-1.46942	0.508118	
-1.45569	0.506592	
-1.44043	0.508118	
-1.43127	0.506592	
-1.42212	0.508118	
-1.40839	0.509644	
-1.39771	0.505066	
-1.3916	0.508118	
-1.38245	0.511169	
-1.37787	0.508118	
-1.36566	0.506592	
-1.35956	0.508118	
-1.35651	0.508118	
-1.34583	0.506592	
-1.34277	0.511169	
-1.33972	0.511169	
-1.33209	0.508118	
-1.32904	0.511169	
-1.32446	0.511169	
-1.32446	0.508118	
-1.32294	0.508118	
-1.31836	0.508118	
-1.31531	0.508118	
-1.31531	0.50354	
-1.31378	0.511169	
-1.31226	0.508118	
-1.31073	0.509644	
-1.3092	0.508118	
-1.31073	0.511169	
-1.31073	0.505066	
-1.3092	0.508118	
-1.30768	0.509644	
-1.30768	0.511169	
-1.3092	0.506592	
-1.31378	0.509644	
-1.31226	0.508118	
-1.31378	0.508118	
-1.31226	0.509644	
-1.31378	0.511169	
-1.31226	0.508118	
-1.31531	0.506592	
-1.31531	0.508118	
-1.31989	0.508118	
-1.32294	0.506592	
-1.32141	0.508118	
-1.32141	0.511169	
-1.32599	0.506592	
-1.32904	0.511169	
-1.32904	0.509644	
-1.32599	0.511169	
-1.32904	0.509644	
-1.33209	0.509644	
-1.33209	0.506592	
-1.3382	0.505066	
-1.33972	0.508118	
-1.3382	0.508118	
-1.33972	0.508118	
-1.34125	0.506592	
-1.34125	0.509644	
-1.34125	0.512695	
-1.34277	0.509644	
-1.34735	0.508118	
-1.34583	0.508118	
-1.34735	0.505066	
-1.3504	0.506592	
-1.34888	0.511169	
-1.35193	0.509644	
-1.35193	0.508118	
-1.35193	0.509644	
-1.35345	0.511169	
-1.35498	0.511169	
-1.35651	0.506592	
-1.35956	0.509644	
-1.36108	0.508118	
-1.36261	0.509644	
-1.36566	0.509644	
-1.36566	0.508118	
-1.36871	0.508118	
-1.37024	0.512695	
-1.37177	0.509644	
-1.37634	0.508118	
-1.37939	0.509644	
-1.37787	0.506592	
-1.38245	0.506592	
-1.38702	0.506592	
-1.38855	0.508118	
-1.39008	0.50354	
-1.39465	0.511169	
-1.39313	0.508118	
-1.39465	0.506592	
-1.39465	0.508118	
-1.39771	0.506592	
-1.39771	0.509644	
-1.39923	0.508118	
-1.39923	0.509644	
-1.40076	0.512695	
-1.40076	0.508118	
-1.40228	0.509644	
-1.40228	0.509644	
-1.40533	0.512695	
-1.40381	0.509644	
-1.40381	0.509644	
-1.40686	0.508118	
-1.40533	0.509644	
-1.40686	0.511169	
-1.40533	0.509644	
-1.40686	0.508118	
-1.40381	0.508118	
-1.40533	0.511169	
-1.40228	0.511169	
-1.40381	0.511169	
-1.40076	0.509644	
-1.40533	0.509644	
-1.40533	0.508118	
-1.40381	0.508118	
-1.40228	0.511169	
-1.40228	0.505066	
-1.40228	0.509644	
-1.40076	0.508118	
-1.40228	0.512695	
-1.40076	0.509644	
-1.40076	0.508118	
-1.39923	0.508118	
-1.39771	0.506592	
-1.39923	0.508118	
-1.39771	0.511169	
-1.39771	0.508118	
-1.40076	0.506592	
-1.39771	0.509644	
-1.39771	0.514221	
-1.39923	0.509644	
-1.39771	0.508118	
-1.39923	0.508118	
-1.40076	0.511169	
-1.40076	0.506592	
-1.40228	0.509644	
-1.40076	0.508118	
-1.40381	0.508118	
-1.40381	0.508118	
-1.40839	0.512695	
-1.40381	0.511169	
-1.40686	0.509644	
-1.40839	0.509644	
-1.40991	0.509644	
-1.41449	0.508118	
-1.41602	0.511169	
-1.41449	0.506592	
-1.41754	0.511169	
-1.41907	0.511169	
-1.42212	0.515747	
-1.42212	0.506592	
-1.42212	0.511169	
-1.42822	0.509644	
-1.4267	0.514221	
-1.43127	0.506592	
-1.43585	0.511169	
-1.43585	0.509644	
-1.4389	0.509644	
-1.44043	0.505066	
-1.44348	0.514221	
-1.44806	0.508118	
-1.45264	0.509644	
-1.44958	0.511169	
-1.45569	0.509644	
-1.46027	0.505066	
-1.46027	0.509644	
-1.4679	0.508118	
-1.4679	0.511169	
-1.46942	0.508118	
-1.47095	0.512695	
-1.47247	0.509644	
-1.47858	0.514221	
-1.48163	0.509644	
-1.48773	0.512695	
-1.48773	0.508118	
-1.49078	0.511169	
-1.49536	0.509644	
-1.49689	0.511169	
-1.50146	0.508118	
-1.50452	0.511169	
-1.50909	0.509644	
-1.51062	0.512695	
-1.5152	0.509644	
-1.5213	0.509644	
-1.52435	0.509644	
-1.52588	0.509644	
-1.53351	0.508118	
-1.53809	0.508118	
-1.54114	0.508118	
-1.54266	0.514221	
-1.54419	0.509644	
-1.55029	0.511169	
-1.55334	0.511169	
-1.5564	0.511169	
-1.55945	0.509644	
-1.5625	0.511169	
-1.56708	0.509644	
-1.57318	0.512695	
-1.57623	0.509644	
-1.57623	0.509644	
-1.58234	0.509644	
-1.58081	0.512695	
-1.58997	0.511169	
-1.59302	0.512695	
-1.59454	0.511169	
-1.59607	0.509644	
-1.60217	0.506592	
-1.60522	0.512695	
-1.61133	0.509644	
-1.61133	0.511169	
-1.61438	0.508118	
-1.61438	0.511169	
-1.62354	0.511169	
-1.62201	0.511169	
-1.62659	0.512695	
-1.62964	0.511169	
-1.63116	0.512695	
-1.63269	0.511169	
-1.63727	0.509644	
-1.64032	0.508118	
-1.6449	0.512695	
-1.6449	0.511169	
-1.65405	0.512695	
-1.65253	0.512695	
-1.65558	0.508118	
-1.65863	0.509644	
-1.66168	0.511169	
-1.66168	0.512695	
-1.66779	0.509644	
-1.66626	0.511169	
-1.67084	0.512695	
-1.67236	0.509644	
-1.67694	0.511169	
-1.67694	0.509644	
-1.68152	0.514221	
-1.6861	0.511169	
-1.69067	0.511169	
-1.69067	0.509644	
-1.6922	0.511169	
-1.69525	0.505066	
-1.69983	0.509644	
-1.6983	0.509644	
-1.69983	0.509644	
-1.70135	0.511169	
-1.70593	0.515747	
-1.70593	0.511169	
-1.70898	0.512695	
-1.71204	0.511169	
-1.71356	0.509644	
-1.71356	0.506592	
-1.71661	0.511169	
-1.72119	0.508118	
-1.72424	0.511169	
-1.72729	0.512695	
-1.72729	0.515747	
-1.72882	0.512695	
-1.73035	0.511169	
-1.73645	0.509644	
-1.7395	0.508118	
-1.73798	0.508118	
-1.74255	0.509644	
-1.74561	0.508118	
-1.74713	0.511169	
-1.74713	0.514221	
-1.74866	0.517273	
-1.75323	0.511169	
-1.75171	0.514221	
-1.75781	0.512695	
-1.76086	0.506592	
-1.76086	0.502014	
-1.76086	0.509644	
-1.76392	0.509644	
-1.76544	0.509644	
-1.76697	0.509644	
-1.76849	0.517273	
-1.77307	0.512695	
-1.7746	0.514221	
-1.77612	0.514221	
-1.77765	0.511169	
-1.7807	0.50354	
-1.7807	0.509644	
-1.78833	0.511169	
-1.7868	0.512695	
-1.78986	0.512695	
-1.78833	0.518799	
-1.78986	0.512695	
-1.79901	0.511169	
-1.79596	0.514221	
-1.79749	0.509644	
-1.80206	0.505066	
-1.80359	0.511169	
-1.80664	0.511169	
-1.80969	0.514221	
-1.81427	0.514221	
-1.81274	0.524902	
-1.81274	0.511169	
-1.81885	0.514221	
-1.81885	0.509644	
-1.81732	0.511169	
-1.82343	0.50354	
-1.8219	0.512695	
-1.82495	0.512695	
-1.82648	0.514221	
-1.828	0.511169	
-1.83105	0.517273	
-1.83716	0.511169	
-1.83868	0.512695	
-1.84174	0.512695	
-1.84174	0.511169	
-1.84479	0.506592	
-1.84326	0.511169	
-1.84784	0.509644	
-1.84937	0.512695	
-1.85394	0.511169	
-1.85547	0.517273	
-1.85852	0.511169	
-1.86005	0.512695	
-1.86005	0.511169	
-1.8631	0.508118	
-1.86615	0.506592	
-1.86615	0.509644	
-1.8692	0.508118	
-1.87683	0.514221	
-1.87836	0.511169	
-1.88141	0.514221	
-1.88293	0.511169	
-1.88446	0.514221	
-1.88904	0.509644	
-1.88904	0.509644	
-1.88904	0.506592	
-1.89514	0.509644	
-1.89972	0.508118	
-1.89972	0.512695	
-1.90125	0.512695	
-1.90125	0.517273	
-1.9043	0.514221	
-1.90582	0.514221	
-1.9043	0.509644	
-1.90735	0.508118	
-1.9104	0.512695	
-1.90735	0.512695	
-1.9104	0.509644	
-1.9043	0.509644	
-1.90125	0.512695	
-1.89972	0.508118	
-1.89362	0.512695	
-1.88599	0.514221	
-1.87988	0.511169	
-1.87378	0.509644	
-1.8631	0.515747	
-1.85242	0.511169	
-1.83868	0.506592	
-1.82343	0.512695	
-1.81122	0.514221	
-1.79596	0.509644	
-1.77612	0.511169	
-1.76086	0.514221	
-1.74103	0.512695	
-1.72424	0.512695	
-1.70746	0.517273	
-1.68304	0.509644	
-1.66626	0.506592	
-1.64642	0.511169	
-1.62506	0.514221	
-1.6098	0.508118	
-1.58539	0.512695	
-1.57013	0.511169	
-1.54724	0.508118	
-1.53503	0.512695	
-1.51672	0.518799	
-1.49689	0.512695	
-1.48163	0.505066	
-1.46332	0.511169	
-1.44653	0.514221	
-1.43738	0.508118	
-1.42212	0.511169	
-1.40686	0.515747	
-1.39618	0.512695	
-1.38397	0.512695	
-1.37329	0.511169	
-1.36261	0.512695	
-1.35345	0.508118	
-1.3443	0.511169	
-1.33362	0.509644	
-1.32446	0.509644	
-1.31683	0.514221	
-1.30768	0.515747	
-1.30463	0.511169	
-1.30005	0.509644	
-1.29395	0.520325	
-1.28632	0.511169	
-1.28479	0.508118	
-1.28021	0.511169	
-1.27716	0.511169	
-1.27411	0.505066	
-1.27258	0.512695	
-1.26801	0.514221	
-1.26495	0.512695	
-1.26648	0.512695	
-1.26343	0.515747	
-1.2619	0.511169	
-1.2619	0.508118	
-1.25885	0.511169	
-1.2619	0.512695	
-1.25885	0.508118	
-1.26495	0.512695	
-1.2619	0.512695	
-1.25885	0.511169	
-1.25885	0.512695	
-1.2619	0.512695	
-1.2619	0.511169	
-1.26343	0.508118	
-1.26495	0.511169	
-1.26495	0.512695	
-1.26801	0.508118	
-1.26953	0.511169	
-1.26801	0.514221	
-1.26801	0.511169	
-1.26801	0.514221	
-1.26953	0.512695	
-1.27106	0.509644	
-1.27411	0.509644	
-1.27716	0.514221	
-1.27411	0.512695	
-1.27716	0.514221	
-1.27411	0.512695	
-1.27869	0.514221	
-1.28021	0.512695	
-1.27869	0.512695	
-1.28021	0.515747	
-1.28326	0.509644	
-1.28326	0.512695	
-1.28479	0.509644	
-1.28326	0.511169	
-1.28479	0.512695	
-1.28784	0.511169	
-1.28784	0.511169	
-1.29242	0.515747	
-1.29089	0.512695	
-1.29089	0.511169	
-1.29242	0.511169	
-1.29547	0.511169	
-1.30005	0.512695	
-1.30157	0.511169	
-1.3031	0.511169	
-1.3092	0.515747	
-1.30768	0.511169	
-1.3092	0.509644	
-1.31073	0.512695	
-1.31531	0.514221	
-1.31836	0.511169	
-1.32141	0.512695	
-1.32599	0.512695	
-1.32599	0.514221	
-1.33057	0.514221	
-1.33057	0.511169	
-1.33514	0.511169	
-1.3382	0.512695	
-1.34125	0.509644	
-1.3443	0.512695	
-1.3504	0.509644	
-1.34888	0.514221	
-1.35345	0.512695	
-1.35651	0.511169	
-1.35956	0.511169	
-1.35956	0.515747	
-1.36261	0.508118	
-1.36261	0.509644	
-1.36719	0.511169	
-1.37024	0.514221	
-1.37024	0.508118	
-1.37329	0.514221	
-1.37634	0.511169	
-1.37939	0.512695	
-1.37939	0.512695	
-1.38092	0.515747	
-1.3855	0.511169	
-1.38245	0.512695	
-1.3855	0.512695	
-1.3855	0.509644	
-1.38702	0.511169	
-1.3916	0.517273	
-1.39313	0.514221	
-1.3916	0.512695	
-1.3916	0.512695	
-1.39618	0.512695	
-1.39313	0.509644	
-1.39923	0.514221	
-1.39618	0.514221	
-1.39618	0.512695	
-1.39771	0.511169	
-1.39771	0.518799	
-1.39618	0.515747	
-1.40076	0.512695	
-1.40228	0.514221	
-1.40228	0.514221	
-1.40076	0.509644	
-1.40076	0.511169	
-1.39923	0.515747	
-1.40228	0.511169	
-1.40228	0.511169	
-1.40533	0.514221	
-1.40686	0.512695	
-1.40686	0.511169	
-1.40839	0.514221	
-1.40839	0.512695	
-1.40839	0.509644	
-1.40991	0.514221	
-1.40991	0.515747	
-1.40991	0.512695	
-1.41449	0.512695	
-1.41602	0.518799	
-1.41449	0.515747	
-1.41602	0.511169	
-1.41907	0.515747	
-1.42059	0.512695	
-1.42059	0.506592	
-1.42212	0.511169	
-1.42212	0.512695	
-1.42517	0.515747	
-1.4267	0.512695	
-1.42975	0.518799	
-1.4267	0.512695	
-1.43127	0.515747	
-1.43127	0.515747	
-1.43738	0.512695	
-1.43738	0.509644	
-1.4389	0.514221	
-1.44196	0.512695	
-1.44348	0.512695	
-1.44348	0.514221	
-1.44806	0.518799	
-1.44806	0.512695	
-1.45416	0.512695	
-1.45721	0.514221	
-1.46027	0.514221	
-1.46332	0.508118	
-1.4679	0.515747	
-1.46942	0.512695	
-1.46942	0.512695	
-1.474	0.514221	
-1.47552	0.518799	
-1.4801	0.514221	
-1.48315	0.514221	
-1.48621	0.511169	
-1.48773	0.514221	
-1.49231	0.506592	
-1.49841	0.511169	
-1.49841	0.515747	
-1.50146	0.514221	
-1.50604	0.511169	
-1.50909	0.517273	
-1.51215	0.514221	
-1.5152	0.512695	
-1.51978	0.514221	
-1.52588	0.511169	
-1.53198	0.509644	
-1.53198	0.515747	
-1.53198	0.511169	
-1.53961	0.511169	
-1.54114	0.514221	
-1.54419	0.518799	
-1.55182	0.515747	
-1.54877	0.514221	
-1.5564	0.514221	
-1.55945	0.512695	
-1.5625	0.511169	
-1.56708	0.511169	
-1.57166	0.514221	
-1.57318	0.514221	
-1.57928	0.509644	
-1.57928	0.517273	
-1.58234	0.514221	
-1.58997	0.512695	
-1.58997	0.512695	
-1.59454	0.512695	
-1.59607	0.509644	
-1.60065	0.511169	
-1.60065	0.515747	
-1.60675	0.514221	
-1.61285	0.515747	
-1.61438	0.515747	
-1.61743	0.514221	
-1.61743	0.511169	
-1.62354	0.512695	
-1.62659	0.512695	
-1.62964	0.512695	
-1.62964	0.512695	
-1.63422	0.511169	
-1.63727	0.515747	
-1.64032	0.511169	
-1.64642	0.514221	
-1.651	0.515747	
-1.64948	0.515747	
-1.65253	0.514221	
-1.6571	0.515747	
-1.66016	0.515747	
-1.66168	0.512695	
-1.66779	0.517273	
-1.66779	0.514221	
-1.67084	0.512695	
-1.67542	0.512695	
-1.67847	0.515747	
-1.67847	0.512695	
-1.68304	0.511169	
-1.6861	0.512695	
-1.6861	0.509644	
-1.69067	0.511169	
-1.6922	0.511169	
-1.69525	0.512695	
-1.70135	0.515747	
-1.70135	0.514221	
-1.70441	0.512695	
-1.70288	0.515747	
-1.70593	0.515747	
-1.71051	0.511169	
-1.71356	0.514221	
-1.71661	0.511169	
-1.71661	0.514221	
-1.72119	0.512695	
-1.72272	0.514221	
-1.72729	0.515747	
-1.73035	0.514221	
-1.73187	0.512695	
-1.7334	0.512695	
-1.73645	0.511169	
-1.73798	0.512695	
-1.7395	0.512695	
-1.7395	0.514221	
-1.74408	0.517273	
-1.74713	0.514221	
-1.74866	0.511169	
-1.75171	0.514221	
-1.75323	0.514221	
-1.75934	0.515747	
-1.76086	0.517273	
-1.76392	0.517273	
-1.76392	0.511169	
-1.76392	0.514221	
-1.76849	0.517273	
-1.7746	0.514221	
-1.77612	0.511169	
-1.77765	0.515747	
-1.77917	0.512695	
-1.7807	0.514221	
-1.78375	0.511169	
-1.7868	0.523376	
-1.78833	0.511169	
-1.79138	0.518799	
-1.79291	0.515747	
-1.79901	0.514221	
-1.79749	0.512695	
-1.80206	0.514221	
-1.80206	0.514221	
-1.80664	0.512695	
-1.80969	0.515747	
-1.81122	0.518799	
-1.81122	0.511169	
-1.81732	0.515747	
-1.81885	0.512695	
-1.82037	0.514221	
-1.82648	0.511169	
-1.828	0.515747	
-1.828	0.511169	
-1.82953	0.514221	
-1.83105	0.517273	
-1.83105	0.518799	
-1.83716	0.511169	
-1.83868	0.515747	
-1.84326	0.512695	
-1.84479	0.517273	
-1.84631	0.508118	
-1.85089	0.517273	
-1.85242	0.514221	
-1.85394	0.511169	
-1.85394	0.514221	
-1.85547	0.523376	
-1.86157	0.511169	
-1.86157	0.515747	
-1.86462	0.512695	
-1.86768	0.512695	
-1.87225	0.506592	
-1.87378	0.515747	
-1.87531	0.514221	
-1.87683	0.514221	
-1.88446	0.511169	
-1.88446	0.523376	
-1.88599	0.511169	
-1.88599	0.515747	
-1.88751	0.515747	
-1.89514	0.514221	
-1.89514	0.506592	
-1.89972	0.514221	
-1.90277	0.512695	
-1.90277	0.512695	
-1.90582	0.514221	
-1.9104	0.524902	
-1.91193	0.514221	
-1.91956	0.515747	
-1.91956	0.511169	
-1.92261	0.517273	
-1.91956	0.508118	
-1.92871	0.515747	
-1.93024	0.514221	
-1.93329	0.514221	
-1.93481	0.514221	
-1.93939	0.523376	
-1.94092	0.514221	
-1.94244	0.514221	
-1.94397	0.514221	
-1.94855	0.515747	
-1.9516	0.505066	
-1.95313	0.514221	
-1.95618	0.512695	
-1.95923	0.512695	
-1.95618	0.514221	
-1.95923	0.520325	
-1.96075	0.511169	
-1.95923	0.517273	
-1.96075	0.512695	
-1.95923	0.514221	
-1.95618	0.505066	
-1.95618	0.514221	
-1.95465	0.508118	
-1.95313	0.515747	
-1.94855	0.511169	
-1.94092	0.523376	
-1.93787	0.515747	
-1.92719	0.518799	
-1.92413	0.515747	
-1.91345	0.514221	
-1.90277	0.506592	
-1.89056	0.517273	
-1.88293	0.511169	
-1.86615	0.514221	
-1.85394	0.515747	
-1.83868	0.520325	
-1.82495	0.511169	
-1.80817	0.517273	
-1.78986	0.514221	
-1.77155	0.515747	
-1.75476	0.509644	
-1.7395	0.514221	
-1.72119	0.509644	
-1.70135	0.512695	
-1.6861	0.517273	
-1.66626	0.523376	
-1.64795	0.512695	
-1.63116	0.518799	
-1.61285	0.518799	
-1.59912	0.514221	
-1.58539	0.508118	
-1.5686	0.514221	
-1.5564	0.514221	
-1.54266	0.514221	
-1.53046	0.515747	
-1.51367	0.520325	
-1.50452	0.512695	
-1.49231	0.517273	
-1.48163	0.515747	
-1.47552	0.512695	
-1.46179	0.508118	
-1.45264	0.515747	
-1.44348	0.512695	
-1.43738	0.514221	
-1.42975	0.517273	
-1.42517	0.518799	
-1.41907	0.517273	
-1.41144	0.518799	
-1.40533	0.518799	
-1.40076	0.515747	
-1.40076	0.509644	
-1.39313	0.517273	
-1.3916	0.512695	
-1.39008	0.512695	
-1.38855	0.514221	
-1.38397	0.517273	
-1.38397	0.515747	
-1.38397	0.517273	
-1.38092	0.512695	
-1.38245	0.512695	
-1.38245	0.511169	
-1.38397	0.514221	
-1.38092	0.511169	
-1.38397	0.515747	
-1.37939	0.512695	
-1.38702	0.515747	
-1.3855	0.514221	
-1.38702	0.515747	
-1.38702	0.512695	
-1.38702	0.511169	
-1.38855	0.514221	
-1.3916	0.515747	
-1.3916	0.512695	
-1.3916	0.511169	
-1.39618	0.514221	
-1.39465	0.515747	
-1.40076	0.515747	
-1.40076	0.518799	
-1.40228	0.512695	
-1.40228	0.512695	
-1.40533	0.514221	
-1.40991	0.517273	
-1.41449	0.512695	
-1.41144	0.512695	
-1.41602	0.515747	
-1.41754	0.512695	
-1.41907	0.515747	
-1.42212	0.518799	
-1.42059	0.515747	
-1.42517	0.512695	
-1.4267	0.517273	
-1.4267	0.515747	
-1.42822	0.514221	
-1.43127	0.514221	
-1.43433	0.515747	
-1.4328	0.514221	
-1.43738	0.514221	
-1.43738	0.514221	
-1.44043	0.514221	
-1.44196	0.515747	
-1.44196	0.514221	
-1.44653	0.517273	
-1.44958	0.514221	
-1.45416	0.511169	
-1.45721	0.517273	
-1.45874	0.512695	
-1.46179	0.514221	
-1.46332	0.518799	
-1.4679	0.517273	
-1.47247	0.512695	
-1.474	0.514221	
-1.47552	0.514221	
-1.48315	0.515747	
-1.48163	0.515747	
-1.48621	0.515747	
-1.48773	0.514221	
-1.49384	0.512695	
-1.49536	0.514221	
-1.49689	0.514221	
-1.50299	0.514221	
-1.50452	0.517273	
-1.50909	0.515747	
-1.51062	0.515747	
-1.51367	0.514221	
-1.5152	0.515747	
-1.51825	0.512695	
-1.52283	0.515747	
-1.52893	0.517273	
-1.52893	0.517273	
-1.53351	0.512695	
-1.53503	0.518799	
-1.53656	0.514221	
-1.53809	0.512695	
-1.54266	0.514221	
-1.54114	0.514221	
-1.54266	0.514221	
-1.54724	0.515747	
-1.54724	0.514221	
-1.54724	0.517273	
-1.55182	0.517273	
-1.55029	0.518799	
-1.54877	0.517273	
-1.55029	0.517273	
-1.55029	0.517273	
-1.55334	0.515747	
-1.55334	0.511169	
-1.55182	0.517273	
-1.55182	0.515747	
-1.55487	0.517273	
-1.55182	0.514221	
-1.55334	0.517273	
-1.55334	0.514221	
-1.55487	0.515747	
-1.55487	0.515747	
-1.55487	0.515747	
-1.5564	0.509644	
-1.55792	0.515747	
-1.5564	0.514221	
-1.55945	0.517273	
-1.56097	0.514221	
-1.55945	0.523376	
-1.55945	0.512695	
-1.55945	0.517273	
-1.56097	0.514221	
-1.56097	0.517273	
-1.55792	0.509644	
-1.56403	0.515747	
-1.56097	0.512695	
-1.56097	0.517273	
-1.56097	0.518799	
-1.55945	0.526428	
-1.56403	0.517273	
-1.5625	0.514221	
-1.56403	0.514221	
-1.56708	0.515747	
-1.56708	0.509644	
-1.5686	0.515747	
-1.57166	0.512695	
-1.57013	0.515747	
-1.57318	0.514221	
-1.57318	0.524902	
-1.57318	0.514221	
-1.57471	0.515747	
-1.57623	0.514221	
-1.58081	0.517273	
-1.57928	0.511169	
-1.58234	0.514221	
-1.58234	0.512695	
-1.58691	0.517273	
-1.58691	0.515747	
-1.58997	0.523376	
-1.59302	0.517273	
-1.59607	0.517273	
-1.59607	0.517273	
-1.60065	0.514221	
-1.59912	0.514221	
-1.60522	0.514221	
-1.60522	0.512695	
-1.61285	0.515747	
-1.61438	0.514221	
-1.61591	0.517273	
-1.62048	0.511169	
-1.62354	0.515747	
-1.62354	0.512695	
-1.62964	0.515747	
-1.62811	0.518799	
-1.63116	0.512695	
-1.63574	0.511169	
-1.63727	0.515747	
-1.6449	0.512695	
-1.651	0.514221	
-1.65253	0.514221	
-1.65253	0.515747	
-1.6571	0.518799	
-1.6571	0.515747	
-1.66168	0.518799	
-1.66321	0.515747	
-1.66779	0.514221	
-1.67236	0.514221	
-1.67694	0.512695	
-1.68152	0.512695	
-1.68457	0.514221	
-1.68762	0.520325	
-1.68915	0.515747	
-1.69525	0.514221	
-1.6983	0.520325	
-1.69983	0.517273	
-1.70593	0.515747	
-1.70746	0.517273	
-1.71204	0.515747	
-1.71509	0.509644	
-1.71661	0.512695	
-1.72272	0.520325	
-1.72424	0.512695	
-1.73035	0.514221	
-1.73187	0.520325	
-1.73492	0.520325	
-1.73798	0.514221	
-1.74408	0.514221	
-1.74561	0.515747	
-1.74713	0.508118	
-1.75171	0.512695	
-1.75934	0.515747	
-1.76086	0.515747	
-1.75934	0.514221	
-1.76392	0.520325	
-1.76697	0.518799	
-1.77155	0.514221	
-1.7746	0.515747	
-1.77612	0.517273	
-1.77917	0.506592	
-1.78528	0.511169	
-1.78986	0.518799	
-1.7868	0.514221	
-1.79138	0.514221	
-1.79596	0.518799	
-1.79901	0.518799	
-1.80359	0.514221	
-1.80206	0.514221	
-1.80969	0.515747	
-1.81274	0.512695	
-1.81274	0.512695	
-1.81427	0.517273	
-1.81885	0.514221	
-1.82343	0.512695	
-1.8219	0.518799	
-1.82648	0.517273	
-1.828	0.512695	
-1.83105	0.517273	
-1.83563	0.518799	
-1.84021	0.512695	
-1.84021	0.512695	
-1.84326	0.518799	
-1.84479	0.514221	
-1.84631	0.514221	
-1.85089	0.517273	
-1.85089	0.517273	
-1.86005	0.514221	
-1.85852	0.514221	
-1.86005	0.515747	
-1.8631	0.515747	
-1.86615	0.515747	
-1.87225	0.517273	
-1.87531	0.515747	
-1.87683	0.515747	
-1.87988	0.515747	
-1.88446	0.517273	
-1.88293	0.512695	
-1.88904	0.514221	
-1.89056	0.517273	
-1.89362	0.514221	
-1.89667	0.515747	
-1.89819	0.515747	
-1.89972	0.514221	
-1.90277	0.511169	
-1.9043	0.517273	
-1.9104	0.514221	
-1.91193	0.514221	
-1.91345	0.518799	
-1.91498	0.517273	
-1.91803	0.514221	
-1.91956	0.514221	
-1.92413	0.515747	
-1.92413	0.514221	
-1.92719	0.512695	
-1.93329	0.514221	
-1.93176	0.517273	
-1.93634	0.514221	
-1.93787	0.518799	
-1.93939	0.517273	
-1.94397	0.515747	
-1.9455	0.514221	
-1.94855	0.514221	
-1.94855	0.517273	
-1.9516	0.514221	
-1.95465	0.518799	
-1.9577	0.517273	
-1.95618	0.514221	
-1.96228	0.515747	
-1.96228	0.520325	
-1.96533	0.512695	
-1.96686	0.511169	
-1.96991	0.512695	
-1.97296	0.515747	
-1.97449	0.511169	
-1.97601	0.517273	
-1.97754	0.517273	
-1.98059	0.514221	
-1.98059	0.514221	
-1.98669	0.520325	
-1.98669	0.515747	
-1.98822	0.512695	
-1.98975	0.515747	
-1.9928	0.512695	
-1.99432	0.511169	
-1.99585	0.518799	
-1.99585	0.517273	
-2.00195	0.517273	
-2.00348	0.518799	
-2.00348	0.523376	
-2.00806	0.512695	
-2.005	0.511169	
-2.01111	0.514221	
-2.00958	0.514221	
-2.01416	0.514221	
-2.01416	0.517273	
-2.01721	0.520325	
-2.01721	0.518799	
-2.02179	0.517273	
-2.02484	0.517273	
-2.02484	0.515747	
-2.02942	0.512695	
-2.03094	0.512695	
-2.03552	0.512695	
-2.03705	0.512695	
-2.0401	0.515747	
-2.0401	0.520325	
-2.04468	0.518799	
-2.0462	0.520325	
-2.04773	0.515747	
-2.05231	0.518799	
-2.05231	0.514221	
-2.05536	0.509644	
-2.05994	0.517273	
-2.05994	0.511169	
-2.06604	0.515747	
-2.06604	0.518799	
-2.06757	0.518799	
-2.07062	0.518799	
-2.07214	0.523376	
-2.07367	0.515747	
-2.07672	0.514221	
-2.07825	0.512695	
-2.07977	0.514221	
-2.0813	0.512695	
-2.08282	0.517273	
-2.08282	0.518799	
-2.0813	0.520325	
-2.08282	0.515747	
-2.0813	0.520325	
-2.07977	0.518799	
-2.07672	0.514221	
-2.07367	0.511169	
-2.07214	0.515747	
-2.06604	0.511169	
-2.05841	0.517273	
-2.05536	0.515747	
-2.04926	0.520325	
-2.03857	0.518799	
-2.03094	0.524902	
-2.02179	0.514221	
-2.00958	0.514221	
-1.9989	0.511169	
-1.98364	0.514221	
-1.97296	0.512695	
-1.9577	0.518799	
-1.94244	0.515747	
-1.92413	0.520325	
-1.91193	0.517273	
-1.89362	0.520325	
-1.87683	0.514221	
-1.85547	0.517273	
-1.84021	0.509644	
-1.8219	0.514221	
-1.80206	0.511169	
-1.78375	0.512695	
-1.77155	0.518799	
-1.75323	0.520325	
-1.73645	0.515747	
-1.72272	0.520325	
-1.70441	0.515747	
-1.68915	0.515747	
-1.67542	0.511169	
-1.66168	0.520325	
-1.64642	0.512695	
-1.63269	0.514221	
-1.62048	0.518799	
-1.61133	0.523376	
-1.60217	0.518799	
-1.59149	0.523376	
-1.58234	0.517273	
-1.57166	0.515747	
-1.56403	0.511169	
-1.55792	0.515747	
-1.54877	0.512695	
-1.54266	0.512695	
-1.53503	0.517273	
-1.52588	0.520325	
-1.52283	0.517273	
-1.51672	0.520325	
-1.5152	0.518799	
-1.51215	0.514221	
-1.51062	0.509644	
-1.50757	0.512695	
-1.50452	0.514221	
-1.49994	0.515747	
-1.49841	0.517273	
-1.49994	0.520325	
-1.49689	0.515747	
-1.49689	0.517273	
-1.49536	0.517273	
-1.49689	0.514221	
-1.49689	0.514221	
-1.49536	0.512695	
-1.49689	0.514221	
-1.49689	0.514221	
-1.49994	0.518799	
-1.49994	0.520325	
-1.50146	0.518799	
-1.50452	0.515747	
-1.50452	0.518799	
-1.50757	0.517273	
-1.51062	0.512695	
-1.51062	0.515747	
-1.51062	0.514221	
-1.51672	0.517273	
-1.51825	0.515747	
-1.51825	0.520325	
-1.52283	0.515747	
-1.52435	0.517273	
-1.52588	0.518799	
-1.52893	0.515747	
-1.53351	0.514221	
-1.53351	0.517273	
-1.53656	0.514221	
-1.53809	0.515747	
-1.54114	0.517273	
-1.54724	0.517273	
-1.54877	0.514221	
-1.54877	0.520325	
-1.54877	0.518799	
-1.55334	0.518799	
-1.5564	0.512695	
-1.55945	0.515747	
-1.5625	0.511169	
-1.56403	0.514221	
-1.56403	0.517273	
-1.57013	0.518799	
-1.57318	0.515747	
-1.57318	0.517273	
-1.57623	0.518799	
-1.57928	0.515747	
-1.57928	0.514221	
-1.58234	0.517273	
-1.58691	0.514221	
-1.59149	0.517273	
-1.59454	0.515747	
-1.5976	0.517273	
-1.59912	0.517273	
-1.60217	0.514221	
-1.60675	0.520325	
-1.6098	0.512695	
-1.61133	0.512695	
-1.61591	0.512695	
-1.61896	0.511169	
-1.62354	0.511169	
-1.62506	0.515747	
-1.63269	0.517273	
-1.63269	0.520325	
-1.63574	0.517273	
-1.63727	0.523376	
-1.6449	0.515747	
-1.6449	0.514221	
-1.651	0.514221	
-1.65405	0.512695	
-1.6571	0.515747	
-1.6571	0.517273	
-1.66016	0.515747	
-1.66321	0.518799	
-1.66473	0.517273	
-1.66626	0.523376	
-1.66931	0.514221	
-1.66931	0.518799	
-1.67236	0.517273	
-1.67236	0.515747	
-1.67236	0.512695	
-1.67694	0.518799	
-1.67847	0.514221	
-1.67847	0.518799	
-1.67847	0.518799	
-1.67847	0.520325	
-1.68152	0.515747	
-1.68457	0.518799	
-1.68304	0.514221	
-1.6861	0.514221	
-1.68152	0.511169	
-1.68457	0.518799	
-1.68457	0.514221	
-1.68304	0.517273	
-1.68457	0.517273	
-1.6861	0.524902	
-1.68457	0.515747	
-1.68457	0.524902	
-1.68762	0.517273	
-1.6861	0.515747	
-1.68457	0.514221	
-1.68304	0.517273	
-1.6861	0.508118	
-1.68152	0.517273	
-1.68304	0.518799	
-1.68304	0.520325	
-1.67847	0.517273	
-1.68304	0.524902	
-1.68304	0.515747	
-1.68304	0.514221	
-1.68152	0.514221	
-1.68152	0.515747	
-1.68304	0.506592	
-1.68457	0.517273	
-1.68457	0.517273	
-1.67847	0.515747	
-1.68304	0.515747	
-1.68152	0.520325	
-1.68457	0.515747	
-1.68762	0.515747	
-1.6861	0.514221	
-1.68915	0.515747	
-1.6861	0.509644	
-1.68762	0.517273	
-1.6861	0.514221	
-1.69067	0.518799	
-1.6922	0.514221	
-1.6922	0.523376	
-1.69525	0.512695	
-1.69373	0.515747	
-1.6983	0.515747	
-1.69678	0.515747	
-1.70135	0.506592	
-1.70135	0.514221	
-1.70593	0.515747	
-1.70746	0.518799	
-1.70898	0.515747	
-1.71509	0.531006	
-1.71356	0.515747	
-1.71661	0.517273	
-1.71661	0.514221	
-1.72272	0.514221	
-1.72272	0.505066	
-1.72729	0.515747	
-1.73187	0.514221	
-1.73187	0.524902	
-1.73645	0.514221	
-1.73645	0.527954	
-1.74255	0.514221	
-1.74408	0.518799	
-1.74713	0.517273	
-1.75171	0.520325	
-1.75171	0.502014	
-1.75781	0.517273	
-1.76086	0.515747	
-1.76239	0.515747	
-1.76849	0.515747	
-1.77002	0.52948	
-1.77002	0.518799	
-1.77765	0.518799	
-1.77765	0.517273	
-1.78223	0.514221	
-1.78375	0.50354	
-1.78833	0.518799	
-1.78833	0.515747	
-1.79138	0.515747	
-1.79901	0.517273	
-1.80359	0.527954	
-1.80511	0.517273	
-1.80511	0.517273	
-1.80969	0.518799	
-1.81274	0.520325	
-1.8158	0.505066	
-1.81885	0.517273	
-1.82343	0.512695	
-1.828	0.517273	
-1.82648	0.515747	
-1.83411	0.52948	
-1.83716	0.512695	
-1.83868	0.517273	
-1.84174	0.517273	
-1.84326	0.515747	
-1.85089	0.506592	
-1.84937	0.515747	
-1.85547	0.515747	
-1.85547	0.518799	
-1.85852	0.515747	
-1.86157	0.527954	
-1.86768	0.518799	
-1.8692	0.514221	
-1.87225	0.515747	
-1.87378	0.515747	
-1.87683	0.505066	
-1.88141	0.517273	
-1.88751	0.517273	
-1.88599	0.515747	
-1.88904	0.515747	
-1.89209	0.520325	
-1.89514	0.515747	
-1.89667	0.517273	
-1.90125	0.515747	
-1.90277	0.515747	
-1.90735	0.511169	
-1.91345	0.518799	
-1.9165	0.514221	
-1.91803	0.517273	
-1.92108	0.515747	
-1.92413	0.523376	
-1.92719	0.517273	
-1.92871	0.515747	
-1.93329	0.515747	
-1.93481	0.514221	
-1.93787	0.511169	
-1.94092	0.518799	
-1.94397	0.514221	
-1.9455	0.515747	
-1.95007	0.517273	
-1.95465	0.518799	
-1.95465	0.512695	
-1.95923	0.515747	
-1.96075	0.517273	
-1.96228	0.515747	
-1.96533	0.514221	
-1.96991	0.518799	
-1.96686	0.515747	
-1.97296	0.514221	
-1.97449	0.517273	
-1.97296	0.518799	
-1.97754	0.514221	
-1.98212	0.514221	
-1.98364	0.518799	
-1.98364	0.514221	
-1.98669	0.512695	
-1.99127	0.518799	
-1.9928	0.515747	
-1.99432	0.517273	
-1.9989	0.515747	
-2.00043	0.515747	
-2.00348	0.514221	
-2.00348	0.515747	
-2.005	0.514221	
-2.00958	0.512695	
-2.00806	0.515747	
-2.01111	0.515747	
-2.01111	0.515747	
-2.01569	0.517273	
-2.01721	0.517273	
-2.02026	0.514221	
-2.02789	0.512695	
-2.02789	0.517273	
-2.02789	0.514221	
-2.034	0.514221	
-2.03705	0.523376	
-2.03705	0.517273	
-2.03552	0.514221	
-2.04163	0.515747	
-2.0462	0.515747	
-2.0462	0.508118	
-2.04926	0.514221	
-2.05078	0.515747	
-2.05383	0.515747	
-2.05383	0.515747	
-2.05536	0.526428	
-2.05994	0.517273	
-2.06299	0.515747	
-2.06604	0.515747	
-2.06451	0.517273	
-2.06757	0.506592	
-2.07062	0.512695	
-2.06909	0.518799	
-2.0752	0.515747	
-2.07825	0.517273	
-2.07977	0.527954	
-2.07825	0.517273	
-2.08435	0.514221	
-2.0874	0.517273	
-2.0874	0.520325	
-2.0874	0.50354	
-2.08893	0.514221	
-2.09198	0.515747	
-2.08893	0.518799	
-2.09198	0.512695	
-2.09503	0.526428	
-2.09198	0.520325	
-2.09198	0.514221	
-2.08893	0.515747	
-2.0874	0.515747	
-2.08435	0.50354	
-2.08435	0.512695	
-2.07825	0.515747	
-2.07367	0.512695	
-2.07214	0.512695	
-2.06451	0.527954	
-2.05688	0.517273	
-2.05231	0.514221	
-2.04315	0.512695	
-2.03552	0.517273	
-2.02484	0.506592	
-2.01111	0.515747	
-2.00043	0.518799	
-1.98669	0.517273	
-1.97601	0.515747	
-1.96686	0.523376	
-1.95007	0.518799	
-1.93024	0.517273	
-1.91956	0.512695	
-1.90125	0.518799	
-1.88751	0.508118	
-1.8692	0.515747	
-1.85394	0.514221	
-1.84174	0.517273	
-1.81885	0.512695	
-1.80664	0.523376	
-1.78986	0.515747	
-1.77307	0.515747	
-1.75781	0.512695	
-1.74561	0.517273	
-1.73187	0.512695	
-1.71967	0.515747	
-1.70593	0.515747	
-1.69525	0.517273	
-1.67847	0.514221	
-1.66779	0.518799	
-1.66016	0.515747	
-1.64948	0.515747	
-1.63727	0.514221	
-1.62964	0.517273	
-1.61896	0.512695	
-1.61591	0.514221	
-1.60828	0.514221	
-1.59912	0.515747	
-1.59454	0.514221	
-1.59149	0.518799	
-1.58539	0.518799	
-1.57928	0.515747	
-1.57471	0.514221	
-1.57166	0.517273	
-1.57166	0.512695	
-1.56708	0.514221	
-1.5625	0.517273	
-1.56097	0.515747	
-1.55945	0.514221	
-1.5564	0.514221	
-1.55487	0.517273	
-1.55487	0.514221	
-1.5564	0.514221	
-1.55334	0.517273	
-1.55487	0.514221	
-1.55334	0.509644	
-1.55792	0.515747	
-1.5564	0.517273	
-1.55792	0.512695	
-1.55792	0.514221	
-1.55792	0.518799	
-1.55945	0.514221	
-1.56403	0.514221	
-1.5625	0.517273	
-1.5625	0.517273	
-1.5686	0.512695	
-1.57166	0.518799	
-1.57471	0.517273	
-1.57623	0.512695	
-1.57776	0.512695	
-1.58081	0.518799	
-1.58539	0.517273	
-1.58539	0.515747	
-1.59149	0.520325	
-1.59302	0.517273	
-1.59607	0.511169	
-1.5976	0.515747	
-1.60065	0.515747	
-1.60217	0.514221	
-1.60828	0.514221	
-1.61133	0.514221	
-1.61285	0.515747	
-1.61591	0.512695	
-1.61896	0.515747	
-1.62354	0.514221	
-1.62201	0.512695	
-1.62811	0.517273	
-1.63116	0.514221	
-1.63422	0.515747	
-1.63879	0.515747	
-1.63879	0.515747	
-1.64642	0.517273	
-1.64642	0.514221	
-1.651	0.515747	
-1.65405	0.517273	
-1.6571	0.512695	
-1.66168	0.515747	
-1.66321	0.517273	
-1.66779	0.512695	
-1.66779	0.517273	
-1.67236	0.515747	
-1.68152	0.514221	
-1.68304	0.512695	
-1.68762	0.518799	
-1.69373	0.514221	
-1.69678	0.512695	
-1.70135	0.514221	
-1.70288	0.517273	
-1.70593	0.512695	
-1.71204	0.517273	
-1.71661	0.515747	
-1.72119	0.514221	
-1.72424	0.514221	
-1.72729	0.514221	
-1.73187	0.515747	
-1.73492	0.512695	
-1.73798	0.514221	
-1.74103	0.515747	
-1.74255	0.512695	
-1.74408	0.514221	
-1.74866	0.518799	
-1.75323	0.512695	
-1.75476	0.514221	
-1.75781	0.515747	
-1.75934	0.514221	
-1.76544	0.509644	
-1.76697	0.514221	
-1.76697	0.517273	
-1.77002	0.517273	
-1.77155	0.515747	
-1.77307	0.517273	
-1.77307	0.515747	
-1.77612	0.511169	
-1.7746	0.511169	
-1.77917	0.518799	
-1.77917	0.514221	
-1.77765	0.517273	
-1.7807	0.514221	
-1.7807	0.514221	
-1.7807	0.512695	
-1.78528	0.514221	
-1.78528	0.514221	
-1.78375	0.512695	
-1.78375	0.514221	
-1.78375	0.514221	
-1.78375	0.512695	
-1.78375	0.515747	
-1.78528	0.517273	
-1.78375	0.512695	
-1.78375	0.514221	
-1.78528	0.515747	
-1.78528	0.515747	
-1.78528	0.514221	
-1.78223	0.514221	
-1.78223	0.514221	
-1.78223	0.511169	
-1.78375	0.514221	
-1.78223	0.518799	
-1.7868	0.515747	
-1.78375	0.515747	
-1.78528	0.515747	
-1.78528	0.512695	
-1.78375	0.512695	
-1.78375	0.518799	
-1.78833	0.514221	
-1.78986	0.512695	
-1.78833	0.515747	
-1.78833	0.515747	
-1.78986	0.514221	
-1.79138	0.515747	
-1.79138	0.517273	
-1.79138	0.515747	
-1.79596	0.517273	
-1.79596	0.515747	
-1.79901	0.515747	
-1.79901	0.518799	
-1.80054	0.515747	
-1.80359	0.515747	
-1.80511	0.515747	
-1.80664	0.515747	
-1.81122	0.515747	
-1.80817	0.518799	
-1.81274	0.512695	
-1.81427	0.515747	
-1.81732	0.515747	
-1.8219	0.512695	
-1.82037	0.514221	
-1.82495	0.514221	
-1.828	0.515747	
-1.83105	0.515747	
-1.83716	0.517273	
-1.83716	0.512695	
-1.83716	0.514221	
-1.84174	0.515747	
-1.84784	0.514221	
-1.84937	0.514221	
-1.85089	0.518799	
-1.85242	0.514221	
-1.85852	0.514221	
-1.86005	0.515747	
-1.86462	0.515747	
-1.86768	0.515747	
-1.86615	0.515747	
-1.87225	0.515747	
-1.87378	0.515747	
-1.87683	0.515747	
-1.88141	0.514221	
-1.88599	0.515747	
-1.88904	0.514221	
-1.88904	0.518799	
-1.89362	0.517273	
-1.89209	0.517273	
-1.90125	0.515747	
-1.90277	0.514221	
-1.90277	0.514221	
-1.9104	0.514221	
-1.9104	0.517273	
-1.91498	0.514221	
-1.9165	0.515747	
-1.92261	0.518799	
-1.92413	0.518799	
-1.92719	0.514221	
-1.93176	0.517273	
-1.93329	0.515747	
-1.94092	0.512695	
-1.94092	0.514221	
-1.94244	0.511169	
-1.9455	0.517273	
-1.95313	0.517273	
-1.95618	0.511169	
-1.9577	0.517273	
-1.95923	0.514221	
-1.96533	0.512695	
-1.96533	0.514221	
-1.96991	0.515747	
-1.97296	0.515747	
-1.97906	0.514221	
-1.97906	0.518799	
-1.98059	0.514221	
-1.98975	0.515747	
-1.98669	0.517273	
-1.98975	0.517273	
-1.99432	0.512695	
-1.99585	0.515747	
-1.9989	0.515747	
-2.00348	0.512695	
-2.00653	0.514221	
-2.00958	0.512695	
-2.01111	0.514221	
-2.01569	0.515747	
-2.01721	0.515747	
-2.01874	0.517273	
-2.02484	0.515747	
-2.02637	0.517273	
-2.02789	0.514221	
-2.03247	0.515747	
-2.034	0.509644	
-2.0401	0.517273	
-2.0401	0.515747	
-2.04315	0.515747	
-2.04163	0.515747	
-2.0462	0.515747	
-2.0462	0.514221	
-2.05231	0.512695	
-2.05231	0.518799	
-2.05536	0.512695	
-2.05994	0.515747	
-2.06299	0.515747	
-2.06604	0.511169	
-2.06604	0.514221	
-2.07062	0.517273	
-2.07062	0.512695	
-2.07367	0.514221	
-2.0752	0.514221	
-2.07977	0.517273	
-2.08435	0.515747	
-2.08435	0.514221	
-2.0874	0.515747	
-2.08893	0.515747	
-2.09351	0.514221	
-2.09503	0.515747	
-2.09656	0.515747	
-2.10419	0.517273	
-2.10419	0.511169	
-2.10724	0.517273	
-2.11029	0.514221	
-2.11029	0.512695	
-2.11334	0.518799	
-2.11487	0.515747	
-2.11639	0.515747	
-2.12097	0.512695	
-2.11945	0.514221	
-2.12402	0.514221	
-2.12708	0.515747	
-2.13013	0.515747	
-2.13623	0.514221	
-2.1347	0.512695	
-2.13928	0.518799	
-2.14539	0.512695	
-2.14233	0.515747	
-2.14844	0.515747	
-2.14844	0.517273	
-2.15149	0.514221	
-2.15607	0.515747	
-2.15759	0.514221	
-2.15759	0.517273	
-2.16064	0.512695	
-2.16217	0.517273	
-2.16827	0.512695	
-2.16675	0.517273	
-2.1698	0.514221	
-2.17133	0.515747	
-2.17743	0.517273	
-2.17896	0.517273	
-2.18048	0.512695	
-2.18201	0.515747	
-2.18201	0.514221	
-2.18811	0.515747	
-2.18811	0.514221	
-2.18964	0.512695	
-2.19269	0.512695	
-2.19421	0.514221	
-2.19727	0.514221	
-2.20032	0.515747	
-2.20337	0.514221	
-2.20337	0.514221	
-2.20337	0.511169	
-2.2049	0.515747	
-2.20795	0.512695	
-2.20795	0.514221	
-2.20642	0.514221	
-2.20947	0.517273	
-2.20795	0.512695	
-2.20642	0.517273	
-2.2049	0.514221	
-2.20337	0.518799	
-2.20337	0.509644	
-2.19574	0.517273	
-2.19421	0.514221	
-2.18964	0.515747	
-2.18506	0.512695	
-2.17896	0.517273	
-2.1698	0.515747	
-2.16064	0.515747	
-2.15149	0.512695	
-2.14233	0.515747	
-2.13013	0.514221	
-2.11945	0.514221	
-2.10419	0.512695	
-2.08893	0.511169	
-2.07672	0.509644	
-2.05841	0.520325	
-2.04163	0.512695	
-2.02484	0.520325	
-2.00806	0.515747	
-1.99127	0.517273	
-1.97144	0.517273	
-1.9516	0.515747	
-1.93176	0.512695	
-1.9104	0.517273	
-1.89514	0.514221	
-1.87531	0.517273	
-1.85394	0.515747	
-1.83868	0.517273	
-1.81885	0.515747	
-1.80206	0.512695	
-1.78528	0.517273	
-1.77002	0.512695	
-1.75476	0.512695	
-1.73798	0.514221	
-1.72729	0.511169	
-1.71051	0.514221	
-1.6983	0.517273	
-1.6861	0.517273	
-1.67542	0.512695	
-1.66473	0.517273	
-1.6571	0.518799	
-1.64642	0.515747	
-1.63574	0.517273	
-1.62659	0.511169	
-1.62201	0.514221	
-1.61285	0.515747	
-1.6098	0.515747	
-1.60065	0.518799	
-1.59912	0.512695	
-1.58997	0.515747	
-1.58539	0.515747	
-1.58539	0.514221	
-1.57928	0.514221	
-1.57776	0.514221	
-1.57318	0.512695	
-1.57166	0.514221	
-1.57013	0.518799	
-1.5686	0.515747	
-1.56708	0.512695	
-1.57013	0.514221	
-1.57013	0.514221	
-1.5686	0.514221	
-1.5686	0.515747	
-1.5686	0.515747	
-1.56708	0.514221	
-1.5686	0.512695	
-1.57166	0.515747	
-1.57013	0.517273	
-1.57471	0.512695	
-1.57623	0.517273	
-1.57623	0.518799	
-1.57928	0.515747	
-1.57928	0.514221	
-1.58386	0.514221	
-1.58691	0.511169	
-1.58691	0.512695	
-1.58844	0.512695	
-1.59149	0.514221	
-1.58997	0.514221	
-1.59912	0.515747	
-1.59912	0.518799	
-1.60065	0.512695	
-1.60065	0.515747	
-1.60522	0.512695	
-1.60675	0.514221	
-1.6098	0.511169	
-1.61133	0.514221	
-1.61591	0.517273	
-1.61591	0.514221	
-1.61743	0.515747	
-1.62201	0.518799	
-1.62354	0.515747	
-1.62354	0.515747	
-1.62811	0.515747	
-1.62964	0.512695	
-1.63269	0.514221	
-1.63574	0.515747	
-1.63727	0.514221	
-1.63727	0.514221	
-1.64032	0.515747	
-1.64642	0.518799	
-1.64795	0.514221	
-1.64795	0.515747	
-1.65253	0.511169	
-1.65405	0.514221	
-1.65558	0.512695	
-1.66016	0.514221	
-1.66168	0.517273	
-1.66321	0.514221	
-1.66626	0.515747	
-1.67084	0.517273	
-1.67236	0.515747	
-1.67389	0.517273	
-1.67847	0.512695	
-1.67847	0.514221	
-1.6861	0.511169	
-1.68915	0.515747	
-1.68915	0.512695	
-1.69067	0.514221	
-1.69678	0.517273	
-1.6983	0.523376	
-1.70135	0.515747	
-1.70288	0.514221	
-1.70441	0.512695	
-1.70746	0.512695	
-1.71051	0.511169	
-1.71204	0.517273	
-1.71509	0.512695	
-1.71967	0.515747	
-1.72119	0.514221	
-1.72272	0.524902	
-1.72272	0.514221	
-1.72729	0.515747	
-1.73035	0.515747	
-1.73187	0.512695	
-1.7334	0.506592	
-1.73645	0.515747	
-1.73645	0.511169	
-1.74103	0.515747	
-1.73798	0.517273	
-1.74255	0.524902	
-1.74103	0.514221	
-1.74408	0.518799	
-1.74255	0.514221	
-1.74866	0.511169	
-1.74866	0.508118	
-1.75018	0.512695	
-1.75018	0.509644	
-1.75018	0.514221	
-1.75018	0.517273	
-1.75018	0.520325	
-1.75171	0.515747	
-1.75476	0.515747	
-1.75323	0.515747	
-1.75323	0.515747	
-1.75476	0.506592	
-1.75934	0.515747	
-1.75476	0.511169	
-1.75781	0.514221	
-1.75323	0.512695	
-1.75476	0.517273	
-1.75781	0.514221	
-1.75934	0.517273	
-1.76086	0.512695	
-1.75781	0.515747	
-1.75934	0.509644	
-1.76086	0.514221	
-1.75934	0.509644	
-1.76086	0.512695	
-1.76086	0.515747	
-1.76239	0.520325	
-1.76239	0.515747	
-1.76086	0.515747	
-1.75781	0.514221	
-1.76544	0.515747	
-1.76392	0.511169	
-1.76849	0.514221	
-1.77002	0.508118	
-1.76697	0.514221	
-1.77002	0.514221	
-1.77307	0.514221	
-1.77002	0.515747	
-1.77155	0.518799	
-1.7746	0.514221	
-1.7746	0.509644	
-1.77765	0.514221	
-1.77612	0.512695	
-1.77612	0.511169	
-1.77917	0.514221	
-1.7807	0.511169	
-1.78375	0.514221	
-1.78375	0.515747	
-1.78528	0.520325	
-1.78833	0.512695	
-1.79138	0.515747	
-1.78986	0.517273	
-1.79138	0.512695	
-1.79596	0.508118	
-1.79901	0.514221	
-1.80206	0.515747	
-1.80054	0.512695	
-1.80511	0.512695	
-1.80664	0.520325	
-1.80817	0.514221	
-1.81274	0.515747	
-1.81274	0.518799	
-1.8158	0.514221	
-1.82037	0.509644	
-1.82343	0.515747	
-1.82495	0.514221	
-1.82648	0.505066	
-1.83105	0.514221	
-1.83563	0.518799	
-1.83716	0.512695	
-1.84326	0.514221	
-1.84479	0.518799	
-1.84631	0.514221	
-1.84784	0.511169	
-1.85089	0.514221	
-1.85242	0.514221	
-1.85547	0.509644	
-1.85852	0.512695	
-1.86462	0.518799	
-1.86615	0.512695	
-1.86615	0.515747	
-1.8692	0.518799	
-1.8692	0.512695	
-1.87683	0.508118	
-1.87836	0.512695	
-1.88141	0.512695	
-1.88751	0.508118	
-1.89056	0.512695	
-1.89209	0.515747	
-1.89514	0.514221	
-1.89972	0.514221	
-1.90125	0.518799	
-1.90582	0.512695	
-1.90735	0.511169	
-1.90735	0.514221	
-1.91498	0.511169	
-1.9165	0.508118	
-1.92108	0.515747	
-1.92261	0.517273	
-1.92413	0.514221	
-1.92719	0.512695	
-1.93176	0.518799	
-1.93329	0.514221	
-1.93634	0.511169	
-1.93939	0.512695	
-1.94244	0.514221	
-1.94397	0.511169	
-1.9455	0.515747	
-1.95007	0.515747	
-1.95313	0.515747	
-1.9577	0.512695	
-1.96228	0.517273	
-1.96381	0.514221	
-1.96838	0.511169	
-1.97144	0.514221	
-1.97449	0.512695	
-1.97601	0.514221	
-1.98059	0.514221	
-1.98212	0.514221	
-1.98822	0.514221	
-1.98669	0.515747	
-1.9928	0.515747	
-1.9989	0.512695	
-1.9989	0.514221	
-1.9989	0.512695	
-2.00043	0.514221	
-2.00653	0.512695	
-2.00958	0.514221	
-2.00958	0.515747	
-2.01416	0.517273	
-2.01416	0.515747	
-2.01874	0.517273	
-2.01874	0.512695	
-2.02484	0.512695	
-2.02484	0.511169	
-2.02789	0.511169	
-2.02942	0.511169	
-2.03247	0.515747	
-2.034	0.517273	
-2.034	0.514221	
-2.03705	0.514221	
-2.03857	0.514221	
-2.04315	0.514221	
-2.04163	0.512695	
-2.0462	0.508118	
-2.04926	0.515747	
-2.04926	0.517273	
-2.05078	0.515747	
-2.05383	0.515747	
-2.05688	0.514221	
-2.05841	0.517273	
-2.05994	0.514221	
-2.06299	0.512695	
-2.06757	0.514221	
-2.06757	0.511169	
-2.07214	0.512695	
-2.0752	0.512695	
-2.0752	0.514221	
-2.07977	0.512695	
-2.08282	0.514221	
-2.08435	0.514221	
-2.08588	0.514221	
-2.0874	0.512695	
-2.09045	0.512695	
-2.09351	0.511169	
-2.09503	0.514221	
-2.09808	0.514221	
-2.10266	0.514221	
-2.10571	0.512695	
-2.10876	0.514221	
-2.10876	0.515747	
-2.11487	0.514221	
-2.11487	0.509644	
-2.11792	0.515747	
-2.11945	0.512695	
-2.12097	0.512695	
-2.12402	0.512695	
-2.12555	0.514221	
-2.12555	0.511169	
-2.13013	0.514221	
-2.13165	0.515747	
-2.1347	0.515747	
-2.13623	0.511169	
-2.13928	0.512695	
-2.14233	0.515747	
-2.14233	0.514221	
-2.14691	0.515747	
-2.14691	0.514221	
-2.14996	0.511169	
-2.14844	0.514221	
-2.14996	0.514221	
-2.15302	0.515747	
-2.15302	0.509644	
-2.15454	0.514221	
-2.15607	0.514221	
-2.15607	0.514221	
-2.15454	0.512695	
-2.15454	0.515747	
-2.15302	0.512695	
-2.14996	0.515747	
-2.14844	0.514221	
-2.14233	0.511169	
-2.13928	0.512695	
-2.13013	0.517273	
-2.12708	0.512695	
-2.11792	0.511169	
-2.11182	0.514221	
-2.10266	0.511169	
-2.09198	0.509644	
-2.08282	0.514221	
-2.06757	0.514221	
-2.05536	0.514221	
-2.0401	0.514221	
-2.02789	0.517273	
-2.01263	0.512695	
-1.99432	0.512695	
-1.97449	0.512695	
-1.95923	0.514221	
-1.93787	0.509644	
-1.92108	0.512695	
-1.90582	0.511169	
-1.88599	0.511169	
-1.86768	0.511169	
-1.84937	0.517273	
-1.83105	0.514221	
-1.81427	0.514221	
-1.79749	0.512695	
-1.78375	0.515747	
-1.76544	0.508118	
-1.74866	0.515747	
-1.73492	0.514221	
-1.72272	0.512695	
-1.70898	0.512695	
-1.69525	0.518799	
-1.68457	0.512695	
-1.67084	0.512695	
-1.66016	0.512695	
-1.64948	0.514221	
-1.63879	0.508118	
-1.62964	0.514221	
-1.62354	0.514221	
-1.61591	0.514221	
-1.60828	0.511169	
-1.59912	0.520325	
-1.5976	0.514221	
-1.59149	0.514221	
-1.58539	0.515747	
-1.57928	0.515747	
-1.57776	0.508118	
-1.57623	0.514221	
-1.57318	0.514221	
-1.57166	0.511169	
-1.57013	0.515747	
-1.56403	0.515747	
-1.56403	0.512695	
-1.5625	0.512695	
-1.56403	0.512695	
-1.56708	0.514221	
-1.56403	0.508118	
-1.56403	0.512695	
-1.56403	0.514221	
-1.57013	0.512695	
-1.57166	0.515747	
-1.57166	0.518799	
-1.57318	0.514221	
-1.57471	0.514221	
-1.57623	0.514221	
-1.57928	0.511169	
-1.58386	0.508118	
-1.58539	0.509644	
-1.58691	0.511169	
-1.59454	0.512695	
-1.59149	0.511169	
-1.59454	0.517273	
-1.5976	0.512695	
-1.60065	0.511169	
-1.60217	0.515747	
-1.60828	0.511169	
-1.61285	0.509644	
-1.61743	0.511169	
-1.61743	0.512695	
-1.61896	0.512695	
-1.62201	0.508118	
-1.62964	0.517273	
-1.62811	0.514221	
-1.63269	0.514221	
-1.63269	0.512695	
-1.63727	0.509644	
-1.64032	0.511169	
-1.64337	0.512695	
-1.64642	0.514221	
-1.64795	0.512695	
-1.65405	0.512695	
-1.65405	0.514221	
-1.6571	0.514221	
-1.66016	0.512695	
-1.66321	0.509644	
-1.66473	0.511169	
-1.66931	0.511169	
-1.66779	0.509644	
-1.67236	0.514221	
-1.67542	0.515747	
-1.67694	0.515747	
-1.67847	0.515747	
-1.6861	0.514221	
-1.6861	0.514221	
-1.68915	0.512695	
-1.6922	0.512695	
-1.69525	0.506592	
-1.6983	0.512695	
-1.70135	0.511169	
-1.70135	0.512695	
-1.70898	0.514221	
-1.71051	0.515747	
-1.71661	0.514221	
-1.72272	0.509644	
-1.72424	0.511169	
-1.72577	0.512695	
-1.72729	0.509644	
-1.73187	0.514221	
-1.7334	0.514221	
-1.73798	0.512695	
-1.74103	0.508118	
-1.74408	0.515747	
-1.74561	0.511169	
-1.75018	0.514221	
-1.75476	0.511169	
-1.75781	0.512695	
-1.76086	0.512695	
-1.76086	0.509644	
-1.76544	0.512695	
-1.76544	0.512695	
-1.77002	0.514221	
-1.77155	0.515747	
-1.77155	0.514221	
-1.7746	0.511169	
-1.77765	0.514221	
-1.77917	0.512695	
-1.7807	0.512695	
-1.78528	0.512695	
-1.78375	0.512695	
-1.7868	0.511169	
-1.78528	0.509644	
-1.78833	0.514221	
-1.79138	0.514221	
-1.79291	0.514221	
-1.79749	0.514221	
-1.79596	0.509644	
-1.79596	0.512695	
-1.79749	0.511169	
-1.79749	0.511169	
-1.79901	0.511169	
-1.79596	0.511169	
-1.80206	0.511169	
-1.79901	0.514221	
-1.79901	0.512695	
-1.80359	0.511169	
-1.80054	0.511169	
-1.79901	0.514221	
-1.80511	0.511169	
-1.80054	0.514221	
-1.80054	0.512695	
-1.80206	0.514221	
-1.80511	0.512695	
-1.80206	0.512695	
-1.80359	0.511169	
-1.80664	0.509644	
-1.80511	0.515747	
-1.80664	0.512695	
-1.80817	0.512695	
-1.81122	0.514221	
-1.80969	0.512695	
-1.81427	0.514221	
-1.81427	0.511169	
-1.81427	0.514221	
-1.8158	0.509644	
-1.8158	0.512695	
-1.81732	0.512695	
-1.81732	0.512695	
-1.82037	0.509644	
-1.82037	0.509644	
-1.82343	0.512695	
-1.82495	0.514221	
-1.82495	0.509644	
-1.82648	0.514221	
-1.83563	0.509644	
-1.83411	0.511169	
-1.83411	0.512695	
-1.83563	0.517273	
-1.83868	0.512695	
-1.84174	0.514221	
-1.84326	0.512695	
-1.84631	0.514221	
-1.84631	0.509644	
-1.85089	0.512695	
-1.85089	0.509644	
-1.85394	0.512695	
-1.85547	0.512695	
-1.86005	0.515747	
-1.86462	0.509644	
-1.86615	0.512695	
-1.8692	0.512695	
-1.87225	0.514221	
-1.87683	0.506592	
-1.87683	0.514221	
-1.88141	0.511169	
-1.88599	0.511169	
-1.88599	0.512695	
-1.89056	0.517273	
-1.89209	0.514221	
-1.89514	0.512695	
-1.90125	0.511169	
-1.9043	0.512695	
-1.90582	0.508118	
-1.91345	0.514221	
-1.91193	0.511169	
-1.91498	0.511169	
-1.91956	0.512695	
-1.92413	0.520325	
-1.92719	0.509644	
-1.93024	0.514221	
-1.93176	0.509644	
-1.93481	0.509644	
-1.93787	0.50354	
-1.93939	0.512695	
-1.94397	0.508118	
-1.9455	0.512695	
-1.9516	0.514221	
-1.95618	0.515747	
-1.9577	0.511169	
-1.96228	0.512695	
-1.96228	0.511169	
-1.96991	0.514221	
-1.97144	0.50354	
-1.97906	0.515747	
-1.97754	0.509644	
-1.98364	0.515747	
-1.98669	0.511169	
-1.9928	0.518799	
-1.99432	0.508118	
-1.99585	0.512695	
-1.9989	0.512695	
-2.00348	0.511169	
-2.005	0.50354	
-2.01111	0.514221	
-2.01111	0.508118	
-2.01569	0.514221	
-2.01721	0.511169	
-2.02026	0.520325	
-2.02484	0.509644	
-2.02789	0.512695	
-2.034	0.512695	
-2.034	0.511169	
-2.03705	0.505066	
-2.04163	0.512695	
-2.04315	0.509644	
-2.0462	0.515747	
-2.04926	0.512695	
-2.05231	0.518799	
-2.05841	0.511169	
-2.05994	0.515747	
-2.06604	0.511169	
-2.06757	0.514221	
-2.07062	0.505066	
-2.07214	0.515747	
-2.0752	0.511169	
-2.07825	0.511169	
-2.08282	0.511169	
-2.08435	0.518799	
-2.08893	0.512695	
-2.09045	0.514221	
-2.09198	0.509644	
-2.09503	0.512695	
-2.09503	0.505066	
-2.10266	0.512695	
-2.10266	0.509644	
-2.10876	0.509644	
-2.10876	0.509644	
-2.11334	0.518799	
-2.11182	0.512695	
-2.11639	0.514221	
-2.11792	0.514221	
-2.1225	0.511169	
-2.1225	0.506592	
-2.1286	0.514221	
-2.12708	0.509644	
-2.13013	0.511169	
-2.13165	0.511169	
-2.1347	0.517273	
-2.13928	0.509644	
-2.13928	0.512695	
-2.14386	0.509644	
-2.14539	0.512695	
-2.14539	0.505066	
-2.15149	0.514221	
-2.14996	0.511169	
-2.15302	0.511169	
-2.15607	0.512695	
-2.15759	0.518799	
-2.16217	0.511169	
-2.16064	0.515747	
-2.16522	0.512695	
-2.16522	0.508118	
-2.16827	0.505066	
-2.17285	0.515747	
-2.17438	0.509644	
-2.17743	0.512695	
-2.18048	0.511169	
-2.18201	0.518799	
-2.18506	0.508118	
-2.18964	0.517273	
-2.18964	0.512695	
-2.19269	0.511169	
-2.19421	0.50354	
-2.19421	0.511169	
-2.19879	0.509644	
-2.19879	0.509644	
-2.20184	0.512695	
-2.2049	0.515747	
-2.2049	0.509644	
-2.211	0.515747	
-2.211	0.511169	
-2.21252	0.512695	
-2.22015	0.50354	
-2.22015	0.514221	
-2.22473	0.509644	
-2.22626	0.511169	
-2.22626	0.511169	
-2.23236	0.514221	
-2.23083	0.511169	
-2.23389	0.515747	
-2.23846	0.515747	
-2.23694	0.509644	
-2.23694	0.508118	
-2.23694	0.514221	
-2.23846	0.508118	
-2.23999	0.511169	
-2.23846	0.512695	
-2.24152	0.518799	
-2.23694	0.511169	
-2.23541	0.514221	
-2.23541	0.514221	
-2.23083	0.512695	
-2.23236	0.505066	
-2.22778	0.511169	
-2.22321	0.508118	
-2.21863	0.509644	
-2.211	0.511169	
-2.20337	0.514221	
-2.19727	0.509644	
-2.18811	0.514221	
-2.17896	0.512695	
-2.16675	0.509644	
-2.15607	0.512695	
-2.14233	0.511169	
-2.12708	0.508118	
-2.11487	0.512695	
-2.10114	0.512695	
-2.0874	0.511169	
-2.07062	0.508118	
-2.05536	0.514221	
-2.03857	0.511169	
-2.01874	0.511169	
-2.00195	0.512695	
-1.98669	0.509644	
-1.96686	0.506592	
-1.9516	0.514221	
-1.92871	0.511169	
-1.91345	0.511169	
-1.89514	0.508118	
-1.88141	0.514221	
-1.86462	0.512695	
-1.84937	0.511169	
-1.83563	0.511169	
-1.82037	0.512695	
-1.80817	0.508118	
-1.79138	0.509644	
-1.7807	0.511169	
-1.76849	0.508118	
-1.75476	0.511169	
-1.74408	0.509644	
-1.7334	0.515747	
-1.72424	0.511169	
-1.71967	0.512695	
-1.70898	0.511169	
-1.70288	0.509644	
-1.69525	0.509644	
-1.69067	0.511169	
-1.68304	0.511169	
-1.67847	0.512695	
-1.67236	0.512695	
-1.66931	0.511169	
-1.66779	0.512695	
-1.66321	0.514221	
-1.66473	0.511169	
-1.66016	0.511169	
-1.65863	0.508118	
-1.65863	0.514221	
-1.65405	0.509644	
-1.65405	0.511169	
-1.65405	0.514221	
-1.65253	0.512695	
-1.65405	0.511169	
-1.65405	0.511169	
-1.65863	0.514221	
-1.6571	0.509644	
-1.6571	0.506592	
-1.66168	0.512695	
-1.66016	0.509644	
-1.66321	0.508118	
-1.66626	0.509644	
-1.66321	0.512695	
-1.67084	0.512695	
-1.67084	0.509644	
-1.67236	0.514221	
-1.67542	0.509644	
-1.67694	0.508118	
-1.68304	0.511169	
-1.68152	0.508118	
-1.6861	0.511169	
-1.69067	0.512695	
-1.69067	0.512695	
-1.6922	0.509644	
-1.69525	0.509644	
-1.6983	0.509644	
-1.69983	0.514221	
-1.70135	0.511169	
-1.70441	0.511169	
-1.70746	0.509644	
-1.70746	0.514221	
-1.71509	0.511169	
-1.71356	0.511169	
-1.71509	0.509644	
-1.72119	0.514221	
-1.72729	0.509644	
-1.72882	0.509644	
-1.72882	0.508118	
-1.73035	0.512695	
-1.7334	0.508118	
-1.7395	0.509644	
-1.7395	0.509644	
-1.74255	0.511169	
-1.74713	0.509644	
-1.75018	0.512695	
-1.75476	0.508118	
-1.75781	0.511169	
-1.75934	0.514221	
-1.76544	0.511169	
-1.76849	0.505066	
-1.77155	0.511169	
-1.77612	0.509644	
-1.77917	0.514221	
-1.77917	0.509644	
-1.7868	0.517273	
-1.7868	0.509644	
-1.79596	0.511169	
-1.79596	0.508118	
-1.80054	0.511169	
-1.80359	0.50354	
-1.80969	0.512695	
-1.81122	0.511169	
-1.81427	0.509644	
-1.81885	0.511169	
-1.8219	0.517273	
-1.8219	0.512695	
-1.82495	0.512695	
-1.83105	0.511169	
-1.82953	0.509644	
-1.83411	0.50354	
-1.84021	0.508118	
-1.84021	0.508118	
-1.84326	0.512695	
-1.84631	0.511169	
-1.84937	0.520325	
-1.84937	0.511169	
-1.85089	0.509644	
-1.85547	0.511169	
-1.85547	0.511169	
-1.85852	0.506592	
-1.86157	0.511169	
-1.86462	0.506592	
-1.8631	0.511169	
-1.8692	0.511169	
-1.8692	0.515747	
-1.87225	0.509644	
-1.87378	0.512695	
-1.87225	0.508118	
-1.87531	0.511169	
-1.87378	0.509644	
-1.87988	0.509644	
-1.87988	0.509644	
-1.87836	0.512695	
-1.88141	0.508118	
-1.88293	0.512695	
-1.88293	0.512695	
-1.88446	0.512695	
-1.88599	0.509644	
-1.88446	0.511169	
-1.88751	0.509644	
-1.88751	0.511169	
-1.88751	0.508118	
-1.88904	0.511169	
-1.88904	0.508118	
-1.88904	0.514221	
-1.89056	0.511169	
-1.89056	0.512695	
-1.89056	0.512695	
-1.89209	0.509644	
-1.88904	0.512695	
-1.89209	0.511169	
-1.89514	0.509644	
-1.89514	0.514221	
-1.89514	0.511169	
-1.89667	0.509644	
-1.89819	0.511169	
-1.89819	0.511169	
-1.89819	0.511169	
-1.89972	0.508118	
-1.89972	0.515747	
-1.90125	0.509644	
-1.90125	0.508118	
-1.90582	0.509644	
-1.90582	0.508118	
-1.9104	0.50354	
-1.9104	0.506592	
-1.90735	0.515747	
-1.9104	0.509644	
-1.91498	0.511169	
-1.91193	0.514221	
-1.91498	0.512695	
-1.9165	0.505066	
-1.9165	0.508118	
-1.91803	0.509644	
-1.92108	0.506592	
-1.92261	0.508118	
-1.92261	0.511169	
-1.92719	0.511169	
-1.92719	0.511169	
-1.92871	0.517273	
-1.93024	0.514221	
-1.93176	0.509644	
-1.93481	0.511169	
-1.93481	0.511169	
-1.94092	0.50354	
-1.94244	0.509644	
-1.94397	0.514221	
-1.94244	0.508118	
-1.95007	0.508118	
-1.9516	0.514221	
-1.95313	0.511169	
-1.95618	0.505066	
-1.95618	0.508118	
-1.95923	0.511169	
-1.96075	0.506592	
-1.96228	0.506592	
-1.96686	0.511169	
-1.97144	0.506592	
-1.97296	0.512695	
-1.97601	0.515747	
-1.97601	0.512695	
-1.98212	0.506592	
-1.98364	0.512695	
-1.98822	0.511169	
-1.99127	0.505066	
-1.9928	0.506592	
-1.99585	0.512695	
-2.00043	0.511169	
-2.00195	0.506592	
-2.005	0.514221	
-2.01111	0.514221	
-2.01263	0.508118	
-2.01263	0.509644	
-2.01721	0.509644	
-2.02484	0.508118	
-2.02789	0.505066	
-2.03094	0.514221	
-2.03094	0.512695	
-2.03705	0.506592	
-2.04163	0.511169	
-2.04468	0.512695	
-2.04468	0.508118	
-2.04926	0.514221	
-2.05231	0.512695	
-2.05536	0.508118	
-2.06451	0.506592	
-2.06757	0.512695	
-2.06909	0.509644	
-2.06909	0.506592	
-2.07367	0.511169	
-2.07825	0.509644	
-2.07977	0.506592	
-2.08282	0.511169	
-2.08893	0.509644	
-2.09045	0.508118	
-2.09503	0.505066	
-2.09808	0.512695	
-2.10114	0.508118	
-2.10419	0.505066	
-2.10724	0.508118	
-2.11182	0.509644	
-2.11487	0.50354	
-2.11182	0.511169	
-2.11945	0.512695	
-2.12097	0.508118	
-2.12402	0.509644	
-2.1286	0.511169	
-2.13165	0.511169	
-2.13318	0.508118	
-2.1347	0.511169	
-2.13928	0.509644	
-2.14081	0.505066	
-2.14386	0.509644	
-2.14844	0.509644	
-2.15149	0.508118	
-2.15607	0.512695	
-2.15912	0.511169	
-2.15759	0.508118	
-2.1637	0.505066	
-2.1698	0.509644	
-2.16827	0.508118	
-2.1698	0.508118	
-2.17285	0.511169	
-2.17743	0.509644	
-2.17896	0.506592	
-2.17896	0.508118	
-2.18811	0.508118	
-2.18658	0.511169	
-2.19269	0.508118	
-2.19269	0.509644	
-2.19727	0.512695	
-2.19727	0.509644	
-2.20184	0.511169	
-2.20337	0.511169	
-2.2049	0.509644	
-2.20947	0.508118	
-2.211	0.511169	
-2.21252	0.508118	
-2.21863	0.505066	
-2.21863	0.509644	
-2.22015	0.512695	
-2.22321	0.508118	
-2.22473	0.509644	
-2.22931	0.514221	
-2.22931	0.506592	
-2.23236	0.505066	
-2.23694	0.512695	
-2.23694	0.509644	
-2.24152	0.508118	
-2.23846	0.512695	
-2.24457	0.514221	
-2.24609	0.509644	
-2.25067	0.506592	
-2.25067	0.512695	
-2.25677	0.508118	
-2.25983	0.506592	
-2.2583	0.509644	
-2.26288	0.505066	
-2.2644	0.509644	
-2.26593	0.511169	
-2.26746	0.512695	
-2.26898	0.511169	
-2.27356	0.512695	
-2.27509	0.511169	
-2.27661	0.508118	
-2.27814	0.506592	
-2.28271	0.505066	
-2.28119	0.506592	
-2.28424	0.505066	
-2.28729	0.512695	
-2.28729	0.509644	
-2.28882	0.511169	
-2.29187	0.512695	
-2.28882	0.514221	
-2.29187	0.508118	
-2.2934	0.506592	
-2.29187	0.506592	
-2.29492	0.508118	
-2.28729	0.505066	
-2.28729	0.509644	
-2.28271	0.512695	
-2.28271	0.511169	
-2.27966	0.512695	
-2.27661	0.512695	
-2.27203	0.506592	
-2.26898	0.508118	
-2.26593	0.508118	
-2.25983	0.505066	
-2.25067	0.50354	
-2.24457	0.508118	
-2.23541	0.514221	
-2.22626	0.508118	
-2.21558	0.512695	
-2.20032	0.511169	
-2.18964	0.508118	
-2.17896	0.506592	
-2.16675	0.506592	
-2.15302	0.502014	
-2.13928	0.50354	
-2.12402	0.511169	
-2.10571	0.512695	
-2.08893	0.509644	
-2.07062	0.511169	
-2.05536	0.512695	
-2.03857	0.506592	
-2.02026	0.506592	
-2.00653	0.505066	
-1.99432	0.508118	
-1.96991	0.505066	
-1.95465	0.509644	
-1.93939	0.508118	
-1.92261	0.511169	
-1.9104	0.511169	
-1.89362	0.511169	
-1.87988	0.509644	
-1.8631	0.509644	
-1.85242	0.505066	
-1.84021	0.506592	
-1.82495	0.50354	
-1.81427	0.505066	
-1.80511	0.509644	
-1.79291	0.512695	
-1.78223	0.508118	
-1.7746	0.512695	
-1.76697	0.508118	
-1.76086	0.506592	
-1.75018	0.50354	
-1.74561	0.505066	
-1.74255	0.50354	
-1.73645	0.506592	
-1.73187	0.509644	
-1.73035	0.509644	
-1.72424	0.509644	
-1.71661	0.517273	
-1.71967	0.508118	
-1.71509	0.511169	
-1.71356	0.500488	
-1.71509	0.508118	
-1.71204	0.502014	
-1.70898	0.505066	
-1.70898	0.509644	
-1.70746	0.511169	
-1.70898	0.508118	
-1.71051	0.512695	
-1.71204	0.506592	
-1.71051	0.508118	
-1.71051	0.505066	
-1.71356	0.506592	
-1.71204	0.506592	
-1.71661	0.508118	
-1.71661	0.511169	
-1.71967	0.511169	
-1.72272	0.509644	
-1.72424	0.511169	
-1.72577	0.508118	
-1.72729	0.50354	
-1.73187	0.505066	
-1.73187	0.505066	
-1.73645	0.502014	
-1.73798	0.509644	
-1.74103	0.508118	
-1.74713	0.509644	
-1.74713	0.506592	
-1.75323	0.515747	
-1.75323	0.509644	
-1.75476	0.505066	
-1.76086	0.50354	
-1.76239	0.505066	
-1.76544	0.498962	
-1.77002	0.508118	
-1.77155	0.505066	
-1.77612	0.511169	
-1.77765	0.509644	
-1.78223	0.514221	
-1.78375	0.511169	
-1.7868	0.505066	
-1.79596	0.500488	
-1.79596	0.50354	
-1.79901	0.505066	
-1.80206	0.508118	
-1.80817	0.508118	
-1.80817	0.512695	
-1.81274	0.508118	
-1.81427	0.512695	
-1.81885	0.509644	
-1.82037	0.505066	
-1.82495	0.50354	
-1.82648	0.502014	
-1.83105	0.50354	
-1.83563	0.506592	
-1.83868	0.508118	
-1.84326	0.509644	
-1.84326	0.511169	
-1.84784	0.514221	
-1.85089	0.511169	
-1.85394	0.505066	
-1.85852	0.502014	
-1.86157	0.509644	
-1.8631	0.500488	
-1.86462	0.506592	
-1.87378	0.506592	
-1.87531	0.511169	
-1.87531	0.511169	
-1.87836	0.509644	
-1.87988	0.509644	
-1.88599	0.505066	
-1.88751	0.506592	
-1.89056	0.506592	
-1.89362	0.505066	
-1.89972	0.505066	
-1.89972	0.505066	
-1.90735	0.511169	
-1.90277	0.508118	
-1.9043	0.511169	
-1.91193	0.508118	
-1.91193	0.508118	
-1.91498	0.502014	
-1.91803	0.50354	
-1.91956	0.505066	
-1.91803	0.50354	
-1.92108	0.506592	
-1.92108	0.509644	
-1.92261	0.506592	
-1.92719	0.511169	
-1.92566	0.509644	
-1.92566	0.50354	
-1.93176	0.506592	
-1.93024	0.50354	
-1.93329	0.505066	
-1.93176	0.502014	
-1.93024	0.506592	
-1.93176	0.509644	
-1.93024	0.512695	
-1.93481	0.512695	
-1.93481	0.509644	
-1.93329	0.508118	
-1.93787	0.505066	
-1.93787	0.505066	
-1.93787	0.505066	
-1.93634	0.50354	
-1.93634	0.505066	
-1.93787	0.509644	
-1.93787	0.508118	
-1.94092	0.511169	
-1.93939	0.508118	
-1.94244	0.506592	
-1.93939	0.506592	
-1.94244	0.505066	
-1.94092	0.50354	
-1.94397	0.505066	
-1.9455	0.506592	
-1.9455	0.508118	
-1.94855	0.509644	
-1.9455	0.508118	
-1.9455	0.511169	
-1.94855	0.506592	
-1.94855	0.506592	
-1.9516	0.505066	
-1.9516	0.505066	
-1.9516	0.502014	
-1.95313	0.508118	
-1.95465	0.506592	
-1.95618	0.508118	
-1.95618	0.506592	
-1.9577	0.509644	
-1.95618	0.509644	
-1.96075	0.508118	
-1.96075	0.505066	
-1.96228	0.50354	
-1.96228	0.502014	
-1.96533	0.508118	
-1.96991	0.506592	
-1.96838	0.509644	
-1.97144	0.509644	
-1.97296	0.509644	
-1.97449	0.506592	
-1.97754	0.506592	
-1.97906	0.505066	
-1.98364	0.502014	
-1.98669	0.502014	
-1.98975	0.505066	
-1.99127	0.508118	
-1.98975	0.505066	
-1.99585	0.506592	
-1.99585	0.509644	
-1.9989	0.509644	
-2.00348	0.509644	
-2.005	0.500488	
-2.00653	0.500488	
-2.00958	0.505066	
-2.01111	0.508118	
-2.01721	0.506592	
-2.01721	0.506592	
-2.01874	0.505066	
-2.02179	0.509644	
-2.02484	0.506592	
-2.02942	0.508118	
-2.03552	0.508118	
-2.03552	0.505066	
-2.03857	0.500488	
-2.04468	0.508118	
-2.04315	0.50354	
-2.04926	0.509644	
-2.04773	0.509644	
-2.05231	0.511169	
-2.05383	0.50354	
-2.05994	0.511169	
-2.05994	0.505066	
-2.06604	0.506592	
-2.06909	0.502014	
-2.07214	0.508118	
-2.07214	0.502014	
-2.0752	0.511169	
-2.07672	0.511169	
-2.0813	0.512695	
-2.08435	0.506592	
-2.08588	0.511169	
-2.08893	0.50354	
-2.09045	0.50354	
-2.09503	0.502014	
-2.09808	0.508118	
-2.10419	0.502014	
-2.10571	0.505066	
-2.10724	0.511169	
-2.11334	0.511169	
-2.11487	0.508118	
-2.11639	0.512695	
-2.11792	0.508118	
-2.12555	0.50354	
-2.12708	0.50354	
-2.1286	0.508118	
-2.13013	0.50354	
-2.1347	0.508118	
-2.14081	0.511169	
-2.14081	0.509644	
-2.14539	0.50354	
-2.14691	0.511169	
-2.15149	0.502014	
-2.15454	0.505066	
-2.15607	0.50354	
-2.15759	0.505066	
-2.16064	0.500488	
-2.1637	0.505066	
-2.1637	0.506592	
-2.16827	0.508118	
-2.17285	0.506592	
-2.17133	0.515747	
-2.17896	0.505066	
-2.18201	0.505066	
-2.18353	0.506592	
-2.18506	0.508118	
-2.18811	0.497437	
-2.19116	0.505066	
-2.19421	0.508118	
-2.19421	0.50354	
-2.20032	0.505066	
-2.20184	0.515747	
-2.20337	0.506592	
-2.20642	0.506592	
-2.211	0.505066	
-2.21252	0.506592	
-2.21558	0.494385	
-2.2171	0.506592	
-2.22015	0.508118	
-2.22168	0.506592	
-2.22626	0.50354	
-2.22778	0.517273	
-2.23083	0.50354	
-2.23236	0.506592	
-2.23694	0.50354	
-2.23846	0.505066	
-2.23999	0.494385	
-2.24304	0.509644	
-2.24609	0.506592	
-2.24915	0.505066	
-2.24915	0.50354	
-2.25372	0.515747	
-2.25525	0.505066	
-2.25677	0.505066	
-2.26135	0.505066	
-2.25983	0.506592	
-2.26288	0.494385	
-2.26135	0.505066	
-2.2583	0.505066	
-2.2583	0.506592	
-2.2583	0.506592	
-2.25677	0.517273	
-2.25067	0.505066	
-2.24915	0.505066	
-2.24915	0.502014	
-2.24609	0.505066	
-2.23999	0.491333	
-2.23541	0.506592	
-2.22931	0.506592	
-2.22626	0.506592	
-2.22168	0.50354	
-2.21558	0.518799	
-2.20337	0.50354	
-2.19574	0.505066	
-2.18506	0.50354	
-2.17285	0.505066	
-2.16522	0.494385	
-2.15149	0.505066	
-2.14386	0.506592	
-2.12708	0.506592	
-2.11487	0.505066	
-2.09808	0.518799	
-2.0874	0.505066	
-2.07367	0.506592	
-2.05841	0.50354	
-2.0462	0.505066	
-2.03247	0.492859	
-2.01569	0.505066	
-1.9989	0.506592	
-1.98212	0.506592	
-1.97144	0.50354	
-1.95618	0.515747	
-1.94092	0.506592	
-1.92871	0.508118	
-1.91803	0.506592	
-1.89972	0.508118	
-1.88904	0.497437	
-1.87683	0.505066	
-1.86462	0.509644	
-1.85394	0.506592	
-1.84021	0.502014	
-1.83105	0.512695	
-1.82037	0.50354	
-1.81122	0.506592	
-1.80511	0.505066	
-1.79749	0.506592	
-1.78986	0.495911	
-1.78223	0.506592	
-1.77612	0.506592	
-1.77307	0.505066	
-1.76544	0.505066	
-1.75934	0.511169	
-1.75323	0.505066	
-1.74866	0.508118	
-1.74561	0.50354	
-1.74103	0.505066	
-1.74255	0.500488	
-1.73798	0.509644	
-1.73645	0.506592	
-1.7334	0.505066	
-1.7334	0.506592	
-1.7334	0.509644	
-1.7334	0.505066	
-1.7334	0.505066	
-1.73035	0.506592	
-1.73187	0.505066	
-1.73187	0.502014	
-1.7334	0.505066	
-1.73187	0.509644	
-1.7334	0.508118	
-1.73798	0.506592	
-1.73798	0.509644	
-1.7395	0.509644	
-1.74103	0.508118	
-1.74255	0.506592	
-1.74561	0.505066	
-1.74561	0.500488	
-1.74713	0.506592	
-1.75171	0.505066	
-1.75323	0.500488	
-1.75781	0.506592	
-1.76086	0.508118	
-1.76086	0.505066	
-1.76392	0.505066	
-1.76697	0.505066	
-1.77155	0.50354	
-1.77612	0.502014	
-1.77612	0.506592	
-1.78223	0.505066	
-1.7807	0.505066	
-1.7868	0.506592	
-1.7868	0.511169	
-1.79138	0.505066	
-1.79901	0.506592	
-1.80054	0.506592	
-1.80359	0.502014	
-1.80511	0.505066	
-1.81274	0.509644	
-1.81274	0.50354	
-1.8158	0.506592	
-1.82037	0.505066	
-1.82343	0.50354	
-1.82648	0.500488	
-1.83411	0.502014	
-1.83716	0.505066	
-1.84021	0.50354	
-1.84326	0.508118	
-1.84631	0.508118	
-1.85089	0.50354	
-1.85394	0.505066	
-1.85852	0.506592	
-1.8631	0.50354	
-1.86615	0.50354	
-1.8692	0.50354	
-1.87531	0.502014	
-1.88141	0.50354	
-1.88293	0.506592	
-1.88599	0.508118	
-1.89209	0.502014	
-1.89514	0.508118	
-1.89514	0.508118	
-1.90125	0.498962	
-1.9043	0.50354	
-1.9104	0.506592	
-1.91498	0.502014	
-1.91956	0.505066	
-1.91803	0.514221	
-1.92261	0.506592	
-1.92566	0.505066	
-1.92871	0.505066	
-1.93329	0.508118	
-1.93787	0.502014	
-1.93787	0.50354	
-1.93939	0.505066	
-1.94244	0.505066	
-1.94855	0.502014	
-1.9455	0.511169	
-1.9516	0.508118	
-1.95313	0.505066	
-1.95313	0.50354	
-1.95465	0.509644	
-1.95618	0.497437	
-1.9577	0.50354	
-1.96228	0.505066	
-1.96075	0.50354	
-1.96228	0.500488	
-1.96075	0.515747	
-1.96075	0.511169	
-1.96381	0.50354	
-1.96533	0.506592	
-1.96686	0.508118	
-1.96533	0.494385	
-1.96686	0.500488	
-1.96533	0.511169	
-1.96381	0.508118	
-1.96686	0.502014	
-1.96533	0.514221	
-1.96838	0.508118	
-1.96686	0.502014	
-1.96838	0.506592	
-1.96838	0.509644	
-1.96838	0.494385	
-1.96991	0.50354	
-1.97296	0.50354	
-1.97449	0.50354	
-1.97296	0.500488	
-1.97296	0.509644	
-1.97449	0.505066	
-1.97144	0.50354	
-1.97296	0.50354	
-1.97601	0.505066	
-1.97601	0.495911	
-1.97754	0.50354	
-1.97906	0.506592	
-1.97906	0.505066	
-1.98059	0.502014	
-1.98059	0.514221	
-1.98364	0.506592	
-1.98059	0.50354	
-1.98669	0.505066	
-1.98669	0.508118	
-1.99127	0.497437	
-1.99127	0.50354	
-1.99127	0.506592	
-1.99585	0.508118	
-1.9989	0.500488	
-1.99585	0.509644	
-1.9989	0.506592	
-2.00348	0.506592	
-2.00653	0.505066	
-2.005	0.508118	
-2.00806	0.497437	
-2.01111	0.506592	
-2.01721	0.508118	
-2.01569	0.505066	
-2.01874	0.502014	
-2.02026	0.508118	
-2.02026	0.505066	
-2.02179	0.506592	
-2.02789	0.506592	
-2.02942	0.506592	
-2.03094	0.498962	
-2.034	0.50354	
-2.03705	0.50354	
-2.04163	0.506592	
-2.04315	0.502014	
-2.04468	0.508118	
-2.04926	0.506592	
-2.05231	0.50354	
-2.05231	0.505066	
-2.05536	0.506592	
-2.05994	0.506592	
-2.06451	0.498962	
-2.06604	0.50354	
-2.06604	0.505066	
-2.07062	0.502014	
-2.07214	0.50354	
-2.07672	0.505066	
-2.07825	0.506592	
-2.07977	0.505066	
-2.08435	0.506592	
-2.0874	0.506592	
-2.09045	0.50354	
-2.09503	0.505066	
-2.09503	0.505066	
-2.09656	0.502014	
-2.10266	0.505066	
-2.10266	0.505066	
-2.10724	0.505066	
-2.10876	0.505066	
-2.11182	0.505066	
-2.11487	0.506592	
-2.11639	0.502014	
-2.12097	0.505066	
-2.12402	0.500488	
-2.12708	0.500488	
-2.13165	0.50354	
-2.1347	0.505066	
-2.1347	0.506592	
-2.13928	0.50354	
-2.14386	0.508118	
-2.14844	0.505066	
-2.14844	0.500488	
-2.14996	0.506592	
-2.15759	0.50354	
-2.15759	0.500488	
-2.16064	0.50354	
-2.1637	0.506592	
-2.16827	0.505066	
-2.17438	0.505066	
-2.17285	0.506592	
-2.17438	0.50354	
-2.18048	0.50354	
-2.18353	0.506592	
-2.18506	0.50354	
-2.18964	0.502014	
-2.19116	0.50354	
-2.19269	0.505066	
-2.19574	0.502014	
-2.20032	0.505066	
-2.20337	0.506592	
-2.20795	0.50354	
-2.20795	0.502014	
-2.20795	0.506592	
-2.21558	0.502014	
-2.2171	0.50354	
-2.22168	0.505066	
-2.22321	0.502014	
-2.22473	0.50354	
-2.22931	0.50354	
-2.22931	0.50354	
-2.23236	0.500488	
-2.23389	0.502014	
-2.23999	0.505066	
-2.24152	0.505066	
-2.23846	0.502014	
-2.24152	0.50354	
-2.24152	0.505066	
-2.24457	0.500488	
-2.24609	0.500488	
-2.24762	0.50354	
-2.24762	0.502014	
-2.24762	0.500488	
-2.24762	0.508118	
-2.24762	0.505066	
-2.24762	0.50354	
-2.24457	0.505066	
-2.24152	0.50354	
-2.24152	0.502014	
-2.23694	0.50354	
-2.23236	0.500488	
-2.22778	0.50354	
-2.22321	0.505066	
-2.2171	0.505066	
-2.20947	0.505066	
-2.20184	0.50354	
-2.19116	0.505066	
-2.18201	0.502014	
-2.16827	0.500488	
-2.15607	0.50354	
-2.14539	0.505066	
-2.13165	0.505066	
-2.11792	0.502014	
-2.10266	0.502014	
-2.0874	0.50354	
-2.06909	0.500488	
-2.05383	0.500488	
-2.03705	0.50354	
-2.01874	0.500488	
-2.005	0.50354	
-1.98669	0.505066	
-1.96838	0.502014	
-1.95313	0.497437	
-1.93481	0.505066	
-1.91803	0.506592	
-1.89972	0.502014	
-1.88446	0.502014	
-1.86462	0.502014	
-1.85394	0.502014	
-1.84021	0.500488	
-1.82343	0.500488	
-1.81274	0.50354	
-1.79749	0.498962	
-1.78528	0.505066	
-1.7746	0.505066	
-1.76544	0.50354	
-1.75476	0.502014	
-1.74408	0.502014	
-1.73798	0.502014	
-1.72577	0.502014	
-1.72119	0.50354	
-1.71204	0.50354	
-1.70746	0.50354	
-1.70135	0.505066	
-1.69678	0.505066	
-1.69067	0.500488	
-1.68762	0.500488	
-1.6861	0.502014	
-1.67694	0.500488	
-1.67389	0.502014	
-1.67389	0.500488	
-1.66931	0.50354	
-1.66779	0.498962	
-1.67084	0.502014	
-1.66779	0.50354	
-1.66779	0.50354	
-1.66626	0.502014	
-1.66779	0.502014	
-1.66779	0.50354	
-1.66626	0.50354	
-1.66626	0.50354	
-1.66779	0.502014	
-1.66779	0.502014	
-1.66779	0.500488	
-1.67236	0.505066	
-1.67236	0.50354	
-1.67389	0.500488	
-1.67389	0.505066	
-1.68152	0.498962	
-1.67847	0.502014	
-1.68304	0.50354	
-1.6861	0.502014	
-1.6861	0.500488	
-1.68915	0.50354	
-1.69373	0.50354	
-1.69525	0.500488	
-1.6983	0.502014	
-1.69983	0.502014	
-1.70135	0.502014	
-1.69983	0.500488	
-1.70746	0.500488	
-1.70746	0.498962	
-1.71509	0.498962	
-1.71661	0.500488	
-1.72272	0.50354	
-1.72424	0.500488	
-1.72882	0.500488	
-1.72882	0.50354	
-1.73492	0.502014	
-1.73798	0.500488	
-1.74103	0.500488	
-1.74255	0.50354	
-1.74408	0.505066	
-1.74866	0.502014	
-1.75018	0.505066	
-1.75781	0.50354	
-1.76239	0.502014	
-1.76392	0.502014	
-1.76697	0.50354	
-1.77002	0.500488	
-1.7746	0.500488	
-1.77917	0.502014	
-1.7807	0.50354	
-1.7868	0.505066	
-1.78833	0.50354	
-1.79291	0.498962	
-1.79596	0.502014	
-1.79901	0.505066	
-1.80359	0.502014	
-1.80969	0.50354	
-1.80969	0.498962	
-1.81274	0.502014	
-1.81732	0.500488	
-1.82037	0.502014	
-1.82343	0.502014	
-1.82953	0.502014	
-1.83563	0.502014	
-1.83716	0.500488	
-1.83716	0.500488	
-1.84326	0.50354	
-1.84479	0.500488	
-1.84937	0.50354	
-1.85242	0.502014	
-1.85699	0.500488	
-1.85547	0.505066	
-1.86157	0.50354	
-1.8631	0.502014	
-1.8631	0.502014	
-1.8692	0.505066	
-1.8692	0.500488	
-1.87531	0.502014	
-1.87225	0.50354	
-1.87683	0.502014	
-1.87836	0.502014	
-1.87836	0.502014	
-1.88141	0.502014	
-1.88446	0.500488	
-1.88141	0.502014	
-1.88293	0.502014	
-1.88293	0.502014	
-1.88446	0.498962	
-1.88599	0.502014	
-1.88751	0.497437	
-1.88751	0.497437	
-1.88751	0.502014	
-1.88751	0.50354	
-1.88599	0.498962	
-1.88904	0.498962	
-1.88904	0.50354	
-1.89056	0.498962	
-1.88904	0.50354	
-1.89056	0.500488	
-1.89056	0.500488	
-1.89209	0.498962	
-1.89362	0.505066	
-1.89362	0.502014	
-1.89667	0.502014	
-1.89209	0.502014	
-1.89056	0.502014	
-1.89362	0.500488	
-1.89514	0.502014	
-1.89362	0.502014	
-1.89514	0.498962	
-1.89667	0.500488	
-1.89972	0.502014	
-1.89667	0.502014	
-1.89972	0.502014	
-1.89819	0.502014	
-1.89819	0.50354	
-1.90125	0.502014	
-1.89972	0.50354	
-1.89972	0.502014	
-1.90277	0.502014	
-1.90582	0.498962	
-1.90735	0.50354	
-1.90582	0.498962	
-1.9104	0.502014	
-1.9104	0.500488	
-1.91498	0.50354	
-1.91345	0.498962	
-1.91345	0.50354	
-1.9165	0.500488	
-1.9165	0.500488	
-1.9165	0.500488	
-1.92108	0.502014	
-1.92261	0.498962	
-1.92413	0.500488	
-1.92871	0.502014	
-1.92871	0.50354	
-1.93329	0.502014	
-1.93481	0.50354	
-1.93176	0.502014	
-1.93787	0.500488	
-1.93787	0.50354	
-1.94092	0.50354	
-1.94855	0.497437	
-1.94855	0.497437	
-1.95007	0.50354	
-1.95313	0.500488	
-1.95007	0.502014	
-1.95465	0.50354	
-1.95465	0.502014	
-1.95923	0.500488	
-1.96075	0.497437	
-1.96686	0.502014	
-1.96686	0.495911	
-1.96991	0.502014	
-1.97449	0.500488	
-1.97296	0.500488	
-1.97754	0.500488	
-1.98212	0.50354	
-1.98212	0.505066	
-1.98822	0.500488	
-1.98975	0.498962	
-1.99432	0.500488	
-1.99585	0.502014	
-1.99585	0.502014	
-2.00043	0.502014	
-2.00195	0.500488	
-2.00653	0.500488	
-2.00958	0.502014	
-2.01263	0.500488	
-2.01263	0.502014	
-2.01721	0.500488	
-2.02026	0.50354	
-2.02484	0.500488	
-2.02942	0.500488	
-2.03094	0.498962	
-2.03247	0.50354	
-2.03705	0.500488	
-2.0401	0.50354	
-2.04315	0.502014	
-2.0462	0.502014	
-2.05231	0.498962	
-2.05231	0.502014	
-2.05383	0.495911	
-2.05841	0.502014	
-2.06451	0.502014	
-2.06604	0.506592	
-2.06757	0.500488	
-2.06909	0.502014	
-2.07672	0.498962	
-2.07825	0.500488	
-2.0813	0.502014	
-2.08282	0.500488	
-2.08588	0.500488	
-2.08893	0.498962	
-2.09351	0.502014	
-2.09351	0.502014	
-2.09808	0.497437	
-2.10419	0.502014	
-2.10724	0.498962	
-2.10876	0.502014	
-2.11182	0.498962	
-2.11792	0.505066	
-2.12097	0.498962	
-2.1225	0.50354	
-2.13013	0.498962	
-2.1286	0.506592	
-2.1286	0.498962	
-2.13623	0.502014	
-2.13623	0.498962	
-2.14233	0.502014	
-2.14386	0.498962	
-2.14691	0.502014	
-2.14844	0.498962	
-2.14996	0.500488	
-2.15607	0.498962	
-2.15302	0.500488	
-2.15454	0.498962	
-2.15454	0.500488	
-2.15759	0.497437	
-2.15454	0.50354	
-2.15454	0.502014	
-2.15302	0.500488	
-2.15149	0.497437	
-2.14691	0.498962	
-2.14539	0.502014	
-2.13623	0.500488	
-2.1347	0.498962	
-2.13013	0.502014	
-2.12097	0.500488	
-2.11182	0.500488	
-2.10571	0.50354	
-2.09503	0.498962	
-2.08435	0.498962	
-2.07367	0.498962	
-2.05841	0.500488	
-2.04315	0.498962	
-2.034	0.497437	
-2.01263	0.500488	
-1.99738	0.502014	
-1.98212	0.498962	
-1.96686	0.502014	
-1.94855	0.502014	
-1.93024	0.497437	
-1.9104	0.498962	
-1.88904	0.500488	
-1.8692	0.498962	
-1.85394	0.500488	
-1.83563	0.500488	
-1.8158	0.500488	
-1.79901	0.502014	
-1.78223	0.502014	
-1.76544	0.498962	
-1.74713	0.498962	
-1.7334	0.498962	
-1.71661	0.498962	
-1.70441	0.502014	
-1.69067	0.505066	
-1.67694	0.502014	
-1.66473	0.500488	
-1.65253	0.502014	
-1.64337	0.502014	
-1.62964	0.500488	
-1.62201	0.497437	
-1.61133	0.502014	
-1.60522	0.498962	
-1.59302	0.500488	
-1.58997	0.500488	
-1.58234	0.502014	
-1.57776	0.500488	
-1.57166	0.498962	
-1.5686	0.502014	
-1.56097	0.500488	
-1.55792	0.500488	
-1.55334	0.502014	
-1.55182	0.497437	
-1.54877	0.498962	
-1.54724	0.498962	
-1.54572	0.500488	
-1.54572	0.498962	
-1.54266	0.502014	
-1.54114	0.500488	
-1.54114	0.497437	
-1.54266	0.497437	
-1.54266	0.497437	
-1.54114	0.497437	
-1.54419	0.497437	
-1.54114	0.502014	
-1.54572	0.498962	
-1.54724	0.500488	
-1.54877	0.500488	
-1.55182	0.50354	
-1.55182	0.495911	
-1.5564	0.497437	
-1.55334	0.498962	
-1.55945	0.497437	
-1.56097	0.495911	
-1.5625	0.500488	
-1.57013	0.500488	
-1.57013	0.500488	
-1.57471	0.502014	
-1.57776	0.50354	
-1.57776	0.495911	
-1.58234	0.498962	
-1.58386	0.500488	
-1.58844	0.497437	
-1.59149	0.494385	
-1.59302	0.500488	
-1.59607	0.500488	
-1.60065	0.498962	
-1.60217	0.500488	
-1.60675	0.50354	
-1.60828	0.497437	
-1.61133	0.497437	
-1.61285	0.498962	
-1.61896	0.497437	
-1.61743	0.494385	
-1.62201	0.502014	
-1.62659	0.497437	
-1.63116	0.500488	
-1.63269	0.502014	
-1.63727	0.505066	
-1.64337	0.498962	
-1.64642	0.505066	
-1.64948	0.500488	
-1.65558	0.498962	
-1.6571	0.494385	
-1.66168	0.502014	
-1.66168	0.497437	
-1.66626	0.498962	
-1.66779	0.500488	
-1.67236	0.508118	
-1.67847	0.498962	
-1.68152	0.500488	
-1.6861	0.498962	
-1.6922	0.498962	
-1.69678	0.494385	
-1.69983	0.500488	
-1.70135	0.495911	
-1.70288	0.498962	
-1.70746	0.502014	
-1.71356	0.506592	
-1.71661	0.498962	
-1.72119	0.502014	
-1.72272	0.497437	
-1.72882	0.495911	
-1.73035	0.491333	
-1.7334	0.500488	
-1.73798	0.497437	
-1.7395	0.498962	
-1.74255	0.502014	
-1.74713	0.509644	
-1.75171	0.495911	
-1.75171	0.50354	
-1.75476	0.498962	
-1.75934	0.497437	
-1.75934	0.491333	
-1.76392	0.498962	
-1.76544	0.495911	
-1.76544	0.500488	
-1.76697	0.500488	
-1.77002	0.506592	
-1.77307	0.497437	
-1.77155	0.502014	
-1.77307	0.500488	
-1.77612	0.497437	
-1.77765	0.492859	
-1.7746	0.502014	
-1.77917	0.495911	
-1.78223	0.502014	
-1.78223	0.500488	
-1.78223	0.502014	
-1.78223	0.500488	
-1.78223	0.502014	
-1.78528	0.498962	
-1.78375	0.497437	
-1.78375	0.491333	
-1.78528	0.498962	
-1.7868	0.495911	
-1.7868	0.498962	
-1.7868	0.50354	
-1.78528	0.50354	
-1.7868	0.497437	
-1.78833	0.50354	
-1.7868	0.498962	
-1.78833	0.497437	
-1.78986	0.494385	
-1.78833	0.500488	
-1.78986	0.492859	
-1.78986	0.498962	
-1.79291	0.500488	
-1.79138	0.502014	
-1.79138	0.500488	
-1.79138	0.50354	
-1.79138	0.497437	
-1.79138	0.498962	
-1.79138	0.497437	
-1.79138	0.498962	
-1.79596	0.495911	
-1.80054	0.498962	
-1.79901	0.50354	
-1.79901	0.500488	
-1.80206	0.502014	
-1.80511	0.505066	
-1.80664	0.497437	
-1.80817	0.495911	
-1.80969	0.498962	
-1.80664	0.495911	
-1.81122	0.494385	
-1.81274	0.500488	
-1.8158	0.500488	
-1.8158	0.491333	
-1.81732	0.502014	
-1.82037	0.505066	
-1.8219	0.502014	
-1.82495	0.495911	
-1.82953	0.50354	
-1.82953	0.500488	
-1.82953	0.494385	
-1.83411	0.500488	
-1.83563	0.497437	
-1.84174	0.494385	
-1.84326	0.498962	
-1.84326	0.502014	
-1.84631	0.500488	
-1.84937	0.498962	
-1.85242	0.502014	
-1.85242	0.497437	
-1.85394	0.497437	
-1.85852	0.497437	
-1.86157	0.497437	
-1.86462	0.491333	
-1.86615	0.498962	
-1.8692	0.50354	
-1.87378	0.497437	
-1.87836	0.497437	
-1.88141	0.50354	
-1.88599	0.497437	
-1.88751	0.495911	
-1.89056	0.497437	
-1.89056	0.497437	
-1.89667	0.492859	
-1.89972	0.502014	
-1.9043	0.502014	
-1.9043	0.497437	
-1.9104	0.494385	
-1.91193	0.505066	
-1.91803	0.498962	
-1.91803	0.492859	
-1.92108	0.502014	
-1.92566	0.497437	
-1.92871	0.494385	
-1.93024	0.497437	
-1.93176	0.50354	
-1.93787	0.497437	
-1.93939	0.498962	
-1.94397	0.502014	
-1.94855	0.497437	
-1.95313	0.494385	
-1.9577	0.498962	
-1.96381	0.498962	
-1.96228	0.491333	
-1.96686	0.498962	
-1.96686	0.502014	
-1.97449	0.498962	
-1.97601	0.497437	
-1.97754	0.50354	
-1.98212	0.497437	
-1.98669	0.492859	
-1.99127	0.497437	
-1.99432	0.498962	
-1.9989	0.495911	
-2.00043	0.497437	
-2.00348	0.502014	
-2.005	0.495911	
-2.01111	0.498962	
-2.01263	0.500488	
-2.01721	0.498962	
-2.01721	0.494385	
-2.02484	0.498962	
-2.02942	0.495911	
-2.03247	0.497437	
-2.03094	0.495911	
-2.03705	0.500488	
-2.03857	0.500488	
-2.04315	0.498962	
-2.04773	0.500488	
-2.05078	0.498962	
-2.04926	0.495911	
-2.05688	0.495911	
-2.05688	0.498962	
-2.06451	0.494385	
-2.06299	0.498962	
-2.06757	0.498962	
-2.07214	0.495911	
-2.06909	0.498962	
-2.06909	0.500488	
-2.07367	0.495911	
-2.07214	0.497437	
-2.07367	0.498962	
-2.07062	0.494385	
-2.07214	0.495911	
-2.06909	0.495911	
-2.06451	0.500488	
-2.06451	0.497437	
-2.05536	0.498962	
-2.05231	0.498962	
-2.04163	0.497437	
-2.034	0.495911	
-2.02637	0.495911	
-2.01721	0.498962	
-2.00653	0.497437	
-1.99432	0.497437	
-1.98059	0.500488	
-1.96686	0.498962	
-1.95313	0.497437	
-1.93787	0.500488	
-1.92108	0.497437	
-1.90735	0.497437	
-1.88904	0.497437	
-1.86768	0.497437	
-1.85394	0.495911	
-1.83411	0.495911	
-1.81732	0.497437	
-1.80054	0.495911	
-1.78223	0.495911	
-1.76544	0.495911	
-1.74866	0.497437	
-1.73187	0.497437	
-1.71661	0.497437	
-1.70288	0.497437	
-1.68915	0.497437	
-1.67084	0.497437	
-1.66016	0.497437	
-1.64795	0.497437	
-1.63422	0.497437	
-1.62354	0.500488	
-1.61133	0.497437	
-1.59912	0.495911	
-1.58997	0.498962	
-1.58234	0.498962	
-1.57623	0.495911	
-1.5686	0.498962	
-1.55792	0.492859	
-1.55334	0.500488	
-1.54572	0.497437	
-1.53961	0.494385	
-1.53503	0.492859	
-1.52893	0.498962	
-1.52435	0.494385	
-1.52283	0.497437	
-1.51978	0.498962	
-1.5152	0.500488	
-1.51215	0.494385	
-1.51062	0.495911	
-1.50757	0.497437	
-1.50757	0.497437	
-1.50757	0.495911	
-1.50604	0.495911	
-1.50146	0.498962	
-1.50299	0.497437	
-1.50299	0.494385	
-1.50452	0.498962	
-1.50452	0.494385	
-1.50452	0.497437	
-1.50604	0.498962	
-1.50757	0.498962	
-1.50909	0.495911	
-1.50757	0.502014	
-1.51062	0.498962	
-1.51062	0.492859	
-1.51672	0.495911	
-1.5152	0.500488	
-1.51978	0.494385	
-1.52283	0.497437	
-1.52283	0.498962	
-1.52435	0.498962	
-1.52588	0.494385	
-1.52588	0.500488	
-1.53656	0.500488	
-1.53503	0.498962	
-1.53809	0.500488	
-1.54266	0.502014	
-1.54266	0.495911	
-1.54724	0.498962	
-1.54724	0.498962	
-1.55029	0.497437	
-1.55487	0.498962	
-1.55792	0.500488	
-1.56097	0.497437	
-1.5686	0.502014	
-1.57013	0.494385	
-1.57166	0.498962	
-1.57166	0.492859	
-1.57776	0.494385	
-1.58081	0.497437	
-1.58386	0.495911	
-1.58539	0.495911	
-1.58997	0.500488	
-1.59302	0.494385	
-1.59607	0.498962	
-1.59912	0.495911	
-1.60217	0.500488	
-1.60828	0.491333	
-1.61285	0.495911	
-1.61896	0.497437	
-1.61896	0.495911	
-1.62506	0.495911	
-1.62811	0.500488	
-1.63269	0.498962	
-1.63727	0.498962	
-1.64337	0.497437	
-1.64642	0.495911	
-1.65253	0.492859	
-1.651	0.497437	
-1.65558	0.495911	
-1.66016	0.498962	
-1.66321	0.494385	
-1.66779	0.50354	
-1.67084	0.498962	
-1.67389	0.495911	
-1.68304	0.497437	
-1.68304	0.497437	
-1.68762	0.491333	
-1.69067	0.495911	
-1.69678	0.498962	
-1.70135	0.497437	
-1.70135	0.497437	
-1.70441	0.50354	
-1.70898	0.497437	
-1.71204	0.495911	
-1.71204	0.494385	
-1.71509	0.497437	
-1.71967	0.489807	
-1.72424	0.497437	
-1.72424	0.497437	
-1.72882	0.497437	
-1.72882	0.500488	
-1.73492	0.50354	
-1.73492	0.497437	
-1.73492	0.497437	
-1.73492	0.494385	
-1.73798	0.495911	
-1.74103	0.492859	
-1.7395	0.494385	
-1.74408	0.495911	
-1.74255	0.497437	
-1.74255	0.494385	
-1.74255	0.502014	
-1.74408	0.498962	
-1.74713	0.494385	
-1.74561	0.497437	
-1.74561	0.497437	
-1.74561	0.491333	
-1.74713	0.495911	
-1.74866	0.495911	
-1.74713	0.495911	
-1.74866	0.497437	
-1.74713	0.502014	
-1.74561	0.497437	
-1.74713	0.497437	
-1.74713	0.498962	
-1.74866	0.498962	
-1.74713	0.491333	
-1.74713	0.494385	
-1.74866	0.497437	
-1.74866	0.497437	
-1.74561	0.494385	
-1.74561	0.498962	
-1.74866	0.500488	
-1.75018	0.497437	
-1.74713	0.495911	
-1.75171	0.497437	
-1.75476	0.492859	
-1.75323	0.497437	
-1.75476	0.497437	
-1.75781	0.495911	
-1.75781	0.492859	
-1.75781	0.500488	
-1.75934	0.497437	
-1.75934	0.497437	
-1.76544	0.497437	
-1.76239	0.494385	
-1.76544	0.492859	
-1.76544	0.494385	
-1.76849	0.494385	
-1.77002	0.494385	
-1.77307	0.494385	
-1.77307	0.500488	
-1.7746	0.498962	
-1.77612	0.495911	
-1.7807	0.495911	
-1.7807	0.497437	
-1.77917	0.495911	
-1.78375	0.494385	
-1.78528	0.497437	
-1.7868	0.497437	
-1.78986	0.495911	
-1.79138	0.500488	
-1.79596	0.498962	
-1.79749	0.497437	
-1.80054	0.495911	
-1.80359	0.497437	
-1.80511	0.492859	
-1.80664	0.495911	
-1.81122	0.498962	
-1.81122	0.495911	
-1.81427	0.495911	
-1.82037	0.497437	
-1.82037	0.498962	
-1.82343	0.495911	
-1.82648	0.495911	
-1.82648	0.495911	
-1.83105	0.494385	
-1.83563	0.495911	
-1.83716	0.495911	
-1.84174	0.497437	
-1.84479	0.495911	
-1.84784	0.498962	
-1.85089	0.497437	
-1.85547	0.495911	
-1.85547	0.492859	
-1.85852	0.497437	
-1.86615	0.494385	
-1.86615	0.495911	
-1.86768	0.494385	
-1.87378	0.495911	
-1.87683	0.492859	
-1.88141	0.495911	
-1.88599	0.498962	
-1.88599	0.497437	
-1.89056	0.495911	
-1.89362	0.495911	
-1.89514	0.497437	
-1.89819	0.494385	
-1.90125	0.495911	
-1.90582	0.497437	
-1.91193	0.497437	
-1.91193	0.494385	
-1.91498	0.495911	
-1.91956	0.495911	
-1.92261	0.495911	
-1.92719	0.495911	
-1.93024	0.495911	
-1.93329	0.494385	
-1.93787	0.492859	
-1.93939	0.492859	
-1.94092	0.495911	
-1.94397	0.494385	
-1.9516	0.495911	
-1.95465	0.497437	
-1.95465	0.494385	
-1.96228	0.497437	
-1.96381	0.497437	
-1.96838	0.492859	
-1.97144	0.497437	
-1.97296	0.495911	
-1.97906	0.494385	
-1.97906	0.492859	
-1.98212	0.498962	
-1.98364	0.494385	
-1.98822	0.495911	
-1.99127	0.497437	
-1.99585	0.495911	
-1.9989	0.494385	
-2.00348	0.497437	
-2.00653	0.492859	
-2.00958	0.495911	
-2.00806	0.494385	
-2.01111	0.497437	
-2.01263	0.494385	
-2.01569	0.497437	
-2.01721	0.492859	
-2.02484	0.495911	
-2.02942	0.495911	
-2.03247	0.497437	
-2.02942	0.494385	
-2.03247	0.492859	
-2.03552	0.491333	
-2.03552	0.497437	
-2.0401	0.492859	
-2.04468	0.498962	
-2.04468	0.492859	
-2.0462	0.500488	
-2.04773	0.494385	
-2.05231	0.497437	
-2.05078	0.494385	
-2.05078	0.495911	
-2.04926	0.492859	
-2.05078	0.497437	
-2.04926	0.495911	
-2.04926	0.495911	
-2.0462	0.497437	
-2.04468	0.500488	
-2.03857	0.491333	
-2.03552	0.498962	
-2.02789	0.494385	
-2.02026	0.495911	
-2.01111	0.491333	
-2.00348	0.495911	
-1.9928	0.492859	
-1.98364	0.495911	
-1.96838	0.495911	
-1.9516	0.500488	
-1.94092	0.494385	
-1.92566	0.497437	
-1.91193	0.495911	
-1.89209	0.495911	
-1.87836	0.488281	
-1.86005	0.495911	
-1.84326	0.492859	
-1.82648	0.494385	
-1.80817	0.492859	
-1.78833	0.505066	
-1.77002	0.491333	
-1.75323	0.497437	
-1.73798	0.492859	
-1.72119	0.492859	
-1.70441	0.488281	
-1.68915	0.498962	
-1.67084	0.494385	
-1.65863	0.497437	
-1.64337	0.497437	
-1.63116	0.50354	
-1.61743	0.492859	
-1.60675	0.500488	
-1.59302	0.495911	
-1.58234	0.497437	
-1.57166	0.489807	
-1.5625	0.498962	
-1.55487	0.492859	
-1.54877	0.495911	
-1.53961	0.494385	
-1.53198	0.50354	
-1.52893	0.494385	
-1.51672	0.497437	
-1.51215	0.498962	
-1.50757	0.494385	
-1.50604	0.488281	
-1.50146	0.498962	
-1.50146	0.492859	
-1.49689	0.497437	
-1.49841	0.495911	
-1.49231	0.502014	
-1.49384	0.492859	
-1.49078	0.498962	
-1.49078	0.498962	
-1.48773	0.494385	
-1.49078	0.488281	
-1.48773	0.497437	
-1.49078	0.492859	
-1.49078	0.497437	
-1.49231	0.494385	
-1.49384	0.505066	
-1.49384	0.494385	
-1.49384	0.495911	
-1.49536	0.492859	
-1.49994	0.495911	
-1.50299	0.488281	
-1.50146	0.500488	
-1.50452	0.492859	
-1.50757	0.492859	
-1.51215	0.494385	
-1.51215	0.502014	
-1.5152	0.492859	
-1.5152	0.498962	
-1.51978	0.494385	
-1.52435	0.497437	
-1.52283	0.488281	
-1.53046	0.497437	
-1.53198	0.494385	
-1.53503	0.494385	
-1.53809	0.497437	
-1.54114	0.50354	
-1.54572	0.494385	
-1.54877	0.497437	
-1.55029	0.492859	
-1.55487	0.492859	
-1.55792	0.489807	
-1.5625	0.495911	
-1.5686	0.491333	
-1.57013	0.495911	
-1.57318	0.495911	
-1.57623	0.500488	
-1.57928	0.492859	
-1.58234	0.495911	
-1.58691	0.495911	
-1.59149	0.494385	
-1.59149	0.485229	
-1.5976	0.497437	
-1.60065	0.492859	
-1.60675	0.492859	
-1.6098	0.497437	
-1.6098	0.502014	
-1.61285	0.497437	
-1.61591	0.495911	
-1.62201	0.494385	
-1.62354	0.492859	
-1.62964	0.485229	
-1.63116	0.495911	
-1.63727	0.491333	
-1.64032	0.494385	
-1.64642	0.494385	
-1.64948	0.500488	
-1.65558	0.495911	
-1.66016	0.497437	
-1.66321	0.494385	
-1.66779	0.495911	
-1.66931	0.488281	
-1.67236	0.492859	
-1.67389	0.491333	
-1.67847	0.494385	
-1.68762	0.497437	
-1.6861	0.498962	
-1.6922	0.494385	
-1.6922	0.500488	
-1.69525	0.494385	
-1.69678	0.497437	
-1.69983	0.489807	
-1.70135	0.494385	
-1.70441	0.491333	
-1.70593	0.495911	
-1.70898	0.494385	
-1.71356	0.502014	
-1.71356	0.498962	
-1.71661	0.497437	
-1.71661	0.494385	
-1.72119	0.497437	
-1.72272	0.491333	
-1.72272	0.495911	
-1.72119	0.489807	
-1.72424	0.494385	
-1.72577	0.495911	
-1.72424	0.498962	
-1.72882	0.495911	
-1.72882	0.497437	
-1.72729	0.498962	
-1.72882	0.495911	
-1.72729	0.498962	
-1.72882	0.494385	
-1.7334	0.492859	
-1.73187	0.494385	
-1.7334	0.494385	
-1.73187	0.492859	
-1.7334	0.495911	
-1.73187	0.500488	
-1.73035	0.497437	
-1.7334	0.495911	
-1.73035	0.494385	
-1.73187	0.498962	
-1.7334	0.495911	
-1.7334	0.494385	
-1.7334	0.494385	
-1.72882	0.497437	
-1.73187	0.495911	
-1.73492	0.495911	
-1.73492	0.497437	
-1.73187	0.495911	
-1.73187	0.494385	
-1.73492	0.498962	
-1.7334	0.492859	
-1.7334	0.492859	
-1.73645	0.495911	
-1.73645	0.495911	
-1.73798	0.495911	
-1.7395	0.494385	
-1.73798	0.495911	
-1.74103	0.497437	
-1.74103	0.497437	
-1.74255	0.494385	
-1.74561	0.494385	
-1.74713	0.491333	
-1.74866	0.494385	
-1.75171	0.492859	
-1.75171	0.495911	
-1.75323	0.495911	
-1.75781	0.495911	
-1.75476	0.495911	
-1.76086	0.498962	
-1.76086	0.495911	
-1.76544	0.494385	
-1.76544	0.494385	
-1.76697	0.495911	
-1.76849	0.492859	
-1.77612	0.495911	
-1.77612	0.495911	
-1.7746	0.498962	
-1.78223	0.492859	
-1.78375	0.495911	
-1.78528	0.491333	
-1.78833	0.492859	
-1.78986	0.491333	
-1.79291	0.495911	
-1.80206	0.495911	
-1.80206	0.492859	
-1.80359	0.497437	
-1.80664	0.495911	
-1.80817	0.495911	
-1.81274	0.497437	
-1.8158	0.492859	
-1.81885	0.498962	
-1.82037	0.492859	
-1.82495	0.492859	
-1.82953	0.494385	
-1.83411	0.495911	
-1.83563	0.494385	
-1.84021	0.494385	
-1.84326	0.494385	
-1.84784	0.497437	
-1.84937	0.494385	
-1.85394	0.495911	
-1.85852	0.494385	
-1.86157	0.494385	
-1.8631	0.492859	
-1.87225	0.494385	
-1.87225	0.494385	
-1.87988	0.494385	
-1.87836	0.492859	
-1.88446	0.494385	
-1.88599	0.495911	
-1.89362	0.494385	
-1.89819	0.492859	
-1.89667	0.497437	
-1.90277	0.492859	
-1.90582	0.494385	
-1.91345	0.495911	
-1.91498	0.498962	
-1.91803	0.497437	
-1.92261	0.498962	
-1.92413	0.497437	
-1.92566	0.497437	
-1.93024	0.494385	
-1.93481	0.492859	
-1.93787	0.492859	
-1.94244	0.494385	
-1.94855	0.492859	
-1.9516	0.494385	
-1.95313	0.497437	
-1.95618	0.500488	
-1.96075	0.494385	
-1.96381	0.498962	
-1.96838	0.497437	
-1.96838	0.494385	
-1.97144	0.488281	
-1.97449	0.494385	
-1.97906	0.494385	
-1.97906	0.497437	
-1.98669	0.492859	
-1.98669	0.500488	
-1.9928	0.500488	
-1.99432	0.498962	
-1.99585	0.494385	
-2.00348	0.492859	
-2.00806	0.489807	
-2.00806	0.494385	
-2.01263	0.491333	
-2.01416	0.497437	
-2.01721	0.495911	
-2.02179	0.498962	
-2.02484	0.495911	
-2.02484	0.495911	
-2.02942	0.497437	
-2.03094	0.495911	
-2.03552	0.489807	
-2.03705	0.491333	
-2.0401	0.492859	
-2.04163	0.494385	
-2.04315	0.494385	
-2.0462	0.500488	
-2.05078	0.492859	
-2.05536	0.497437	
-2.05688	0.497437	
-2.06299	0.494385	
-2.06451	0.488281	
-2.06757	0.492859	
-2.06757	0.492859	
-2.0752	0.498962	
-2.07672	0.494385	
-2.07977	0.498962	
-2.08282	0.495911	
-2.08435	0.498962	
-2.08435	0.494385	
-2.0874	0.497437	
-2.09045	0.488281	
-2.09351	0.491333	
-2.09503	0.492859	
-2.09808	0.492859	
-2.09656	0.494385	
-2.10114	0.500488	
-2.09808	0.494385	
-2.09808	0.495911	
-2.09656	0.494385	
-2.10114	0.494385	
-2.09503	0.492859	
-2.09351	0.492859	
-2.08893	0.492859	
-2.08893	0.495911	
-2.0813	0.494385	
-2.07672	0.497437	
-2.06909	0.495911	
-2.06451	0.498962	
-2.05078	0.494385	
-2.04315	0.494385	
-2.03552	0.495911	
-2.02179	0.494385	
-2.00806	0.489807	
-1.99585	0.495911	
-1.97906	0.494385	
-1.96533	0.495911	
-1.95007	0.492859	
-1.93481	0.494385	
-1.91956	0.495911	
-1.89972	0.492859	
-1.88446	0.494385	
-1.86615	0.495911	
-1.84631	0.491333	
-1.82953	0.495911	
-1.81122	0.495911	
-1.79291	0.491333	
-1.77307	0.492859	
-1.76086	0.497437	
-1.74255	0.492859	
-1.72729	0.492859	
-1.71356	0.498962	
-1.69678	0.498962	
-1.68304	0.492859	
-1.66626	0.495911	
-1.65558	0.495911	
-1.64642	0.489807	
-1.63269	0.491333	
-1.62506	0.497437	
-1.61285	0.494385	
-1.60065	0.492859	
-1.59302	0.498962	
-1.58691	0.497437	
-1.57623	0.491333	
-1.56708	0.495911	
-1.56403	0.494385	
-1.55792	0.488281	
-1.55334	0.489807	
-1.54724	0.497437	
-1.54572	0.494385	
-1.54266	0.492859	
-1.53656	0.500488	
-1.53503	0.497437	
-1.52588	0.492859	
-1.52435	0.495911	
-1.52893	0.494385	
-1.52588	0.488281	
-1.52283	0.494385	
-1.52588	0.498962	
-1.52283	0.494385	
-1.5213	0.492859	
-1.52435	0.497437	
-1.52435	0.497437	
-1.52435	0.489807	
-1.52588	0.495911	
-1.53046	0.498962	
-1.53046	0.488281	
-1.53198	0.492859	
-1.53503	0.494385	
-1.53656	0.489807	
-1.54114	0.491333	
-1.54114	0.495911	
-1.54572	0.494385	
-1.54572	0.491333	
-1.54877	0.495911	
-1.55334	0.497437	
-1.5564	0.489807	
-1.55792	0.489807	
-1.5625	0.498962	
-1.56097	0.491333	
-1.5686	0.492859	
-1.57013	0.497437	
-1.57471	0.495911	
-1.57928	0.492859	
-1.58539	0.494385	
-1.58691	0.495911	
-1.58997	0.489807	
-1.59302	0.491333	
-1.59607	0.492859	
-1.59912	0.488281	
-1.60065	0.494385	
-1.60675	0.494385	
-1.6098	0.495911	
-1.61438	0.494385	
-1.61591	0.497437	
-1.61896	0.497437	
-1.62506	0.491333	
-1.62659	0.492859	
-1.63269	0.497437	
-1.63422	0.492859	
-1.63879	0.491333	
-1.6449	0.492859	
-1.64642	0.494385	
-1.651	0.494385	
-1.65405	0.495911	
-1.66168	0.495911	
-1.66168	0.492859	
-1.66931	0.491333	
-1.67389	0.492859	
-1.67694	0.491333	
-1.68152	0.492859	
-1.68915	0.492859	
-1.69067	0.495911	
-1.6983	0.494385	
-1.69983	0.495911	
-1.70441	0.498962	
-1.70593	0.491333	
-1.71051	0.492859	
-1.71661	0.495911	
-1.72272	0.492859	
-1.72424	0.494385	
-1.72882	0.494385	
-1.73187	0.495911	
-1.73492	0.492859	
-1.7395	0.497437	
-1.74561	0.502014	
-1.74713	0.492859	
-1.74713	0.491333	
-1.75171	0.494385	
-1.75323	0.494385	
-1.75781	0.489807	
-1.76086	0.492859	
-1.76544	0.497437	
-1.76392	0.492859	
-1.76697	0.497437	
-1.76697	0.494385	
-1.76697	0.497437	
-1.77307	0.491333	
-1.77155	0.497437	
-1.77307	0.494385	
-1.7746	0.492859	
-1.77765	0.495911	
-1.77612	0.497437	
-1.77612	0.492859	
-1.7807	0.497437	
-1.77612	0.495911	
-1.77917	0.492859	
-1.77765	0.492859	
-1.77612	0.492859	
-1.77612	0.491333	
-1.77612	0.492859	
-1.77612	0.494385	
-1.7746	0.495911	
-1.7746	0.492859	
-1.77612	0.494385	
-1.77765	0.500488	
-1.77612	0.494385	
-1.77612	0.492859	
-1.77612	0.494385	
-1.77765	0.492859	
-1.77307	0.489807	
-1.7746	0.495911	
-1.77155	0.498962	
-1.77155	0.494385	
-1.77307	0.491333	
-1.77155	0.498962	
-1.77155	0.491333	
-1.77002	0.489807	
-1.77307	0.489807	
-1.77307	0.492859	
-1.77307	0.492859	
-1.77307	0.494385	
-1.77155	0.494385	
-1.77155	0.497437	
-1.7746	0.498962	
-1.7746	0.495911	
-1.7746	0.492859	
-1.77612	0.491333	
-1.77612	0.491333	
-1.77917	0.489807	
-1.77917	0.489807	
-1.78223	0.495911	
-1.78223	0.497437	
-1.78223	0.495911	
-1.78375	0.495911	
-1.7868	0.497437	
-1.78833	0.495911	
-1.78986	0.491333	
-1.79138	0.488281	
-1.79138	0.491333	
-1.79749	0.491333	
-1.80054	0.494385	
-1.80359	0.495911	
-1.80511	0.495911	
-1.80511	0.494385	
-1.80664	0.495911	
-1.80817	0.494385	
-1.81122	0.492859	
-1.81274	0.492859	
-1.81732	0.494385	
-1.81885	0.489807	
-1.8219	0.497437	
-1.82343	0.495911	
-1.828	0.494385	
-1.82953	0.495911	
-1.83411	0.495911	
-1.83716	0.492859	
-1.83563	0.492859	
-1.84021	0.491333	
-1.84326	0.492859	
-1.84784	0.489807	
-1.84631	0.492859	
-1.85089	0.495911	
-1.85394	0.498962	
-1.85699	0.497437	
-1.86005	0.497437	
-1.86462	0.495911	
-1.86462	0.494385	
-1.86615	0.488281	
-1.87225	0.494385	
-1.87836	0.491333	
-1.87988	0.492859	
-1.88141	0.495911	
-1.88751	0.498962	
-1.88904	0.497437	
-1.89056	0.495911	
-1.89514	0.495911	
-1.89972	0.495911	
-1.89972	0.489807	
-1.9043	0.492859	
-1.90735	0.491333	
-1.91498	0.492859	
-1.91498	0.495911	
-1.91956	0.497437	
-1.92108	0.497437	
-1.92413	0.495911	
-1.92719	0.495911	
-1.93176	0.494385	
-1.93481	0.489807	
-1.93939	0.492859	
-1.94244	0.492859	
-1.9455	0.489807	
-1.9516	0.494385	
-1.95465	0.497437	
-1.95618	0.495911	
-1.95923	0.492859	
-1.96381	0.495911	
-1.96838	0.494385	
-1.97144	0.488281	
-1.97449	0.492859	
-1.97601	0.492859	
-1.97906	0.494385	
-1.98212	0.497437	
-1.98822	0.500488	
-1.98975	0.489807	
-1.99432	0.495911	
-1.9989	0.494385	
