-2.89764,0.52948
-2.91138,0.520325
-2.91901,0.521851
-2.93427,0.520325
-2.948,0.518799
-2.95715,0.526428
-2.97089,0.520325
-2.99072,0.523376
-3.00446,0.520325
-3.01971,0.521851
-3.03955,0.526428
-3.05023,0.520325
-3.07159,0.523376
-3.08533,0.523376
-3.10669,0.521851
-3.12195,0.527954
-3.13721,0.520325
-3.15094,0.520325
-3.1601,0.523376
-3.16772,0.517273
-3.1723,0.527954
-3.17078,0.518799
-3.16315,0.524902
-3.14026,0.521851
-3.10669,0.521851
-3.05176,0.526428
-2.9892,0.518799
-2.90375,0.521851
-2.79999,0.521851
-2.68555,0.521851
-2.55127,0.52948
-2.40021,0.514221
-2.23999,0.518799
-2.07367,0.523376
-1.90887,0.521851
-1.74103,0.524902
-1.58386,0.517273
-1.43127,0.521851
-1.28479,0.524902
-1.15051,0.518799
-1.02386,0.526428
-0.907898,0.514221
-0.799561,0.520325
-0.700378,0.524902
-0.608826,0.520325
-0.527954,0.524902
-0.45166,0.518799
-0.387573,0.521851
-0.32959,0.524902
-0.280762,0.517273
-0.239563,0.524902
-0.205994,0.517273
-0.178528,0.520325
-0.157166,0.521851
-0.143433,0.520325
-0.135803,0.524902
-0.134277,0.517273
-0.140381,0.523376
-0.146484,0.523376
-0.154114,0.518799
-0.17395,0.527954
-0.192261,0.514221
-0.212097,0.517273
-0.236511,0.521851
-0.268555,0.518799
-0.297546,0.523376
-0.328064,0.514221
-0.361633,0.518799
-0.396729,0.518799
-0.428772,0.518799
-0.462341,0.524902
-0.495911,0.514221
-0.52948,0.520325
-0.563049,0.521851
-0.595093,0.517273
-0.627136,0.524902
-0.662231,0.518799
-0.697327,0.520325
-0.72937,0.523376
-0.765991,0.517273
-0.804138,0.524902
-0.839233,0.511169
-0.87738,0.517273
-0.907898,0.521851
-0.944519,0.517273
-0.978088,0.523376
-1.01013,0.517273
-1.03455,0.518799
-1.06659,0.518799
-1.08795,0.517273
-1.11237,0.524902
-1.12762,0.514221
-1.14441,0.518799
-1.15509,0.523376
-1.16425,0.517273
-1.1673,0.523376
-1.1734,0.514221
-1.17645,0.514221
-1.17188,0.517273
-1.16882,0.517273
-1.16577,0.524902
-1.15967,0.514221
-1.14899,0.518799
-1.14136,0.520325
-1.12457,0.517273
-1.10931,0.521851
-1.09558,0.514221
-1.08185,0.514221
-1.06354,0.521851
-1.0498,0.514221
-1.03455,0.524902
-1.02234,0.514221
-1.00708,0.514221
-0.997925,0.520325
-0.987244,0.514221
-0.978088,0.521851
-0.971985,0.514221
-0.970459,0.514221
-0.965881,0.518799
-0.965881,0.517273
-0.965881,0.524902
-0.973511,0.512695
-0.982666,0.514221
-0.996399,0.518799
-1.00861,0.514221
-1.02692,0.521851
-1.04065,0.512695
-1.06354,0.517273
-1.08643,0.520325
-1.11084,0.514221
-1.13678,0.520325
-1.16119,0.512695
-1.18866,0.512695
-1.21918,0.514221
-1.25122,0.512695
-1.28479,0.523376
-1.31683,0.509644
-1.34888,0.518799
-1.38245,0.518799
-1.41754,0.514221
-1.45264,0.523376
-1.49231,0.509644
-1.52283,0.511169
-1.56097,0.517273
-1.59302,0.517273
-1.62811,0.526428
-1.66473,0.512695
-1.69983,0.514221
-1.73035,0.518799
-1.76544,0.518799
-1.79901,0.523376
-1.82953,0.514221
-1.86157,0.511169
-1.89209,0.517273
-1.92108,0.512695
-1.95313,0.523376
-1.97449,0.512695
-2.00348,0.511169
-2.03247,0.518799
-2.05231,0.517273
-2.07825,0.521851
-2.09961,0.512695
-2.12402,0.517273
-2.15149,0.517273
-2.16827,0.514221
-2.18964,0.524902
-2.211,0.512695
-2.22626,0.517273
-2.24609,0.517273
-2.26593,0.512695
-2.28119,0.521851
-2.29492,0.512695
-2.30713,0.514221
-2.32544,0.512695
-2.33765,0.517273
-2.34833,0.520325
-2.36206,0.512695
-2.37274,0.517273
-2.38495,0.517273
-2.39563,0.512695
-2.40784,0.518799
-2.41699,0.512695
-2.4231,0.517273
-2.43073,0.517273
-2.43988,0.509644
-2.44751,0.518799
-2.45209,0.509644
-2.45972,0.512695
-2.46735,0.518799
-2.47192,0.512695
-2.48108,0.521851
-2.48566,0.511169
-2.49023,0.512695
-2.50092,0.517273
-2.50702,0.512695
-2.51312,0.521851
-2.5177,0.512695
-2.52533,0.509644
-2.53296,0.514221
-2.54211,0.514221
-2.54974,0.521851
-2.56195,0.511169
-2.56958,0.514221
-2.58026,0.512695
-2.58942,0.517273
-2.60162,0.518799
-2.6123,0.508118
-2.62604,0.509644
-2.63367,0.518799
-2.64435,0.514221
-2.66418,0.523376
-2.67792,0.511169
-2.69318,0.517273
-2.70844,0.517273
-2.72369,0.512695
-2.742,0.518799
-2.76184,0.509644
-2.77863,0.511169
-2.79388,0.514221
-2.81067,0.509644
-2.83051,0.520325
-2.84119,0.511169
-2.85645,0.514221
-2.86713,0.512695
-2.87476,0.512695
-2.87933,0.520325
-2.88086,0.512695
-2.86865,0.517273
-2.85339,0.517273
-2.82288,0.511169
-2.77863,0.521851
-2.71454,0.506592
-2.63977,0.511169
-2.54211,0.517273
-2.43073,0.512695
-2.30408,0.520325
-2.16217,0.512695
-2.00958,0.512695
-1.85394,0.512695
-1.69983,0.511169
-1.54724,0.520325
-1.40076,0.509644
-1.25732,0.512695
-1.12152,0.512695
-0.996399,0.514221
-0.87738,0.521851
-0.769043,0.508118
-0.666809,0.511169
-0.576782,0.517273
-0.488281,0.514221
-0.413513,0.523376
-0.340271,0.509644
-0.280762,0.508118
-0.228882,0.512695
-0.186157,0.509644
-0.146484,0.520325
-0.115967,0.508118
-0.088501,0.509644
-0.0701904,0.511169
-0.0595093,0.511169
-0.0564575,0.521851
-0.0534058,0.511169
-0.0579834,0.509644
-0.0701904,0.509644
-0.0823975,0.512695
-0.0991821,0.521851
-0.115967,0.511169
-0.137329,0.512695
-0.160217,0.514221
-0.189209,0.512695
-0.213623,0.521851
-0.244141,0.511169
-0.268555,0.511169
-0.296021,0.512695
-0.326538,0.509644
-0.350952,0.524902
-0.382996,0.509644
-0.40741,0.509644
-0.437927,0.511169
-0.465393,0.511169
-0.494385,0.521851
-0.524902,0.509644
-0.55542,0.511169
-0.585938,0.512695
-0.617981,0.512695
-0.65155,0.520325
-0.682068,0.509644
-0.715637,0.506592
-0.749207,0.512695
-0.778198,0.511169
-0.811768,0.521851
-0.842285,0.509644
-0.871277,0.511169
-0.897217,0.511169
-0.920105,0.511169
-0.942993,0.520325
-0.967407,0.506592
-0.984192,0.509644
-0.996399,0.511169
-1.00861,0.509644
-1.01776,0.520325
-1.02692,0.509644
-1.02997,0.509644
-1.02997,0.512695
-1.02997,0.511169
-1.02692,0.521851
-1.02386,0.509644
-1.01776,0.511169
-1.01013,0.509644
-1.0025,0.511169
-0.994873,0.520325
-0.98877,0.508118
-0.976563,0.509644
-0.968933,0.512695
-0.956726,0.509644
-0.950623,0.518799
-0.939941,0.506592
-0.932312,0.511169
-0.924683,0.508118
-0.920105,0.509644
-0.912476,0.517273
-0.91095,0.508118
-0.91095,0.511169
-0.912476,0.511169
-0.912476,0.509644
-0.915527,0.520325
-0.923157,0.508118
-0.932312,0.508118
-0.939941,0.511169
-0.9552,0.508118
-0.968933,0.520325
-0.987244,0.50354
-1.00403,0.511169
-1.02539,0.512695
-1.04828,0.509644
-1.07422,0.518799
-1.10016,0.509644
-1.12915,0.509644
-1.15967,0.511169
-1.18866,0.511169
-1.2207,0.521851
-1.25427,0.509644
-1.28632,0.508118
-1.31989,0.509644
-1.3504,0.511169
-1.3855,0.523376
-1.42212,0.506592
-1.45264,0.512695
-1.49078,0.509644
-1.5274,0.511169
-1.55945,0.520325
-1.59302,0.506592
-1.62659,0.509644
-1.66321,0.512695
-1.69373,0.512695
-1.72729,0.520325
-1.75781,0.508118
-1.79138,0.509644
-1.82343,0.509644
-1.84937,0.509644
-1.87836,0.518799
-1.90582,0.506592
-1.93329,0.509644
-1.95618,0.514221
-1.98059,0.509644
-2.00653,0.517273
-2.03094,0.508118
-2.05078,0.511169
-2.07672,0.514221
-2.09808,0.511169
-2.11945,0.520325
-2.13776,0.508118
-2.15607,0.511169
-2.17285,0.511169
-2.18964,0.511169
-2.20642,0.520325
-2.22473,0.508118
-2.23389,0.511169
-2.24915,0.512695
-2.26288,0.508118
-2.27356,0.520325
-2.28882,0.505066
-2.2995,0.508118
-2.31018,0.511169
-2.32391,0.508118
-2.33154,0.521851
-2.34222,0.50354
-2.34833,0.506592
-2.35901,0.509644
-2.36664,0.511169
-2.37732,0.520325
-2.3819,0.506592
-2.39105,0.509644
-2.39563,0.509644
-2.40784,0.512695
-2.41394,0.517273
-2.42157,0.506592
-2.42615,0.509644
-2.43073,0.512695
-2.43988,0.511169
-2.45056,0.518799
-2.45361,0.506592
-2.46429,0.508118
-2.4704,0.509644
-2.47955,0.509644
-2.48566,0.517273
-2.49329,0.508118
-2.50549,0.508118
-2.51617,0.511169
-2.52838,0.509644
-2.54364,0.520325
-2.55432,0.508118
-2.56958,0.511169
-2.58331,0.512695
-2.60315,0.509644
-2.61688,0.514221
-2.63367,0.508118
-2.65198,0.506592
-2.67029,0.509644
-2.69318,0.511169
-2.71149,0.520325
-2.73132,0.505066
-2.74658,0.509644
-2.76794,0.508118
-2.79236,0.508118
-2.80609,0.520325
-2.83051,0.508118
-2.85034,0.508118
-2.86865,0.508118
-2.89154,0.508118
-2.90985,0.520325
-2.92969,0.505066
-2.94952,0.509644
-2.96631,0.509644
-2.98462,0.509644
-2.99835,0.518799
-3.00598,0.509644
-3.01361,0.506592
-3.01666,0.509644
-3.00903,0.511169
-2.99377,0.521851
-2.96783,0.506592
-2.93121,0.509644
-2.87476,0.509644
-2.80609,0.506592
-2.72064,0.518799
-2.61383,0.506592
-2.49176,0.511169
-2.35596,0.509644
-2.20642,0.511169
-2.05383,0.518799
-1.89514,0.506592
-1.74255,0.506592
-1.59454,0.511169
-1.44653,0.508118
-1.31073,0.518799
-1.18103,0.508118
-1.05743,0.509644
-0.942993,0.511169
-0.839233,0.509644
-0.740051,0.520325
-0.65155,0.506592
-0.570679,0.506592
-0.500488,0.506592
-0.43335,0.509644
-0.38147,0.517273
-0.331116,0.508118
-0.291443,0.506592
-0.260925,0.509644
-0.234985,0.509644
-0.213623,0.520325
-0.19989,0.505066
-0.195313,0.508118
-0.187683,0.511169
-0.195313,0.512695
-0.205994,0.518799
-0.218201,0.508118
-0.236511,0.509644
-0.256348,0.506592
-0.280762,0.512695
-0.30365,0.518799
-0.332642,0.505066
-0.360107,0.508118
-0.389099,0.511169
-0.421143,0.509644
-0.45166,0.518799
-0.483704,0.506592
-0.514221,0.509644
-0.546265,0.509644
-0.578308,0.511169
-0.608826,0.521851
-0.639343,0.505066
-0.672913,0.509644
-0.70343,0.509644
-0.737,0.512695
-0.778198,0.520325
-0.808716,0.508118
-0.842285,0.509644
-0.878906,0.512695
-0.914001,0.509644
-0.950623,0.517273
-0.987244,0.508118
-1.02081,0.509644
-1.05133,0.511169
-1.08185,0.511169
-1.11389,0.518799
-1.13525,0.508118
-1.16119,0.511169
-1.18103,0.509644
-1.19476,0.511169
-1.21307,0.518799
-1.22528,0.505066
-1.23444,0.511169
-1.24207,0.509644
-1.24817,0.505066
-1.24817,0.521851
-1.24664,0.508118
-1.24817,0.506592
-1.24054,0.512695
-1.23596,0.509644
-1.22681,0.520325
-1.21765,0.505066
-1.20697,0.509644
-1.19781,0.509644
-1.18408,0.512695
-1.17798,0.517273
-1.16577,0.506592
-1.15662,0.506592
-1.14746,0.506592
-1.13525,0.509644
-1.13068,0.520325
-1.12305,0.506592
-1.11847,0.511169
-1.11542,0.511169
-1.11237,0.509644
-1.11237,0.518799
-1.11847,0.508118
-1.11847,0.509644
-1.12762,0.512695
-1.1322,0.511169
-1.14746,0.514221
-1.16119,0.509644
-1.17645,0.511169
-1.19171,0.511169
-1.21307,0.509644
-1.23444,0.518799
-1.2619,0.508118
-1.28479,0.509644
-1.31226,0.511169
-1.3382,0.509644
-1.37024,0.518799
-1.40228,0.508118
-1.43127,0.511169
-1.46332,0.511169
-1.49841,0.511169
-1.53503,0.518799
-1.56708,0.506592
-1.6037,0.509644
-1.64185,0.509644
-1.67999,0.511169
-1.71661,0.517273
-1.75171,0.506592
-1.7868,0.511169
-1.82343,0.512695
-1.85699,0.509644
-1.89362,0.517273
-1.93176,0.506592
-1.96381,0.509644
-1.99432,0.512695
-2.02789,0.512695
-2.05841,0.520325
-2.09045,0.508118
-2.11334,0.509644
-2.14233,0.512695
-2.17133,0.509644
-2.19879,0.517273
-2.22321,0.506592
-2.24609,0.509644
-2.26746,0.511169
-2.28729,0.512695
-2.31018,0.517273
-2.33002,0.508118
-2.35138,0.509644
-2.36664,0.512695
-2.38647,0.509644
-2.39868,0.512695
-2.41852,0.506592
-2.43225,0.509644
-2.44446,0.508118
-2.45667,0.509644
-2.47192,0.518799
-2.48413,0.508118
-2.49939,0.509644
-2.50702,0.511169
-2.51923,0.514221
-2.52533,0.520325
-2.53601,0.508118
-2.54211,0.511169
-2.54822,0.512695
-2.55737,0.511169
-2.56348,0.517273
-2.56805,0.508118
-2.57568,0.511169
-2.58026,0.511169
-2.58636,0.511169
-2.58942,0.518799
-2.59705,0.506592
-2.59857,0.511169
-2.60315,0.511169
-2.6123,0.511169
-2.61536,0.518799
-2.62146,0.508118
-2.62604,0.512695
-2.62756,0.514221
-2.63214,0.509644
-2.63977,0.518799
-2.6474,0.511169
-2.65198,0.509644
-2.65961,0.509644
-2.66724,0.511169
-2.67639,0.517273
-2.6825,0.508118
-2.6886,0.509644
-2.69623,0.512695
-2.70538,0.509644
-2.71454,0.518799
-2.72675,0.506592
-2.73132,0.511169
-2.74506,0.511169
-2.75574,0.511169
-2.76947,0.520325
-2.78473,0.511169
-2.79846,0.509644
-2.81525,0.511169
-2.83051,0.512695
-2.84882,0.518799
-2.86102,0.512695
-2.88086,0.517273
-2.9007,0.509644
-2.91748,0.514221
-2.93579,0.520325
-2.95105,0.511169
-2.96783,0.514221
-2.98462,0.512695
-2.99683,0.514221
-3.01056,0.520325
-3.01666,0.509644
-3.01971,0.517273
-3.01819,0.514221
-3.00903,0.511169
-2.99072,0.518799
-2.95868,0.511169
-2.91138,0.511169
-2.85187,0.512695
-2.77252,0.514221
-2.67792,0.518799
-2.56653,0.511169
-2.4353,0.512695
-2.29187,0.512695
-2.13928,0.511169
-1.98517,0.517273
-1.82648,0.509644
-1.67694,0.511169
-1.52588,0.509644
-1.3855,0.509644
-1.24817,0.514221
-1.12457,0.508118
-1.0025,0.509644
-0.891113,0.512695
-0.791931,0.512695
-0.697327,0.514221
-0.611877,0.509644
-0.531006,0.509644
-0.468445,0.512695
-0.405884,0.511169
-0.352478,0.518799
-0.308228,0.508118
-0.270081,0.511169
-0.244141,0.512695
-0.222778,0.508118
-0.205994,0.512695
-0.196838,0.508118
-0.187683,0.509644
-0.189209,0.512695
-0.196838,0.511169
-0.20752,0.514221
-0.222778,0.509644
-0.238037,0.509644
-0.259399,0.514221
-0.282288,0.512695
-0.305176,0.517273
-0.332642,0.512695
-0.361633,0.512695
-0.390625,0.514221
-0.418091,0.511169
-0.450134,0.512695
-0.4776,0.509644
-0.509644,0.514221
-0.540161,0.511169
-0.570679,0.511169
-0.59967,0.514221
-0.634766,0.509644
-0.668335,0.512695
-0.698853,0.514221
-0.732422,0.514221
-0.765991,0.517273
-0.796509,0.509644
-0.83313,0.509644
-0.865173,0.514221
-0.898743,0.514221
-0.932312,0.518799
-0.964355,0.511169
-0.996399,0.511169
-1.02539,0.517273
-1.0498,0.511169
-1.0788,0.517273
-1.09711,0.512695
-1.11389,0.517273
-1.1261,0.512695
-1.14288,0.512695
-1.15356,0.512695
-1.15814,0.508118
-1.15967,0.514221
-1.16119,0.512695
-1.15967,0.512695
-1.15662,0.517273
-1.15356,0.509644
-1.14441,0.514221
-1.13373,0.512695
-1.1261,0.511169
-1.11389,0.512695
-1.10016,0.508118
-1.091,0.512695
-1.0788,0.514221
-1.06506,0.509644
-1.05286,0.512695
-1.04523,0.509644
-1.03302,0.512695
-1.01929,0.514221
-1.01318,0.511169
-1.00403,0.514221
-1.00098,0.508118
-0.996399,0.512695
-0.996399,0.509644
-0.996399,0.512695
-1.00098,0.514221
-1.00403,0.509644
-1.01471,0.511169
-1.02234,0.518799
-1.0376,0.509644
-1.05591,0.514221
-1.07269,0.511169
-1.09253,0.512695
-1.11542,0.511169
-1.13678,0.511169
-1.16425,0.512695
-1.19019,0.511169
-1.22223,0.511169
-1.25275,0.511169
-1.28174,0.512695
-1.31531,0.514221
-1.34888,0.511169
-1.38397,0.514221
-1.42212,0.512695
-1.45569,0.512695
-1.48926,0.512695
-1.5274,0.511169
-1.56097,0.509644
-1.59607,0.514221
-1.63269,0.511169
-1.66473,0.514221
-1.69678,0.512695
-1.72882,0.512695
-1.75934,0.514221
-1.7868,0.509644
-1.8158,0.512695
-1.83868,0.508118
-1.86768,0.512695
-1.88904,0.512695
-1.9165,0.509644
-1.93939,0.512695
-1.96381,0.511169
-1.98212,0.512695
-2.00195,0.512695
-2.02637,0.512695
-2.0462,0.512695
-2.06299,0.509644
-2.0813,0.512695
-2.09808,0.517273
-2.11182,0.512695
-2.1286,0.514221
-2.14844,0.508118
-2.1637,0.511169
-2.17438,0.512695
-2.19116,0.512695
-2.20184,0.511169
-2.21863,0.509644
-2.23236,0.511169
-2.24304,0.517273
-2.25677,0.512695
-2.2644,0.509644
-2.27966,0.508118
-2.28882,0.509644
-2.29797,0.512695
-2.31018,0.509644
-2.31934,0.512695
-2.32697,0.508118
-2.33307,0.511169
-2.34375,0.514221
-2.35138,0.514221
-2.36053,0.509644
-2.36664,0.509644
-2.37427,0.509644
-2.38342,0.509644
-2.39105,0.514221
-2.39716,0.512695
-2.40936,0.508118
-2.41394,0.512695
-2.42004,0.520325
-2.42615,0.514221
-2.43683,0.511169
-2.44446,0.508118
-2.45361,0.508118
-2.46887,0.514221
-2.4765,0.511169
-2.49176,0.512695
-2.50397,0.509644
-2.5177,0.511169
-2.53296,0.512695
-2.54669,0.512695
-2.56805,0.512695
-2.58179,0.509644
-2.59857,0.512695
-2.61688,0.511169
-2.63062,0.511169
-2.64893,0.511169
-2.66418,0.50354
-2.68097,0.509644
-2.69775,0.511169
-2.71149,0.509644
-2.7298,0.506592
-2.74353,0.511169
-2.75879,0.509644
-2.76642,0.514221
-2.771,0.511169
-2.77252,0.511169
-2.76642,0.508118
-2.75269,0.514221
-2.72675,0.514221
-2.69012,0.511169
-2.63214,0.511169
-2.56653,0.508118
-2.47955,0.512695
-2.37274,0.512695
-2.25067,0.512695
-2.11487,0.508118
-1.97449,0.506592
-1.82953,0.511169
-1.68762,0.511169
-1.53961,0.509644
-1.40076,0.508118
-1.26953,0.506592
-1.14136,0.511169
-1.01776,0.512695
-0.901794,0.509644
-0.794983,0.509644
-0.697327,0.506592
-0.602722,0.509644
-0.515747,0.512695
-0.437927,0.508118
-0.367737,0.506592
-0.305176,0.50354
-0.247192,0.508118
-0.201416,0.509644
-0.160217,0.506592
-0.123596,0.508118
-0.0991821,0.50354
-0.0762939,0.505066
-0.0595093,0.509644
-0.0473022,0.509644
-0.0411987,0.506592
-0.038147,0.506592
-0.0396729,0.509644
-0.0473022,0.509644
-0.0518799,0.509644
-0.0686646,0.505066
-0.0823975,0.506592
-0.100708,0.509644
-0.115967,0.509644
-0.138855,0.508118
-0.160217,0.508118
-0.180054,0.509644
-0.204468,0.508118
-0.227356,0.512695
-0.248718,0.508118
-0.273132,0.506592
-0.297546,0.508118
-0.32196,0.509644
-0.341797,0.509644
-0.364685,0.512695
-0.387573,0.508118
-0.415039,0.506592
-0.439453,0.511169
-0.466919,0.508118
-0.495911,0.508118
-0.523376,0.505066
-0.550842,0.506592
-0.582886,0.508118
-0.6073,0.509644
-0.640869,0.509644
-0.668335,0.505066
-0.692749,0.505066
-0.717163,0.511169
-0.743103,0.509644
-0.770569,0.511169
-0.785828,0.508118
-0.805664,0.505066
-0.820923,0.511169
-0.836182,0.511169
-0.846863,0.514221
-0.85907,0.508118
-0.868225,0.505066
-0.871277,0.511169
-0.875854,0.512695
-0.875854,0.508118
-0.878906,0.505066
-0.872803,0.505066
-0.871277,0.512695
-0.865173,0.511169
-0.862122,0.511169
-0.860596,0.508118
-0.85144,0.508118
-0.848389,0.509644
-0.840759,0.505066
-0.836182,0.509644
-0.831604,0.508118
-0.828552,0.508118
-0.820923,0.512695
-0.816345,0.508118
-0.814819,0.511169
-0.814819,0.506592
-0.813293,0.505066
-0.817871,0.508118
-0.820923,0.509644
-0.827026,0.509644
-0.83313,0.505066
-0.840759,0.505066
-0.857544,0.508118
-0.868225,0.511169
-0.880432,0.511169
-0.898743,0.505066
-0.915527,0.506592
-0.939941,0.509644
-0.964355,0.509644
-0.98877,0.511169
-1.01624,0.506592
-1.04523,0.50354
-1.07269,0.509644
-1.10168,0.508118
-1.1322,0.506592
-1.16882,0.505066
-1.20392,0.505066
-1.23596,0.508118
-1.27563,0.508118
-1.3092,0.509644
-1.34583,0.506592
-1.38397,0.506592
-1.42212,0.509644
-1.45721,0.505066
-1.49384,0.508118
-1.53046,0.50354
-1.5686,0.505066
-1.60522,0.506592
-1.64185,0.50354
-1.67999,0.508118
-1.71509,0.50354
-1.75018,0.50354
-1.78375,0.506592
-1.8158,0.50354
-1.84631,0.506592
-1.88141,0.505066
-1.91193,0.505066
-1.94244,0.505066
-1.96991,0.505066
-1.99738,0.508118
-2.02026,0.50354
-2.05078,0.502014
-2.0752,0.509644
-2.09808,0.509644
-2.12402,0.508118
-2.14691,0.50354
-2.1637,0.502014
-2.18811,0.506592
-2.20642,0.508118
-2.22778,0.509644
-2.24609,0.502014
-2.2644,0.505066
-2.27509,0.506592
-2.29797,0.50354
-2.31018,0.509644
-2.32239,0.50354
-2.33459,0.50354
-2.3468,0.508118
-2.35901,0.506592
-2.36969,0.505066
-2.37885,0.506592
-2.39258,0.505066
-2.40173,0.506592
-2.41089,0.506592
-2.41699,0.506592
-2.42615,0.505066
-2.4353,0.50354
-2.44293,0.509644
-2.45514,0.508118
-2.46124,0.50354
-2.47345,0.502014
-2.4826,0.505066
-2.49329,0.508118
-2.50244,0.508118
-2.5116,0.505066
-2.52228,0.50354
-2.53601,0.505066
-2.54669,0.505066
-2.55737,0.508118
-2.57263,0.509644
-2.58179,0.505066
-2.59705,0.50354
-2.60925,0.508118
-2.62604,0.509644
-2.63672,0.506592
-2.65808,0.50354
-2.67181,0.50354
-2.69012,0.505066
-2.70691,0.506592
-2.72522,0.506592
-2.74353,0.502014
-2.76337,0.50354
-2.78625,0.505066
-2.79999,0.505066
-2.82135,0.506592
-2.84424,0.500488
-2.8656,0.505066
-2.88849,0.506592
-2.9068,0.508118
-2.92969,0.506592
-2.948,0.505066
-2.96783,0.502014
-2.9892,0.505066
-3.00751,0.505066
-3.01971,0.509644
-3.02887,0.50354
-3.03802,0.50354
-3.03955,0.505066
-3.03345,0.505066
-3.02124,0.506592
-2.99835,0.502014
-2.95715,0.502014
-2.9068,0.508118
-2.83813,0.505066
-2.75269,0.506592
-2.65045,0.502014
-2.52686,0.50354
-2.38953,0.505066
-2.23999,0.505066
-2.09198,0.50354
-1.93634,0.50354
-1.78986,0.50354
-1.64337,0.505066
-1.50299,0.505066
-1.36719,0.506592
-1.24359,0.500488
-1.12457,0.50354
-1.01624,0.505066
-0.91095,0.50354
-0.814819,0.508118
-0.730896,0.502014
-0.648499,0.500488
-0.575256,0.50354
-0.511169,0.50354
-0.453186,0.505066
-0.405884,0.498962
-0.364685,0.500488
-0.326538,0.50354
-0.302124,0.505066
-0.276184,0.50354
-0.262451,0.497437
-0.248718,0.500488
-0.245667,0.50354
-0.242615,0.50354
-0.248718,0.50354
-0.256348,0.500488
-0.270081,0.500488
-0.286865,0.50354
-0.30365,0.50354
-0.32196,0.505066
-0.346375,0.502014
-0.367737,0.502014
-0.392151,0.505066
-0.421143,0.50354
-0.444031,0.505066
-0.471497,0.502014
-0.495911,0.50354
-0.521851,0.502014
-0.544739,0.508118
-0.572205,0.505066
-0.59967,0.500488
-0.62561,0.502014
-0.653076,0.506592
-0.680542,0.505066
-0.709534,0.506592
-0.740051,0.498962
-0.767517,0.500488
-0.799561,0.508118
-0.827026,0.50354
-0.857544,0.508118
-0.891113,0.502014
-0.920105,0.505066
-0.950623,0.505066
-0.979614,0.50354
-1.00555,0.506592
-1.03455,0.500488
-1.05896,0.502014
-1.08032,0.506592
-1.09711,0.500488
-1.11542,0.505066
-1.12762,0.500488
-1.13678,0.502014
-1.14441,0.50354
-1.14746,0.50354
-1.14746,0.506592
-1.15051,0.500488
-1.14899,0.50354
-1.14288,0.506592
-1.13983,0.502014
-1.1261,0.50354
-1.12305,0.498962
-1.11389,0.500488
-1.10016,0.50354
-1.09253,0.505066
-1.08185,0.50354
-1.06964,0.497437
-1.06354,0.500488
-1.05133,0.505066
-1.04218,0.502014
-1.03302,0.505066
-1.02844,0.500488
-1.02692,0.500488
-1.01929,0.505066
-1.01776,0.498962
-1.01929,0.50354
-1.02081,0.497437
-1.02234,0.502014
-1.02692,0.502014
-1.03455,0.502014
-1.0498,0.505066
-1.06201,0.500488
-1.0788,0.498962
-1.09711,0.50354
-1.12,0.498962
-1.14136,0.50354
-1.16577,0.498962
-1.19324,0.500488
-1.22375,0.502014
-1.2558,0.50354
-1.28632,0.50354
-1.31836,0.498962
-1.35498,0.502014
-1.3855,0.506592
-1.41907,0.502014
-1.45569,0.50354
-1.48773,0.502014
-1.52435,0.500488
-1.55945,0.50354
-1.59302,0.502014
-1.62506,0.505066
-1.6571,0.500488
-1.6922,0.500488
-1.72424,0.502014
-1.75476,0.500488
-1.78528,0.505066
-1.8158,0.497437
-1.84784,0.500488
-1.87531,0.505066
-1.90582,0.502014
-1.93176,0.50354
-1.96381,0.495911
-1.98975,0.497437
-2.01263,0.505066
-2.03857,0.500488
-2.06299,0.50354
-2.08435,0.500488
-2.10876,0.500488
-2.13318,0.50354
-2.15454,0.500488
-2.17285,0.502014
-2.19574,0.497437
-2.21558,0.500488
-2.23541,0.50354
-2.25525,0.502014
-2.27814,0.500488
-2.29492,0.500488
-2.31323,0.500488
-2.32544,0.502014
-2.3407,0.502014
-2.35443,0.50354
-2.36511,0.497437
-2.3819,0.498962
-2.39105,0.502014
-2.40173,0.500488
-2.41547,0.500488
-2.42462,0.498962
-2.43683,0.497437
-2.44598,0.505066
-2.45819,0.50354
-2.46277,0.505066
-2.47498,0.498962
-2.4826,0.50354
-2.49176,0.505066
-2.50092,0.502014
-2.50702,0.50354
-2.51465,0.498962
-2.52075,0.498962
-2.52838,0.505066
-2.53601,0.502014
-2.54059,0.502014
-2.55127,0.498962
-2.55737,0.502014
-2.56653,0.505066
-2.57416,0.498962
-2.58331,0.506592
-2.59399,0.497437
-2.60773,0.500488
-2.61841,0.505066
-2.63062,0.50354
-2.64282,0.505066
-2.66113,0.495911
-2.67334,0.500488
-2.69165,0.506592
-2.70538,0.500488
-2.72675,0.508118
-2.74353,0.498962
-2.76031,0.500488
-2.77863,0.505066
-2.79999,0.500488
-2.82135,0.50354
-2.84424,0.500488
-2.86407,0.500488
-2.88696,0.50354
-2.90375,0.502014
-2.92664,0.505066
-2.94647,0.500488
-2.96478,0.498962
-2.98309,0.505066
-2.99988,0.502014
-3.01819,0.505066
-3.0304,0.500488
-3.03955,0.500488
-3.0426,0.50354
-3.0365,0.498962
-3.02124,0.500488
-2.99377,0.498962
-2.95258,0.500488
-2.89917,0.50354
-2.82898,0.502014
-2.73895,0.505066
-2.63062,0.500488
-2.50702,0.502014
-2.36359,0.502014
-2.22168,0.500488
-2.07214,0.50354
-1.92261,0.500488
-1.77612,0.498962
-1.63269,0.505066
-1.49841,0.498962
-1.36871,0.505066
-1.24512,0.497437
-1.1261,0.498962
-1.02081,0.505066
-0.918579,0.502014
-0.827026,0.50354
-0.740051,0.498962
-0.660706,0.498962
-0.590515,0.505066
-0.52948,0.505066
-0.473022,0.506592
-0.42572,0.495911
-0.384521,0.498962
-0.35553,0.506592
-0.325012,0.500488
-0.302124,0.505066
-0.291443,0.497437
-0.280762,0.502014
-0.276184,0.50354
-0.276184,0.502014
-0.283813,0.502014
-0.294495,0.500488
-0.309753,0.498962
-0.325012,0.506592
-0.343323,0.502014
-0.367737,0.502014
-0.392151,0.498962
-0.418091,0.498962
-0.448608,0.502014
-0.473022,0.502014
-0.502014,0.502014
-0.535583,0.498962
-0.564575,0.498962
-0.590515,0.502014
-0.614929,0.502014
-0.646973,0.505066
-0.67749,0.498962
-0.704956,0.502014
-0.730896,0.505066
-0.762939,0.502014
-0.793457,0.502014
-0.823975,0.497437
-0.85907,0.498962
-0.889587,0.505066
-0.920105,0.50354
-0.956726,0.505066
-0.990295,0.497437
-1.01929,0.500488
-1.04828,0.505066
-1.0788,0.500488
-1.10779,0.505066
-1.13373,0.495911
-1.15356,0.497437
-1.17188,0.50354
-1.19171,0.50354
-1.20544,0.500488
-1.2207,0.498962
-1.23138,0.500488
-1.24207,0.505066
-1.24054,0.505066
-1.24359,0.50354
-1.24512,0.498962
-1.24207,0.498962
-1.24054,0.505066
-1.23596,0.497437
-1.22681,0.50354
-1.2207,0.502014
-1.21155,0.502014
-1.20392,0.50354
-1.19324,0.502014
-1.18408,0.505066
-1.1734,0.497437
-1.16119,0.497437
-1.15051,0.502014
-1.14594,0.502014
-1.1322,0.500488
-1.12762,0.497437
-1.12457,0.502014
-1.12,0.500488
-1.11694,0.50354
-1.11389,0.502014
-1.12305,0.498962
-1.12457,0.497437
-1.1322,0.50354
-1.14441,0.500488
-1.15509,0.500488
-1.16577,0.497437
-1.18713,0.498962
-1.20697,0.502014
-1.22528,0.502014
-1.24969,0.506592
-1.27716,0.497437
-1.30463,0.500488
-1.3382,0.505066
-1.36414,0.498962
-1.39313,0.50354
-1.42975,0.498962
-1.45874,0.502014
-1.49536,0.50354
-1.53198,0.502014
-1.56403,0.502014
-1.60065,0.497437
-1.63727,0.497437
-1.67236,0.502014
-1.70898,0.50354
-1.74866,0.506592
-1.78375,0.497437
-1.82037,0.500488
-1.85699,0.505066
-1.89514,0.505066
-1.92413,0.502014
-1.95923,0.497437
-1.99585,0.498962
-2.02637,0.505066
-2.05994,0.502014
-2.08893,0.50354
-2.1225,0.497437
-2.14691,0.500488
-2.17896,0.502014
-2.20337,0.50354
-2.23083,0.502014
-2.25983,0.500488
-2.28882,0.500488
-2.31171,0.50354
-2.33612,0.50354
-2.35901,0.50354
-2.37885,0.497437
-2.40021,0.500488
-2.42157,0.506592
-2.44141,0.50354
-2.46124,0.50354
-2.47955,0.498962
-2.49329,0.498962
-2.51312,0.505066
-2.53143,0.505066
-2.54364,0.50354
-2.56195,0.497437
-2.57721,0.502014
-2.58942,0.50354
-2.60315,0.50354
-2.61688,0.502014
-2.63214,0.495911
-2.64587,0.500488
-2.65961,0.502014
-2.67029,0.502014
-2.67944,0.50354
-2.69165,0.498962
-2.70081,0.498962
-2.70844,0.50354
-2.71759,0.498962
-2.7298,0.505066
-2.7359,0.498962
-2.74658,0.500488
-2.75421,0.505066
-2.76184,0.502014
-2.76947,0.502014
-2.77863,0.497437
-2.7832,0.498962
-2.79236,0.505066
-2.79846,0.500488
-2.80762,0.505066
-2.81219,0.497437
-2.8244,0.500488
-2.83203,0.502014
-2.83813,0.500488
-2.84882,0.502014
-2.85797,0.495911
-2.86865,0.498962
-2.88086,0.505066
-2.89001,0.502014
-2.90222,0.502014
-2.91595,0.497437
-2.92664,0.498962
-2.93884,0.502014
-2.95105,0.502014
-2.96631,0.50354
-2.98309,0.497437
-2.99683,0.500488
-3.01361,0.50354
-3.02734,0.502014
-3.04718,0.502014
-3.06549,0.497437
-3.0838,0.498962
-3.09906,0.50354
-3.11737,0.500488
-3.14331,0.50354
-3.16315,0.497437
-3.17993,0.498962
-3.19977,0.50354
-3.21808,0.502014
-3.23639,0.502014
-3.25165,0.498962
-3.26538,0.502014
-3.27606,0.502014
-3.28064,0.50354
-3.28522,0.505066
-3.27606,0.498962
-3.26385,0.50354
-3.23334,0.50354
-3.18756,0.500488
-3.1311,0.506592
-3.05786,0.495911
-2.96021,0.502014
-2.84882,0.502014
-2.71606,0.502014
-2.57416,0.50354
-2.41699,0.498962
-2.25677,0.500488
-2.09198,0.502014
-1.93329,0.502014
-1.77917,0.505066
-1.63574,0.495911
-1.49231,0.498962
-1.35803,0.50354
-1.23444,0.500488
-1.11694,0.500488
-1.00708,0.497437
-0.909424,0.502014
-0.819397,0.50354
-0.740051,0.502014
-0.662231,0.50354
-0.596619,0.500488
-0.535583,0.498962
-0.486755,0.502014
-0.445557,0.502014
-0.408936,0.50354
-0.38147,0.497437
-0.360107,0.500488
-0.340271,0.500488
-0.334167,0.498962
-0.328064,0.502014
-0.32959,0.498962
-0.334167,0.497437
-0.344849,0.506592
-0.358582,0.498962
-0.378418,0.500488
-0.39978,0.495911
-0.421143,0.500488
-0.445557,0.500488
-0.476074,0.502014
-0.500488,0.500488
-0.534058,0.498962
-0.563049,0.495911
-0.592041,0.502014
-0.622559,0.505066
-0.653076,0.502014
-0.680542,0.495911
-0.708008,0.497437
-0.735474,0.500488
-0.765991,0.502014
-0.794983,0.502014
-0.820923,0.492859
-0.849915,0.497437
-0.881958,0.50354
-0.907898,0.50354
-0.941467,0.502014
-0.973511,0.495911
-1.00403,0.497437
-1.0376,0.502014
-1.07422,0.502014
-1.10474,0.500488
-1.13983,0.495911
-1.17188,0.497437
-1.19781,0.500488
-1.22528,0.497437
-1.24969,0.500488
-1.26953,0.497437
-1.28937,0.500488
-1.3092,0.50354
-1.31989,0.500488
-1.33514,0.500488
-1.34583,0.495911
-1.35193,0.498962
-1.35651,0.498962
-1.36108,0.500488
-1.36414,0.502014
-1.36566,0.494385
-1.36261,0.500488
-1.36108,0.502014
-1.35498,0.497437
-1.35193,0.502014
-1.34583,0.494385
-1.3382,0.498962
-1.33209,0.505066
-1.32294,0.500488
-1.31683,0.498962
-1.31531,0.494385
-1.30768,0.500488
-1.30157,0.50354
-1.30157,0.498962
-1.29547,0.50354
-1.30005,0.495911
-1.30005,0.497437
-1.3031,0.498962
-1.30463,0.500488
-1.31683,0.498962
-1.32141,0.494385
-1.3382,0.498962
-1.35345,0.502014
-1.36871,0.498962
-1.38397,0.500488
-1.40533,0.497437
-1.42975,0.495911
-1.44806,0.502014
-1.474,0.497437
-1.49841,0.498962
-1.52435,0.495911
-1.55182,0.497437
-1.58386,0.502014
-1.61133,0.50354
-1.64337,0.500488
-1.67389,0.495911
-1.71204,0.497437
-1.74408,0.494385
-1.7807,0.502014
-1.8158,0.498962
-1.84937,0.494385
-1.88751,0.502014
-1.92413,0.498962
-1.9577,0.500488
-1.99432,0.500488
-2.03094,0.494385
-2.06757,0.495911
-2.10114,0.500488
-2.13776,0.497437
-2.1698,0.500488
-2.20337,0.494385
-2.23541,0.495911
-2.26593,0.500488
-2.29797,0.498962
-2.32697,0.500488
-2.35748,0.492859
-2.38647,0.495911
-2.41241,0.500488
-2.43835,0.502014
-2.46124,0.50354
-2.4826,0.491333
-2.50854,0.497437
-2.52838,0.50354
-2.55127,0.495911
-2.57568,0.498962
-2.59552,0.495911
-2.61536,0.497437
-2.63214,0.500488
-2.6474,0.500488
-2.66418,0.500488
-2.68555,0.494385
-2.70081,0.494385
-2.72217,0.500488
-2.73438,0.500488
-2.75269,0.502014
-2.76489,0.495911
-2.78015,0.494385
-2.79388,0.498962
-2.80304,0.498962
-2.81525,0.498962
-2.82898,0.491333
-2.83966,0.495911
-2.84882,0.498962
-2.85645,0.497437
-2.86713,0.500488
-2.87933,0.492859
-2.88849,0.495911
-2.89612,0.497437
-2.90375,0.497437
-2.91138,0.502014
-2.91748,0.494385
-2.92664,0.494385
-2.92969,0.500488
-2.93579,0.498962
-2.94342,0.500488
-2.948,0.494385
-2.95563,0.494385
-2.96021,0.498962
-2.96478,0.500488
-2.97394,0.498962
-2.98004,0.495911
-2.98767,0.494385
-2.99377,0.500488
-2.99988,0.500488
-3.01056,0.500488
-3.01666,0.491333
-3.02734,0.494385
-3.0365,0.498962
-3.0426,0.497437
-3.05481,0.498962
-3.06396,0.492859
-3.07617,0.500488
-3.08533,0.502014
-3.09906,0.497437
-3.11279,0.498962
-3.12347,0.492859
-3.14026,0.495911
-3.15399,0.500488
-3.16925,0.498962
-3.18756,0.50354
-3.20435,0.492859
-3.22113,0.492859
-3.24097,0.500488
-3.2608,0.500488
-3.27911,0.497437
-3.302,0.491333
-3.31726,0.494385
-3.34167,0.500488
-3.35846,0.497437
-3.37982,0.497437
-3.39813,0.494385
-3.41797,0.495911
-3.43323,0.502014
-3.44849,0.498962
-3.45917,0.497437
-3.46222,0.494385
-3.46527,0.494385
-3.45459,0.500488
-3.43323,0.500488
-3.40118,0.498962
-3.35846,0.494385
-3.29285,0.494385
-3.21045,0.497437
-3.10974,0.498962
-2.99683,0.498962
-2.85797,0.491333
-2.70538,0.494385
-2.53906,0.500488
-2.36816,0.502014
-2.19879,0.498962
-2.03247,0.494385
-1.87531,0.495911
-1.71967,0.497437
-1.57013,0.498962
-1.43585,0.495911
-1.30463,0.492859
-1.18713,0.492859
-1.08032,0.497437
-0.976563,0.497437
-0.889587,0.494385
-0.80719,0.491333
-0.733948,0.494385
-0.666809,0.498962
-0.611877,0.494385
-0.563049,0.497437
-0.524902,0.491333
-0.492859,0.495911
-0.466919,0.498962
-0.445557,0.494385
-0.43335,0.497437
-0.42572,0.492859
-0.427246,0.494385
-0.430298,0.498962
-0.439453,0.497437
-0.453186,0.498962
-0.469971,0.492859
-0.494385,0.495911
-0.518799,0.495911
-0.547791,0.495911
-0.579834,0.498962
-0.608826,0.489807
-0.640869,0.495911
-0.675964,0.498962
-0.71106,0.495911
-0.744629,0.497437
-0.775146,0.489807
-0.813293,0.491333
-0.845337,0.495911
-0.880432,0.494385
-0.912476,0.498962
-0.944519,0.494385
-0.978088,0.492859
-1.00861,0.495911
-1.04523,0.497437
-1.07727,0.495911
-1.11084,0.489807
-1.14746,0.489807
-1.1795,0.495911
-1.21307,0.498962
-1.24664,0.497437
-1.28021,0.494385
-1.31683,0.495911
-1.3443,0.498962
-1.37177,0.497437
-1.39923,0.497437
-1.42517,0.489807
-1.44348,0.491333
-1.46332,0.495911
-1.47552,0.500488
-1.49078,0.495911
-1.49841,0.492859
-1.50299,0.492859
-1.50757,0.494385
-1.50604,0.497437
-1.50909,0.495911
-1.50604,0.491333
-1.49841,0.494385
-1.49231,0.495911
-1.4801,0.492859
-1.47095,0.495911
-1.45874,0.488281
-1.44501,0.494385
-1.43433,0.497437
-1.41907,0.495911
-1.40228,0.497437
-1.39313,0.491333
-1.38092,0.491333
-1.36719,0.492859
-1.35651,0.495911
-1.34888,0.495911
-1.3443,0.491333
-1.33667,0.494385
-1.33209,0.494385
-1.33057,0.494385
-1.33057,0.497437
-1.33057,0.489807
-1.33972,0.491333
-1.34735,0.492859
-1.35498,0.495911
-1.36871,0.498962
-1.39008,0.488281
-1.40381,0.494385
-1.42822,0.495911
-1.44958,0.492859
-1.47552,0.495911
-1.49994,0.489807
-1.52893,0.491333
-1.55792,0.497437
-1.58997,0.495911
-1.62048,0.495911
-1.6571,0.491333
-1.69373,0.494385
-1.73187,0.495911
-1.76544,0.492859
-1.80359,0.495911
-1.84479,0.488281
-1.88446,0.494385
-1.92108,0.495911
-1.9577,0.495911
-1.99738,0.495911
-2.03552,0.489807
-2.0752,0.492859
-2.11182,0.492859
-2.14539,0.495911
-2.18048,0.495911
-2.21558,0.491333
-2.24609,0.491333
-2.28424,0.494385
-2.31628,0.492859
-2.34222,0.492859
-2.37427,0.489807
-2.40479,0.494385
-2.43225,0.494385
-2.45667,0.497437
-2.4826,0.492859
-2.5116,0.489807
-2.52686,0.491333
-2.5528,0.495911
-2.57568,0.492859
-2.59552,0.492859
-2.61688,0.488281
-2.63672,0.494385
-2.6535,0.491333
-2.66876,0.494385
-2.6886,0.492859
-2.70233,0.489807
-2.71759,0.491333
-2.7298,0.492859
-2.74506,0.492859
-2.75879,0.495911
-2.77252,0.488281
-2.7832,0.492859
-2.79388,0.494385
-2.80457,0.494385
-2.81067,0.494385
-2.8244,0.488281
-2.83203,0.489807
-2.84424,0.494385
-2.85187,0.494385
-2.85797,0.494385
-2.86255,0.488281
-2.87476,0.491333
-2.87933,0.494385
-2.88239,0.494385
-2.88849,0.494385
-2.88849,0.491333
-2.89612,0.491333
-2.89917,0.491333
-2.90527,0.491333
-2.90985,0.494385
-2.91595,0.488281
-2.91748,0.491333
-2.92053,0.491333
-2.92358,0.495911
-2.92664,0.491333
-2.93274,0.489807
-2.93884,0.491333
-2.948,0.494385
-2.95105,0.492859
-2.95868,0.492859
-2.96783,0.485229
-2.97699,0.492859
-2.98309,0.491333
-2.99225,0.491333
-3.01056,0.494385
-3.01971,0.491333
-3.0304,0.488281
-3.0426,0.495911
-3.06091,0.495911
-3.07465,0.492859
-3.08685,0.488281
-3.10516,0.491333
-3.12042,0.495911
-3.13721,0.492859
-3.15857,0.491333
-3.1723,0.489807
-3.19519,0.491333
-3.2135,0.494385
-3.23334,0.494385
-3.2486,0.495911
-3.26843,0.491333
-3.29132,0.489807
-3.30963,0.492859
-3.32489,0.495911
-3.33862,0.495911
-3.3493,0.492859
-3.35999,0.488281
-3.36151,0.492859
-3.35236,0.494385
-3.33405,0.492859
-3.30353,0.491333
-3.25775,0.491333
-3.19672,0.492859
-3.11584,0.494385
-3.02277,0.491333
-2.9068,0.485229
-2.77405,0.489807
-2.62146,0.492859
-2.46124,0.491333
-2.29492,0.494385
-2.12708,0.489807
-1.96228,0.489807
-1.80054,0.491333
-1.64795,0.495911
-1.50299,0.492859
-1.36566,0.489807
-1.23901,0.485229
-1.12,0.494385
-1.01013,0.492859
-0.91095,0.494385
-0.817871,0.492859
-0.737,0.489807
-0.660706,0.492859
-0.596619,0.491333
-0.540161,0.494385
-0.492859,0.489807
-0.453186,0.485229
-0.418091,0.492859
-0.389099,0.492859
-0.367737,0.494385
-0.35553,0.489807
-0.346375,0.485229
-0.346375,0.494385
-0.349426,0.492859
-0.357056,0.494385
-0.372314,0.491333
-0.387573,0.488281
-0.402832,0.491333
-0.427246,0.492859
-0.454712,0.492859
-0.483704,0.488281
-0.509644,0.489807
-0.540161,0.491333
-0.567627,0.494385
-0.598145,0.491333
-0.630188,0.488281
-0.662231,0.489807
-0.688171,0.492859
-0.720215,0.495911
-0.750732,0.491333
-0.78125,0.488281
-0.811768,0.488281
-0.836182,0.492859
-0.866699,0.494385
-0.897217,0.492859
-0.92926,0.489807
-0.958252,0.489807
-0.987244,0.489807
-1.02081,0.492859
-1.05591,0.492859
-1.08948,0.491333
-1.12457,0.488281
-1.15662,0.492859
-1.18866,0.492859
-1.21918,0.494385
-1.25275,0.488281
-1.27869,0.485229
-1.3092,0.489807
-1.33362,0.489807
-1.35345,0.492859
-1.37634,0.491333
-1.39465,0.489807
-1.40991,0.495911
-1.42517,0.495911
-1.44043,0.491333
-1.44806,0.489807
-1.45874,0.488281
-1.46179,0.494385
-1.4679,0.492859
-1.4679,0.494385
-1.4679,0.492859
-1.46942,0.488281
-1.46332,0.494385
-1.46179,0.494385
-1.45721,0.491333
-1.45569,0.489807
-1.44653,0.488281
-1.44196,0.494385
-1.43585,0.491333
-1.43127,0.491333
-1.42822,0.491333
-1.42822,0.485229
-1.42517,0.494385
-1.42212,0.492859
-1.42212,0.492859
-1.4267,0.491333
-1.42975,0.489807
-1.43433,0.495911
-1.44043,0.494385
-1.44806,0.494385
-1.46179,0.489807
-1.474,0.488281
-1.48926,0.494385
-1.50604,0.494385
-1.52588,0.489807
-1.55029,0.491333
-1.57318,0.488281
-1.60065,0.492859
-1.62964,0.494385
-1.65863,0.491333
-1.69067,0.492859
-1.72272,0.492859
-1.75629,0.492859
-1.78986,0.492859
-1.82648,0.492859
-1.8631,0.491333
-1.89972,0.489807
-1.93634,0.494385
-1.97601,0.494385
-2.01263,0.494385
-2.05231,0.491333
-2.09503,0.488281
-2.12708,0.492859
-2.16827,0.497437
-2.20642,0.492859
-2.24609,0.491333
-2.28271,0.489807
-2.31934,0.492859
-2.35443,0.497437
-2.38953,0.492859
-2.4231,0.492859
-2.45667,0.491333
-2.48718,0.495911
-2.51923,0.494385
-2.54974,0.494385
-2.58026,0.492859
-2.61078,0.489807
-2.63367,0.492859
-2.65961,0.497437
-2.68555,0.492859
-2.71606,0.492859
-2.74048,0.489807
-2.76337,0.495911
-2.78473,0.495911
-2.80609,0.494385
-2.82745,0.491333
-2.84424,0.489807
-2.86713,0.497437
-2.88544,0.495911
-2.9007,0.494385
-2.92206,0.494385
-2.93579,0.492859
-2.95258,0.495911
-2.96631,0.498962
-2.98309,0.495911
-2.99988,0.494385
-3.01208,0.489807
-3.02124,0.495911
-3.03192,0.495911
-3.04413,0.495911
-3.05939,0.491333
-3.07159,0.492859
-3.08075,0.495911
-3.09143,0.497437
-3.10059,0.495911
-3.10974,0.492859
-3.11432,0.489807
-3.12347,0.497437
-3.12805,0.495911
-3.14026,0.495911
-3.14636,0.495911
-3.15094,0.494385
-3.15552,0.495911
-3.16315,0.498962
-3.1662,0.494385
-3.17078,0.495911
-3.17688,0.491333
-3.18146,0.498962
-3.18604,0.497437
-3.18756,0.492859
-3.19977,0.492859
-3.20282,0.492859
-3.21045,0.497437
-3.21808,0.498962
-3.22723,0.494385
-3.23334,0.494385
-3.24249,0.492859
-3.2486,0.497437
-3.25775,0.500488
-3.26843,0.491333
-3.28064,0.494385
-3.2959,0.492859
-3.30658,0.495911
-3.32184,0.498962
-3.33405,0.497437
-3.35236,0.498962
-3.36761,0.494385
-3.38135,0.497437
-3.39813,0.502014
-3.41644,0.492859
-3.43323,0.497437
-3.45001,0.495911
-3.46375,0.498962
-3.47443,0.502014
-3.48816,0.494385
-3.49579,0.498962
-3.50037,0.495911
-3.50494,0.497437
-3.50037,0.498962
-3.48663,0.494385
-3.46375,0.495911
-3.42407,0.494385
-3.36761,0.498962
-3.29895,0.502014
-3.2074,0.494385
-3.10516,0.497437
-2.97852,0.495911
-2.83813,0.497437
-2.67944,0.500488
-2.5116,0.492859
-2.33307,0.497437
-2.16217,0.498962
-1.9928,0.498962
-1.82343,0.498962
-1.66473,0.494385
-1.51367,0.494385
-1.37787,0.494385
-1.24817,0.498962
-1.12762,0.502014
-1.02234,0.494385
-0.920105,0.498962
-0.830078,0.495911
-0.750732,0.498962
-0.675964,0.498962
-0.613403,0.492859
-0.55542,0.494385
-0.511169,0.495911
-0.469971,0.50354
-0.437927,0.502014
-0.418091,0.492859
-0.401306,0.498962
-0.390625,0.497437
-0.387573,0.497437
-0.392151,0.502014
-0.396729,0.495911
-0.408936,0.497437
-0.42572,0.494385
-0.448608,0.50354
-0.471497,0.502014
-0.498962,0.492859
-0.52948,0.498962
-0.563049,0.495911
-0.596619,0.500488
-0.630188,0.498962
-0.666809,0.497437
-0.701904,0.497437
-0.741577,0.495911
-0.775146,0.502014
-0.811768,0.498962
-0.843811,0.494385
-0.880432,0.500488
-0.914001,0.498962
-0.946045,0.498962
-0.984192,0.500488
-1.02081,0.494385
-1.0498,0.500488
-1.0849,0.498962
-1.11847,0.505066
-1.15356,0.50354
-1.18866,0.495911
-1.22223,0.498962
-1.25427,0.498962
-1.28632,0.502014
-1.31531,0.50354
-1.34583,0.497437
-1.37177,0.500488
-1.39313,0.498962
-1.41296,0.50354
-1.42822,0.50354
-1.44501,0.495911
-1.45569,0.500488
-1.46332,0.500488
-1.46637,0.50354
-1.46637,0.502014
-1.46942,0.497437
-1.4679,0.498962
-1.46179,0.498962
-1.45569,0.505066
-1.44501,0.502014
-1.43433,0.498962
-1.42212,0.498962
-1.40839,0.498962
-1.39771,0.505066
-1.38092,0.50354
-1.36719,0.497437
-1.35498,0.502014
-1.34125,0.498962
-1.32446,0.502014
-1.31226,0.50354
-1.3031,0.497437
-1.29242,0.500488
-1.28174,0.498962
-1.27411,0.50354
-1.26953,0.505066
-1.26648,0.50354
-1.25732,0.500488
-1.25885,0.500488
-1.25885,0.502014
-1.26801,0.50354
-1.27411,0.500488
-1.28174,0.502014
-1.29547,0.500488
-1.3092,0.50354
-1.33057,0.50354
-1.3504,0.50354
-1.37024,0.502014
-1.39465,0.500488
-1.42212,0.500488
-1.44806,0.506592
-1.47858,0.505066
-1.51215,0.502014
-1.54419,0.50354
-1.57776,0.498962
-1.61896,0.509644
-1.65253,0.505066
-1.6922,0.500488
-1.73035,0.498962
-1.77155,0.50354
-1.81122,0.508118
-1.84937,0.505066
-1.88599,0.502014
-1.92719,0.50354
-1.96838,0.502014
-2.00195,0.506592
-2.04315,0.502014
-2.08435,0.50354
-2.11639,0.502014
-2.15759,0.506592
-2.19269,0.508118
-2.22473,0.506592
-2.26135,0.502014
-2.29187,0.50354
-2.32239,0.502014
-2.35748,0.506592
-2.38342,0.506592
-2.41394,0.500488
-2.43835,0.502014
-2.46277,0.502014
-2.48718,0.508118
-2.5116,0.506592
-2.52838,0.502014
-2.55127,0.502014
-2.57111,0.502014
-2.58942,0.506592
-2.60468,0.508118
-2.62299,0.506592
-2.63977,0.502014
-2.6535,0.50354
-2.66571,0.509644
-2.67792,0.506592
-2.69012,0.500488
-2.70081,0.502014
-2.70996,0.50354
-2.72217,0.509644
-2.72827,0.511169
-2.73895,0.502014
-2.74353,0.500488
-2.75421,0.505066
-2.76184,0.511169
-2.76642,0.508118
-2.77252,0.50354
-2.78015,0.502014
-2.78778,0.50354
-2.79388,0.50354
-2.80151,0.509644
-2.80762,0.50354
-2.81525,0.500488
-2.82288,0.506592
-2.82898,0.511169
-2.83661,0.511169
-2.84424,0.50354
-2.85339,0.505066
-2.86255,0.50354
-2.87018,0.506592
-2.88391,0.511169
-2.89307,0.505066
-2.90527,0.50354
-2.91748,0.502014
-2.92969,0.511169
-2.93884,0.512695
-2.95715,0.50354
-2.96936,0.502014
-2.98309,0.505066
-2.99835,0.512695
-3.01514,0.508118
-3.02734,0.50354
-3.04108,0.502014
-3.05634,0.50354
-3.07007,0.508118
-3.0838,0.509644
-3.09143,0.505066
-3.10364,0.506592
-3.10822,0.505066
-3.10822,0.511169
-3.10516,0.509644
-3.08838,0.50354
-3.07465,0.502014
-3.04108,0.50354
-2.99225,0.509644
-2.93121,0.508118
-2.85797,0.50354
-2.76031,0.502014
-2.64587,0.50354
-2.51923,0.506592
-2.37579,0.509644
-2.22626,0.50354
-2.06909,0.50354
-1.9104,0.506592
-1.75781,0.506592
-1.61133,0.511169
-1.47095,0.502014
-1.33972,0.506592
-1.2146,0.505066
-1.09558,0.509644
-0.985718,0.509644
-0.889587,0.50354
-0.794983,0.506592
-0.706482,0.506592
-0.636292,0.508118
-0.561523,0.509644
-0.50354,0.505066
-0.453186,0.50354
-0.410461,0.505066
-0.372314,0.511169
-0.340271,0.506592
-0.325012,0.50354
-0.30365,0.500488
-0.294495,0.506592
-0.289917,0.509644
-0.288391,0.509644
-0.294495,0.506592
-0.306702,0.505066
-0.323486,0.505066
-0.338745,0.514221
-0.360107,0.508118
-0.386047,0.502014
-0.410461,0.50354
-0.434875,0.505066
-0.466919,0.511169
-0.492859,0.505066
-0.526428,0.50354
-0.552368,0.50354
-0.582886,0.508118
-0.614929,0.506592
-0.645447,0.506592
-0.675964,0.50354
-0.706482,0.505066
-0.735474,0.508118
-0.769043,0.509644
-0.801086,0.506592
-0.836182,0.505066
-0.868225,0.505066
-0.901794,0.506592
-0.938416,0.505066
-0.973511,0.509644
-1.00861,0.502014
-1.04523,0.50354
-1.08032,0.505066
-1.11389,0.511169
-1.14899,0.508118
-1.1795,0.505066
-1.21155,0.506592
-1.23901,0.506592
-1.26038,0.505066
-1.28326,0.508118
-1.3031,0.50354
-1.31683,0.50354
-1.33209,0.505066
-1.3382,0.508118
-1.3504,0.505066
-1.35345,0.500488
-1.35345,0.505066
-1.35345,0.50354
-1.3504,0.508118
-1.34888,0.508118
-1.3443,0.502014
-1.3382,0.500488
-1.32904,0.505066
-1.31836,0.506592
-1.31226,0.506592
-1.29547,0.50354
-1.28632,0.50354
-1.27716,0.505066
-1.26801,0.508118
-1.25732,0.508118
-1.24969,0.502014
-1.23901,0.502014
-1.23138,0.505066
-1.22681,0.505066
-1.22223,0.506592
-1.22223,0.500488
-1.2207,0.505066
-1.22681,0.506592
-1.22833,0.505066
-1.23444,0.506592
-1.24359,0.502014
-1.25275,0.502014
-1.27106,0.505066
-1.28632,0.508118
-1.30615,0.50354
-1.32294,0.50354
-1.34888,0.50354
-1.37329,0.506592
-1.40076,0.509644
-1.42975,0.506592
-1.45721,0.505066
-1.49078,0.502014
-1.52435,0.502014
-1.55487,0.506592
-1.58997,0.50354
-1.62659,0.505066
-1.66168,0.50354
-1.6983,0.50354
-1.73187,0.506592
-1.77307,0.50354
-1.80969,0.50354
-1.84784,0.505066
-1.88446,0.505066
-1.92261,0.505066
-1.96228,0.508118
-1.99585,0.500488
-2.03247,0.505066
-2.06757,0.50354
-2.10571,0.506592
-2.13776,0.505066
-2.17285,0.505066
-2.20795,0.500488
-2.23999,0.505066
-2.27356,0.506592
-2.30713,0.50354
-2.33765,0.50354
-2.36816,0.50354
-2.39258,0.506592
-2.42615,0.509644
-2.44904,0.506592
-2.47345,0.502014
-2.49939,0.50354
-2.5238,0.505066
-2.54822,0.506592
-2.56653,0.50354
-2.58331,0.50354
-2.60468,0.50354
-2.62146,0.508118
-2.63824,0.508118
-2.65198,0.502014
-2.66876,0.50354
-2.68097,0.502014
-2.6947,0.505066
-2.70844,0.506592
-2.71606,0.498962
-2.73132,0.500488
-2.73743,0.50354
-2.74963,0.50354
-2.75726,0.506592
-2.76794,0.50354
-2.7771,0.50354
-2.7832,0.500488
-2.79236,0.505066
-2.79999,0.505066
-2.80457,0.50354
-2.81219,0.502014
-2.82135,0.505066
-2.82898,0.505066
-2.83508,0.508118
-2.84271,0.50354
-2.85492,0.502014
-2.8595,0.500488
-2.86865,0.505066
-2.87933,0.508118
-2.88696,0.502014
-2.89764,0.502014
-2.9129,0.502014
-2.91901,0.50354
-2.93427,0.505066
-2.94647,0.500488
-2.96478,0.500488
-2.97546,0.500488
-2.98767,0.50354
-3.00446,0.506592
-3.02429,0.498962
-3.04108,0.502014
-3.06091,0.502014
-3.07617,0.505066
-3.09601,0.506592
-3.11432,0.502014
-3.13416,0.50354
-3.15552,0.500488
-3.1723,0.508118
-3.18909,0.505066
-3.20892,0.500488
-3.22266,0.498962
-3.23486,0.50354
-3.24097,0.50354
-3.24402,0.50354
-3.24249,0.497437
-3.23486,0.502014
-3.2135,0.502014
-3.17841,0.502014
-3.1311,0.50354
-3.06549,0.498962
-2.98615,0.500488
-2.88544,0.50354
-2.76794,0.502014
-2.63367,0.505066
-2.48566,0.495911
-2.33002,0.50354
-2.1698,0.500488
-2.00806,0.50354
-1.84784,0.506592
-1.69525,0.497437
-1.55334,0.502014
-1.41296,0.50354
-1.28632,0.502014
-1.16272,0.50354
-1.05286,0.495911
-0.947571,0.500488
-0.852966,0.502014
-0.770569,0.502014
-0.691223,0.502014
-0.628662,0.497437
-0.566101,0.502014
-0.515747,0.498962
-0.473022,0.50354
-0.439453,0.50354
-0.415039,0.498962
-0.387573,0.497437
-0.372314,0.498962
-0.364685,0.500488
-0.363159,0.505066
-0.369263,0.497437
-0.375366,0.502014
-0.389099,0.502014
-0.410461,0.502014
-0.431824,0.50354
-0.456238,0.495911
-0.483704,0.500488
-0.518799,0.502014
-0.544739,0.500488
-0.582886,0.502014
-0.616455,0.498962
-0.650024,0.498962
-0.688171,0.502014
-0.721741,0.502014
-0.761414,0.502014
-0.796509,0.497437
-0.831604,0.500488
-0.863647,0.500488
-0.900269,0.50354
-0.933838,0.506592
-0.968933,0.498962
-1.00098,0.500488
-1.0376,0.502014
-1.07422,0.500488
-1.11237,0.500488
-1.14899,0.495911
-1.18561,0.500488
-1.21918,0.498962
-1.2558,0.502014
-1.28479,0.50354
-1.31683,0.495911
-1.34583,0.50354
-1.37329,0.502014
-1.39618,0.502014
-1.41754,0.502014
-1.4328,0.494385
-1.44653,0.500488
-1.45569,0.498962
-1.46179,0.502014
-1.46484,0.506592
-1.46027,0.494385
-1.45721,0.502014
-1.45111,0.502014
-1.44348,0.498962
-1.43433,0.50354
-1.42059,0.494385
-1.40839,0.50354
-1.39771,0.502014
-1.37939,0.502014
-1.35803,0.50354
-1.34277,0.494385
-1.33209,0.50354
-1.31073,0.50354
-1.29547,0.497437
-1.28174,0.502014
-1.26953,0.495911
-1.25275,0.498962
-1.24359,0.502014
-1.23138,0.502014
-1.22681,0.500488
-1.21765,0.497437
-1.21765,0.502014
-1.21613,0.498962
-1.2146,0.502014
-1.21613,0.50354
-1.21918,0.497437
-1.22986,0.498962
-1.23596,0.502014
-1.25122,0.500488
-1.26648,0.50354
-1.28326,0.495911
-1.30157,0.498962
-1.32294,0.500488
-1.34583,0.500488
-1.37177,0.505066
-1.39771,0.497437
-1.42975,0.500488
-1.45874,0.500488
-1.49231,0.500488
-1.52435,0.50354
-1.55792,0.494385
-1.59302,0.502014
-1.62506,0.502014
-1.65863,0.500488
-1.6922,0.506592
-1.72729,0.494385
-1.76392,0.502014
-1.79749,0.500488
-1.83105,0.502014
-1.86157,0.50354
-1.90125,0.495911
-1.93481,0.502014
-1.96381,0.500488
-1.99738,0.502014
-2.03094,0.502014
-2.05994,0.495911
-2.09351,0.50354
-2.11487,0.502014
-2.14539,0.505066
-2.17438,0.505066
-2.19727,0.494385
-2.22168,0.50354
-2.24762,0.502014
-2.26746,0.505066
-2.28882,0.505066
-2.3056,0.497437
-2.33002,0.50354
-2.3468,0.500488
-2.36053,0.502014
-2.37732,0.506592
-2.3941,0.495911
-2.41089,0.50354
-2.4231,0.50354
-2.43835,0.502014
-2.44751,0.505066
-2.45819,0.497437
-2.47345,0.505066
-2.48413,0.500488
-2.49176,0.50354
-2.50397,0.506592
-2.51465,0.495911
-2.52075,0.505066
-2.52838,0.500488
-2.54211,0.500488
-2.54974,0.506592
-2.55737,0.497437
-2.565,0.505066
-2.57568,0.502014
-2.58636,0.50354
-2.59552,0.505066
-2.60468,0.498962
-2.61993,0.50354
-2.63062,0.500488
-2.64435,0.505066
-2.65961,0.50354
-2.67334,0.497437
-2.68555,0.50354
-2.70386,0.50354
-2.72064,0.502014
-2.7359,0.50354
-2.75421,0.498962
-2.76947,0.505066
-2.78778,0.50354
-2.79999,0.502014
-2.8183,0.50354
-2.83508,0.502014
-2.85034,0.50354
-2.86713,0.502014
-2.88391,0.502014
-2.89764,0.506592
-2.90985,0.502014
-2.92358,0.502014
-2.93579,0.50354
-2.94495,0.50354
-2.95105,0.50354
-2.95105,0.500488
-2.95105,0.50354
-2.94495,0.497437
-2.92969,0.50354
-2.9007,0.508118
-2.86102,0.50354
-2.81067,0.505066
-2.73743,0.505066
-2.6535,0.502014
-2.55127,0.505066
-2.42615,0.502014
-2.29187,0.506592
-2.14539,0.50354
-2.00043,0.50354
-1.84937,0.506592
-1.70288,0.50354
-1.5625,0.505066
-1.4267,0.505066
-1.29395,0.50354
-1.1734,0.506592
-1.05896,0.505066
-0.953674,0.508118
-0.852966,0.50354
-0.762939,0.50354
-0.67749,0.506592
-0.604248,0.505066
-0.532532,0.508118
-0.476074,0.506592
-0.424194,0.50354
-0.378418,0.506592
-0.341797,0.505066
-0.312805,0.506592
-0.289917,0.502014
-0.268555,0.502014
-0.256348,0.50354
-0.247192,0.50354
-0.245667,0.505066
-0.247192,0.506592
-0.257874,0.505066
-0.270081,0.505066
-0.286865,0.506592
-0.305176,0.505066
-0.323486,0.50354
-0.346375,0.505066
-0.369263,0.500488
-0.398254,0.505066
-0.424194,0.506592
-0.456238,0.506592
-0.485229,0.50354
-0.514221,0.505066
-0.543213,0.506592
-0.572205,0.509644
-0.59967,0.502014
-0.628662,0.505066
-0.654602,0.508118
-0.683594,0.506592
-0.714111,0.506592
-0.744629,0.506592
-0.776672,0.502014
-0.810242,0.506592
-0.840759,0.506592
-0.87738,0.506592
-0.91095,0.50354
-0.944519,0.505066
-0.978088,0.509644
-1.01318,0.505066
-1.04828,0.505066
-1.07422,0.506592
-1.10168,0.50354
-1.12915,0.506592
-1.15051,0.505066
-1.1673,0.508118
-1.18713,0.506592
-1.19934,0.502014
-1.2146,0.508118
-1.22223,0.506592
-1.22375,0.508118
-1.22833,0.505066
-1.23138,0.502014
-1.22375,0.505066
-1.22375,0.506592
-1.21765,0.508118
-1.21002,0.506592
-1.19476,0.502014
-1.18561,0.505066
-1.17493,0.506592
-1.15967,0.506592
-1.14899,0.508118
-1.13525,0.506592
-1.12152,0.506592
-1.11237,0.509644
-1.09711,0.506592
-1.08643,0.506592
-1.07269,0.502014
-1.06354,0.506592
-1.05438,0.508118
-1.0498,0.506592
-1.04065,0.506592
-1.03912,0.508118
-1.03455,0.508118
-1.03455,0.511169
-1.03912,0.511169
-1.04523,0.506592
-1.05133,0.50354
-1.06354,0.508118
-1.07269,0.508118
-1.091,0.505066
-1.11237,0.505066
-1.13068,0.505066
-1.15814,0.506592
-1.18408,0.509644
-1.20697,0.506592
-1.23138,0.506592
-1.25885,0.508118
-1.29089,0.508118
-1.31989,0.508118
-1.35193,0.508118
-1.38702,0.505066
-1.41907,0.50354
-1.45264,0.506592
-1.48468,0.509644
-1.5213,0.508118
-1.55792,0.505066
-1.58997,0.506592
-1.62354,0.511169
-1.66016,0.511169
-1.69525,0.508118
-1.7334,0.505066
-1.76544,0.505066
-1.79901,0.506592
-1.83258,0.509644
-1.8692,0.508118
-1.90125,0.50354
-1.93481,0.505066
-1.96533,0.506592
-1.99585,0.512695
-2.02179,0.508118
-2.05383,0.505066
-2.07825,0.506592
-2.10266,0.505066
-2.1286,0.508118
-2.15454,0.509644
-2.1759,0.505066
-2.19727,0.50354
-2.2171,0.509644
-2.23846,0.511169
-2.2583,0.508118
-2.27509,0.505066
-2.29492,0.509644
-2.31018,0.505066
-2.33002,0.509644
-2.3407,0.505066
-2.35443,0.50354
-2.36969,0.506592
-2.3819,0.508118
-2.39563,0.511169
-2.40784,0.508118
-2.41547,0.506592
-2.42462,0.508118
-2.43988,0.505066
-2.45056,0.509644
-2.45819,0.508118
-2.4704,0.506592
-2.4765,0.50354
-2.48413,0.508118
-2.49329,0.512695
-2.50397,0.508118
-2.51465,0.505066
-2.5238,0.508118
-2.53143,0.506592
-2.54364,0.512695
-2.55127,0.506592
-2.56195,0.506592
-2.57416,0.505066
-2.58331,0.506592
-2.59857,0.512695
-2.60925,0.509644
-2.61993,0.506592
-2.63367,0.50354
-2.64587,0.509644
-2.65808,0.511169
-2.67487,0.506592
-2.6886,0.505066
-2.70233,0.502014
-2.71606,0.506592
-2.73132,0.509644
-2.74963,0.508118
-2.76337,0.508118
-2.78473,0.50354
-2.79846,0.506592
-2.8183,0.509644
-2.83203,0.506592
-2.84882,0.506592
-2.86102,0.505066
-2.87323,0.505066
-2.88239,0.511169
-2.88696,0.505066
-2.88544,0.506592
-2.88239,0.505066
-2.8656,0.506592
-2.83661,0.508118
-2.79694,0.509644
-2.74353,0.505066
-2.66571,0.505066
-2.57568,0.506592
-2.46124,0.509644
-2.33459,0.505066
-2.19574,0.508118
-2.0462,0.508118
-1.89972,0.506592
-1.75171,0.508118
-1.60217,0.505066
-1.45874,0.50354
-1.32599,0.50354
-1.19629,0.505066
-1.07422,0.508118
-0.96283,0.511169
-0.852966,0.505066
-0.75531,0.506592
-0.668335,0.506592
-0.582886,0.508118
-0.508118,0.506592
-0.434875,0.505066
-0.376892,0.505066
-0.323486,0.508118
-0.280762,0.509644
-0.242615,0.508118
-0.210571,0.50354
-0.187683,0.502014
-0.172424,0.50354
-0.161743,0.508118
-0.152588,0.508118
-0.152588,0.506592
-0.15564,0.50354
-0.164795,0.505066
-0.177002,0.506592
-0.192261,0.505066
-0.210571,0.506592
-0.230408,0.509644
-0.250244,0.505066
-0.276184,0.506592
-0.308228,0.506592
-0.328064,0.508118
-0.360107,0.506592
-0.382996,0.509644
-0.40741,0.506592
-0.440979,0.505066
-0.468445,0.506592
-0.494385,0.506592
-0.518799,0.505066
-0.549316,0.508118
-0.576782,0.50354
-0.605774,0.506592
-0.634766,0.506592
-0.65918,0.505066
-0.686646,0.505066
-0.717163,0.505066
-0.750732,0.508118
-0.78125,0.505066
-0.811768,0.50354
-0.845337,0.506592
-0.87738,0.505066
-0.909424,0.505066
-0.93689,0.50354
-0.964355,0.506592
-0.985718,0.50354
-1.01471,0.505066
-1.03455,0.505066
-1.05133,0.505066
-1.06201,0.506592
-1.07422,0.502014
-1.08337,0.50354
-1.09253,0.506592
-1.09711,0.505066
-1.10016,0.508118
-1.10016,0.50354
-1.09863,0.506592
-1.09863,0.505066
-1.09406,0.506592
-1.08795,0.505066
-1.07727,0.505066
-1.07269,0.50354
-1.06659,0.506592
-1.05438,0.505066
-1.04828,0.505066
-1.0376,0.50354
-1.02997,0.502014
-1.02081,0.505066
-1.01013,0.50354
-1.00403,0.505066
-0.996399,0.50354
-0.990295,0.505066
-0.984192,0.506592
-0.978088,0.505066
-0.978088,0.506592
-0.976563,0.50354
-0.982666,0.505066
-0.990295,0.506592
-0.996399,0.505066
-1.0025,0.506592
-1.01318,0.502014
-1.03149,0.505066
-1.04828,0.505066
-1.06354,0.508118
-1.08795,0.506592
-1.11084,0.50354
-1.1322,0.508118
-1.15814,0.508118
-1.18561,0.508118
-1.21765,0.511169
-1.24664,0.50354
-1.27411,0.505066
-1.3031,0.505066
-1.33667,0.506592
-1.36719,0.509644
-1.39923,0.502014
-1.43433,0.50354
-1.46179,0.505066
-1.49536,0.508118
-1.5274,0.508118
-1.5564,0.500488
-1.58386,0.505066
-1.61743,0.505066
-1.64795,0.506592
-1.67847,0.508118
-1.70898,0.502014
-1.73645,0.502014
-1.76697,0.506592
-1.79596,0.508118
-1.828,0.512695
-1.85699,0.50354
-1.88446,0.502014
-1.91345,0.505066
-1.94397,0.505066
-1.96533,0.511169
-1.9928,0.498962
-2.01569,0.505066
-2.04163,0.508118
-2.06299,0.505066
-2.08893,0.512695
-2.10724,0.50354
-2.13013,0.505066
-2.14691,0.508118
-2.16675,0.50354
-2.18048,0.514221
-2.20032,0.50354
-2.21558,0.506592
-2.22778,0.506592
-2.23694,0.508118
-2.25372,0.514221
-2.26288,0.505066
-2.27509,0.505066
-2.28577,0.505066
-2.2934,0.506592
-2.30255,0.514221
-2.31476,0.502014
-2.32086,0.50354
-2.32849,0.506592
-2.3407,0.505066
-2.3468,0.509644
-2.35596,0.506592
-2.36359,0.505066
-2.36969,0.509644
-2.37732,0.506592
-2.38647,0.512695
-2.3941,0.50354
-2.40479,0.505066
-2.41394,0.50354
-2.42004,0.506592
-2.42767,0.511169
-2.43988,0.50354
-2.45056,0.50354
-2.45972,0.506592
-2.47192,0.506592
-2.48413,0.511169
-2.49634,0.50354
-2.51007,0.508118
-2.52533,0.506592
-2.53906,0.506592
-2.5528,0.511169
-2.56958,0.506592
-2.58789,0.505066
-2.60315,0.506592
-2.61993,0.508118
-2.63977,0.506592
-2.65808,0.502014
-2.67792,0.508118
-2.69318,0.508118
-2.70996,0.508118
-2.72675,0.505066
-2.73895,0.50354
-2.75574,0.506592
-2.76947,0.506592
-2.77252,0.508118
-2.7832,0.50354
-2.77863,0.508118
-2.76947,0.506592
-2.74963,0.508118
-2.72217,0.508118
-2.67639,0.50354
-2.61841,0.506592
-2.53754,0.508118
-2.44141,0.506592
-2.32391,0.508118
-2.19727,0.506592
-2.06299,0.502014
-1.92413,0.506592
-1.78223,0.506592
-1.64185,0.508118
-1.50757,0.502014
-1.37634,0.506592
-1.25275,0.506592
-1.13373,0.509644
-1.01929,0.509644
-0.912476,0.505066
-0.816345,0.505066
-0.726318,0.508118
-0.640869,0.508118
-0.564575,0.506592
-0.498962,0.502014
-0.434875,0.508118
-0.384521,0.508118
-0.338745,0.509644
-0.300598,0.508118
-0.267029,0.502014
-0.242615,0.506592
-0.219727,0.506592
-0.205994,0.508118
-0.195313,0.509644
-0.192261,0.50354
-0.193787,0.508118
-0.195313,0.511169
-0.204468,0.509644
-0.215149,0.508118
-0.230408,0.502014
-0.247192,0.506592
-0.268555,0.508118
-0.288391,0.509644
-0.309753,0.509644
-0.335693,0.500488
-0.361633,0.506592
-0.382996,0.508118
-0.40741,0.508118
-0.431824,0.509644
-0.457764,0.50354
-0.480652,0.506592
-0.505066,0.506592
-0.52948,0.509644
-0.556946,0.509644
-0.58136,0.498962
-0.6073,0.508118
-0.634766,0.508118
-0.665283,0.509644
-0.697327,0.512695
-0.723267,0.50354
-0.753784,0.508118
-0.784302,0.509644
-0.816345,0.511169
-0.842285,0.508118
-0.874329,0.50354
-0.90332,0.508118
-0.930786,0.509644
-0.956726,0.514221
-0.976563,0.509644
-0.997925,0.505066
-1.02081,0.508118
-1.03302,0.508118
-1.04523,0.512695
-1.05896,0.511169
-1.06506,0.505066
-1.07269,0.509644
-1.07422,0.509644
-1.07117,0.509644
-1.07269,0.508118
-1.07727,0.505066
-1.07117,0.506592
-1.06659,0.506592
-1.06201,0.511169
-1.05438,0.511169
-1.04828,0.506592
-1.04065,0.508118
-1.03302,0.509644
-1.02539,0.512695
-1.01776,0.511169
-1.01318,0.50354
-1.01013,0.508118
-1.00403,0.509644
-1.0025,0.512695
-0.994873,0.509644
-0.994873,0.508118
-0.991821,0.506592
-0.990295,0.509644
-0.994873,0.511169
-0.994873,0.511169
-1.00098,0.506592
-1.01318,0.509644
-1.02081,0.512695
-1.03302,0.512695
-1.04828,0.509644
-1.06354,0.509644
-1.08643,0.508118
-1.10474,0.511169
-1.12915,0.509644
-1.15051,0.511169
-1.17645,0.508118
-1.20544,0.509644
-1.22986,0.511169
-1.25732,0.512695
-1.28784,0.511169
-1.31683,0.506592
-1.3504,0.509644
-1.38092,0.512695
-1.41296,0.512695
-1.44653,0.512695
-1.47705,0.509644
-1.50604,0.512695
-1.54266,0.514221
-1.57471,0.512695
-1.60522,0.512695
-1.63879,0.512695
-1.67236,0.508118
-1.70288,0.514221
-1.73492,0.514221
-1.76544,0.511169
-1.79749,0.511169
-1.828,0.509644
-1.85547,0.511169
-1.88446,0.512695
-1.91345,0.514221
-1.94092,0.512695
-1.96991,0.511169
-1.9989,0.511169
-2.02484,0.512695
-2.04926,0.511169
-2.07825,0.511169
-2.10419,0.509644
-2.12555,0.509644
-2.14844,0.509644
-2.1698,0.514221
-2.19421,0.511169
-2.20947,0.509644
-2.23236,0.512695
-2.2522,0.512695
-2.27203,0.511169
-2.28882,0.512695
-2.30713,0.512695
-2.32391,0.512695
-2.3407,0.512695
-2.35901,0.514221
-2.37427,0.512695
-2.388,0.512695
-2.40173,0.512695
-2.41699,0.511169
-2.42767,0.512695
-2.43988,0.514221
-2.45056,0.512695
-2.46277,0.511169
-2.47192,0.512695
-2.47955,0.514221
-2.48871,0.518799
-2.49481,0.511169
-2.50549,0.511169
-2.51312,0.511169
-2.51923,0.511169
-2.5238,0.514221
-2.53296,0.512695
-2.54364,0.511169
-2.54822,0.514221
-2.5589,0.512695
-2.56958,0.512695
-2.57568,0.512695
-2.58484,0.512695
-2.59857,0.512695
-2.6062,0.514221
-2.61536,0.517273
-2.62604,0.511169
-2.63519,0.512695
-2.65045,0.512695
-2.66113,0.512695
-2.67639,0.517273
-2.69165,0.514221
-2.70538,0.514221
-2.72217,0.511169
-2.74353,0.512695
-2.75726,0.514221
-2.77863,0.512695
-2.79846,0.509644
-2.82135,0.511169
-2.84271,0.511169
-2.8656,0.518799
-2.88849,0.512695
-2.91443,0.511169
-2.93427,0.509644
-2.96021,0.517273
-2.98309,0.514221
-3.00598,0.509644
-3.02582,0.514221
-3.0426,0.512695
-3.05939,0.514221
-3.07007,0.518799
-3.0777,0.511169
-3.08075,0.511169
-3.07159,0.509644
-3.05481,0.512695
-3.02429,0.514221
-2.97699,0.511169
-2.91443,0.512695
-2.82898,0.512695
-2.72522,0.514221
-2.60468,0.518799
-2.46887,0.512695
-2.31628,0.512695
-2.16217,0.517273
-2.00958,0.512695
-1.84937,0.517273
-1.70135,0.512695
-1.55792,0.512695
-1.41907,0.511169
-1.28632,0.514221
-1.16425,0.517273
-1.04828,0.511169
-0.938416,0.514221
-0.843811,0.511169
-0.747681,0.512695
-0.665283,0.518799
-0.587463,0.512695
-0.517273,0.511169
-0.457764,0.512695
-0.404358,0.512695
-0.363159,0.514221
-0.318909,0.511169
-0.289917,0.514221
-0.265503,0.511169
-0.248718,0.512695
-0.233459,0.511169
-0.227356,0.514221
-0.222778,0.511169
-0.22583,0.511169
-0.236511,0.512695
-0.242615,0.514221
-0.254822,0.511169
-0.268555,0.512695
-0.286865,0.509644
-0.305176,0.514221
-0.331116,0.512695
-0.350952,0.511169
-0.372314,0.509644
-0.396729,0.512695
-0.418091,0.517273
-0.445557,0.512695
-0.469971,0.514221
-0.489807,0.511169
-0.511169,0.509644
-0.534058,0.511169
-0.556946,0.512695
-0.579834,0.512695
-0.602722,0.508118
-0.62561,0.514221
-0.653076,0.511169
-0.679016,0.517273
-0.704956,0.512695
-0.733948,0.509644
-0.761414,0.511169
-0.788879,0.512695
-0.817871,0.514221
-0.846863,0.512695
-0.875854,0.508118
-0.90332,0.514221
-0.927734,0.512695
-0.953674,0.517273
-0.976563,0.511169
-1.00098,0.514221
-1.01929,0.511169
-1.03912,0.514221
-1.05591,0.517273
-1.06506,0.509644
-1.07422,0.508118
-1.08337,0.511169
-1.08948,0.512695
-1.09406,0.514221
-1.09711,0.514221
-1.09558,0.508118
-1.09558,0.511169
-1.09406,0.512695
-1.091,0.514221
-1.08795,0.512695
-1.08337,0.511169
-1.0788,0.511169
-1.06659,0.512695
-1.06201,0.514221
-1.05591,0.509644
-1.05438,0.506592
-1.0498,0.512695
-1.04523,0.514221
-1.03912,0.514221
-1.0376,0.511169
-1.03607,0.509644
-1.0376,0.511169
-1.0376,0.511169
-1.04218,0.512695
-1.04828,0.511169
-1.05896,0.506592
-1.06812,0.512695
-1.0788,0.511169
-1.09406,0.512695
-1.10931,0.508118
-1.13068,0.511169
-1.14899,0.511169
-1.1734,0.512695
-1.19629,0.511169
-1.22528,0.508118
-1.24969,0.508118
-1.28174,0.511169
-1.31073,0.511169
-1.34277,0.512695
-1.37482,0.506592
-1.40533,0.509644
-1.4389,0.512695
-1.46942,0.512695
-1.50452,0.509644
-1.53656,0.508118
-1.57166,0.508118
-1.60828,0.511169
-1.64032,0.514221
-1.67389,0.512695
-1.70898,0.511169
-1.74255,0.508118
-1.77307,0.509644
-1.80511,0.511169
-1.83258,0.509644
-1.86157,0.508118
-1.89362,0.509644
-1.92261,0.509644
-1.94702,0.511169
-1.97601,0.509644
-1.9989,0.511169
-2.02637,0.508118
-2.04926,0.511169
-2.07214,0.512695
-2.10114,0.512695
-2.1225,0.514221
-2.14233,0.509644
-2.16675,0.517273
-2.18811,0.511169
-2.20795,0.508118
-2.22778,0.512695
-2.24915,0.511169
-2.2644,0.511169
-2.28271,0.512695
-2.30103,0.511169
-2.31476,0.511169
-2.33002,0.509644
-2.3468,0.509644
-2.36053,0.512695
-2.37427,0.509644
-2.38647,0.508118
-2.39563,0.506592
-2.40936,0.509644
-2.42157,0.511169
-2.4292,0.509644
-2.44293,0.511169
-2.45056,0.508118
-2.46124,0.512695
-2.47498,0.509644
-2.47803,0.509644
-2.48718,0.508118
-2.49634,0.506592
-2.50549,0.511169
-2.50702,0.509644
-2.51617,0.511169
-2.5238,0.512695
-2.53448,0.508118
-2.54059,0.509644
-2.54517,0.511169
-2.55432,0.508118
-2.56195,0.509644
-2.56805,0.506592
-2.57874,0.509644
-2.58636,0.508118
-2.59552,0.508118
-2.60468,0.514221
-2.61536,0.505066
-2.62756,0.511169
-2.6413,0.509644
-2.65198,0.509644
-2.67029,0.511169
-2.68402,0.508118
-2.70386,0.509644
-2.72064,0.509644
-2.73743,0.508118
-2.75421,0.511169
-2.7771,0.505066
-2.79694,0.511169
-2.8183,0.508118
-2.83661,0.511169
-2.8595,0.511169
-2.88544,0.508118
-2.90375,0.514221
-2.92969,0.511169
-2.94952,0.506592
-2.97546,0.509644
-2.9953,0.50354
-3.01514,0.509644
-3.03192,0.509644
-3.04413,0.511169
-3.05634,0.512695
-3.05939,0.505066
-3.05939,0.509644
-3.04871,0.508118
-3.02429,0.508118
-2.99072,0.512695
-2.94189,0.505066
-2.87323,0.511169
-2.78473,0.508118
-2.67487,0.508118
-2.54669,0.511169
-2.41241,0.506592
-2.26135,0.511169
-2.11029,0.511169
-1.9577,0.509644
-1.80511,0.509644
-1.66168,0.50354
-1.51672,0.508118
-1.38702,0.506592
-1.25885,0.508118
-1.14136,0.511169
-1.02692,0.505066
-0.926208,0.509644
-0.830078,0.511169
-0.740051,0.506592
-0.657654,0.509644
-0.590515,0.505066
-0.521851,0.508118
-0.465393,0.509644
-0.418091,0.508118
-0.372314,0.508118
-0.340271,0.502014
-0.311279,0.509644
-0.286865,0.508118
-0.273132,0.508118
-0.262451,0.508118
-0.256348,0.50354
-0.256348,0.509644
-0.259399,0.509644
-0.267029,0.508118
-0.276184,0.509644
-0.294495,0.50354
-0.309753,0.511169
-0.328064,0.506592
-0.349426,0.506592
-0.370789,0.509644
-0.393677,0.502014
-0.418091,0.509644
-0.444031,0.508118
-0.468445,0.506592
-0.491333,0.508118
-0.515747,0.50354
-0.537109,0.509644
-0.561523,0.506592
-0.585938,0.505066
-0.613403,0.506592
-0.636292,0.502014
-0.665283,0.508118
-0.688171,0.505066
-0.715637,0.505066
-0.746155,0.506592
-0.778198,0.497437
-0.80719,0.509644
-0.840759,0.506592
-0.869751,0.505066
-0.90332,0.508118
-0.938416,0.502014
-0.964355,0.505066
-0.997925,0.505066
-1.02234,0.506592
-1.04828,0.508118
-1.06812,0.500488
-1.08948,0.506592
-1.10779,0.505066
-1.12,0.508118
-1.13373,0.506592
-1.14594,0.498962
-1.15051,0.511169
-1.15356,0.506592
-1.15509,0.508118
-1.15509,0.509644
-1.15204,0.498962
-1.14594,0.505066
-1.14288,0.509644
-1.13373,0.506592
-1.12762,0.509644
-1.11694,0.498962
-1.10931,0.509644
-1.10016,0.506592
-1.08948,0.506592
-1.08337,0.506592
-1.07117,0.497437
-1.06354,0.508118
-1.05591,0.505066
-1.0498,0.508118
-1.04523,0.508118
-1.03912,0.500488
-1.03912,0.508118
-1.03455,0.505066
-1.03455,0.506592
-1.03912,0.509644
-1.04523,0.500488
-1.0498,0.506592
-1.05438,0.505066
-1.06659,0.508118
-1.08185,0.509644
-1.09863,0.498962
-1.11694,0.509644
-1.13678,0.505066
-1.15967,0.506592
-1.18408,0.509644
-1.21307,0.500488
-1.23749,0.506592
-1.27106,0.505066
-1.29852,0.509644
-1.33057,0.506592
-1.36719,0.500488
-1.39618,0.50354
-1.42975,0.506592
-1.46637,0.505066
-1.50146,0.508118
-1.53503,0.500488
-1.57318,0.506592
-1.60675,0.506592
-1.64642,0.508118
-1.68304,0.506592
-1.71814,0.500488
-1.75171,0.508118
-1.78833,0.508118
-1.81885,0.506592
-1.85699,0.508118
-1.89056,0.500488
-1.92108,0.506592
-1.95465,0.509644
-1.98517,0.502014
-2.01263,0.506592
-2.0401,0.50354
-2.06757,0.505066
-2.09351,0.509644
-2.11945,0.505066
-2.14233,0.508118
-2.1698,0.500488
-2.19116,0.505066
-2.21558,0.509644
-2.23389,0.505066
-2.2522,0.50354
-2.27356,0.497437
-2.29492,0.505066
-2.31323,0.511169
-2.33154,0.506592
-2.35138,0.505066
-2.36969,0.500488
-2.38953,0.50354
-2.40784,0.509644
-2.42157,0.508118
-2.43988,0.506592
-2.45819,0.502014
-2.47498,0.506592
-2.48718,0.512695
-2.50244,0.505066
-2.51465,0.505066
-2.5238,0.498962
-2.54059,0.50354
-2.54822,0.512695
-2.56348,0.50354
-2.57416,0.505066
-2.58179,0.497437
-2.59094,0.50354
-2.60162,0.514221
-2.61078,0.505066
-2.61993,0.506592
-2.63214,0.498962
-2.63672,0.506592
-2.64435,0.511169
-2.65198,0.508118
-2.66113,0.50354
-2.66876,0.500488
-2.67487,0.50354
-2.68402,0.517273
-2.69623,0.505066
-2.70386,0.50354
-2.71454,0.498962
-2.72675,0.506592
-2.73743,0.511169
-2.74506,0.50354
-2.75879,0.50354
-2.76947,0.500488
-2.78625,0.505066
-2.79846,0.514221
-2.81677,0.508118
-2.82745,0.502014
-2.84271,0.500488
-2.85797,0.502014
-2.8717,0.512695
-2.89154,0.50354
-2.9129,0.502014
-2.92664,0.498962
-2.95258,0.50354
-2.96936,0.511169
-2.99072,0.506592
-3.01514,0.502014
-3.03802,0.498962
-3.05786,0.502014
-3.0838,0.512695
-3.10974,0.50354
-3.13416,0.50354
-3.15399,0.500488
-3.17841,0.50354
-3.19824,0.509644
-3.21655,0.506592
-3.23639,0.50354
-3.24554,0.498962
-3.25165,0.505066
-3.25012,0.508118
-3.23944,0.50354
-3.21655,0.50354
-3.17993,0.497437
-3.12805,0.50354
-3.05786,0.50354
-2.96783,0.505066
-2.85797,0.502014
-2.72522,0.497437
-2.58026,0.502014
-2.4231,0.505066
-2.26288,0.505066
-2.10266,0.502014
-1.94244,0.498962
-1.78986,0.500488
-1.63879,0.50354
-1.49536,0.50354
-1.36414,0.500488
-1.23901,0.498962
-1.12,0.498962
-1.01318,0.500488
-0.907898,0.50354
-0.817871,0.500488
-0.732422,0.495911
-0.656128,0.500488
-0.587463,0.502014
-0.526428,0.50354
-0.4776,0.502014
-0.43335,0.495911
-0.395203,0.502014
-0.363159,0.500488
-0.340271,0.500488
-0.323486,0.500488
-0.308228,0.495911
-0.30365,0.498962
-0.300598,0.500488
-0.30365,0.498962
-0.306702,0.497437
-0.318909,0.498962
-0.332642,0.50354
-0.346375,0.500488
-0.366211,0.502014
-0.382996,0.497437
-0.402832,0.495911
-0.42572,0.500488
-0.440979,0.495911
-0.466919,0.500488
-0.488281,0.497437
-0.509644,0.495911
-0.531006,0.495911
-0.55542,0.497437
-0.575256,0.498962
-0.595093,0.498962
-0.616455,0.494385
-0.639343,0.500488
-0.65918,0.495911
-0.680542,0.498962
-0.704956,0.497437
-0.72937,0.495911
-0.753784,0.500488
-0.784302,0.494385
-0.811768,0.500488
-0.840759,0.498962
-0.866699,0.497437
-0.895691,0.497437
-0.923157,0.498962
-0.952148,0.500488
-0.976563,0.497437
-1.0025,0.495911
-1.02692,0.497437
-1.04675,0.492859
-1.06659,0.498962
-1.08337,0.497437
-1.10168,0.497437
-1.11542,0.497437
-1.12457,0.492859
-1.13983,0.497437
-1.14594,0.495911
-1.14746,0.497437
-1.14899,0.497437
-1.14899,0.488281
-1.14746,0.500488
-1.14594,0.492859
-1.14136,0.494385
-1.13678,0.498962
-1.13068,0.491333
-1.12457,0.498962
-1.11847,0.495911
-1.11084,0.489807
-1.10168,0.498962
-1.09863,0.485229
-1.08948,0.498962
-1.08795,0.495911
-1.08185,0.491333
-1.07727,0.497437
-1.07269,0.491333
-1.07117,0.498962
-1.07269,0.495911
-1.0788,0.495911
-1.08185,0.497437
-1.08643,0.488281
-1.08948,0.495911
-1.10321,0.494385
-1.11847,0.494385
-1.1322,0.500488
-1.14746,0.485229
-1.1673,0.500488
-1.18866,0.494385
-1.21155,0.492859
-1.23444,0.497437
-1.25885,0.485229
-1.28632,0.495911
-1.31378,0.494385
-1.34125,0.489807
-1.37329,0.494385
-1.40228,0.483704
-1.43127,0.498962
-1.46484,0.494385
-1.49689,0.492859
-1.53198,0.494385
-1.56555,0.488281
-1.59912,0.497437
-1.63269,0.492859
-1.66626,0.491333
-1.70135,0.494385
-1.7334,0.483704
-1.76544,0.497437
-1.79749,0.494385
-1.83258,0.491333
-1.86005,0.495911
-1.89209,0.482178
-1.92108,0.494385
-1.95465,0.494385
-1.98517,0.492859
-2.01111,0.494385
-2.0401,0.482178
-2.06604,0.494385
-2.09198,0.492859
-2.11945,0.491333
-2.14081,0.497437
-2.16522,0.483704
-2.18658,0.495911
-2.20947,0.491333
-2.22931,0.492859
-2.24915,0.495911
-2.26746,0.488281
-2.28729,0.494385
-2.30408,0.492859
-2.32086,0.494385
-2.33459,0.497437
-2.34985,0.483704
-2.36969,0.495911
-2.38495,0.494385
-2.39868,0.492859
-2.41394,0.495911
-2.42462,0.485229
-2.44293,0.495911
-2.45667,0.491333
-2.4704,0.494385
-2.47955,0.492859
-2.49481,0.482178
-2.50549,0.495911
-2.52075,0.494385
-2.53448,0.492859
-2.54364,0.494385
-2.55585,0.488281
-2.56805,0.494385
-2.57874,0.492859
-2.58789,0.491333
-2.59857,0.495911
-2.60468,0.485229
-2.61536,0.498962
-2.62146,0.488281
-2.63062,0.492859
-2.63672,0.494385
-2.64435,0.485229
-2.65198,0.495911
-2.65961,0.492859
-2.66571,0.494385
-2.67029,0.497437
-2.67639,0.485229
-2.68402,0.495911
-2.69012,0.489807
-2.69928,0.492859
-2.70538,0.492859
-2.71149,0.485229
-2.72675,0.491333
-2.7359,0.491333
-2.74353,0.492859
-2.75574,0.492859
-2.76337,0.488281
-2.77863,0.492859
-2.79236,0.492859
-2.80304,0.491333
-2.82135,0.494385
-2.83661,0.488281
-2.85339,0.495911
-2.87018,0.492859
-2.89001,0.491333
-2.91138,0.494385
-2.93121,0.488281
-2.95105,0.494385
-2.97089,0.491333
-2.9892,0.491333
-3.01514,0.491333
-3.03345,0.485229
-3.05328,0.495911
-3.07617,0.489807
-3.09601,0.492859
-3.11279,0.492859
-3.12347,0.485229
-3.13416,0.491333
-3.14026,0.489807
-3.14484,0.494385
-3.13568,0.492859
-3.11737,0.488281
-3.08838,0.494385
-3.0426,0.491333
-2.98462,0.489807
-2.90527,0.489807
-2.80609,0.491333
-2.68555,0.494385
-2.54974,0.489807
-2.40631,0.489807
-2.25067,0.489807
-2.09656,0.491333
-1.94244,0.491333
-1.79138,0.489807
-1.64795,0.489807
-1.50604,0.491333
-1.37329,0.489807
-1.24969,0.494385
-1.12915,0.489807
-1.01624,0.489807
-0.918579,0.489807
-0.827026,0.489807
-0.738525,0.491333
-0.660706,0.488281
-0.588989,0.488281
-0.526428,0.492859
-0.466919,0.492859
-0.419617,0.497437
-0.375366,0.491333
-0.338745,0.485229
-0.312805,0.491333
-0.289917,0.494385
-0.274658,0.489807
-0.260925,0.491333
-0.256348,0.485229
-0.254822,0.489807
-0.259399,0.494385
-0.267029,0.492859
-0.280762,0.492859
-0.294495,0.488281
-0.308228,0.489807
-0.32959,0.491333
-0.349426,0.491333
-0.37384,0.489807
-0.396729,0.488281
-0.424194,0.489807
-0.448608,0.492859
-0.469971,0.491333
-0.495911,0.491333
-0.518799,0.485229
-0.547791,0.491333
-0.567627,0.492859
-0.595093,0.494385
-0.624084,0.488281
-0.650024,0.485229
-0.67749,0.491333
-0.70343,0.495911
-0.733948,0.491333
-0.764465,0.485229
-0.798035,0.491333
-0.827026,0.488281
-0.85907,0.489807
-0.892639,0.494385
-0.924683,0.485229
-0.9552,0.491333
-0.982666,0.488281
-1.01318,0.494385
-1.0376,0.492859
-1.06049,0.488281
-1.0788,0.492859
-1.09711,0.488281
-1.11084,0.491333
-1.12,0.492859
-1.13373,0.488281
-1.13678,0.492859
-1.14288,0.485229
-1.14441,0.492859
-1.14441,0.492859
-1.14288,0.483704
-1.13678,0.489807
-1.13373,0.489807
-1.13068,0.497437
-1.12305,0.491333
-1.11542,0.488281
-1.10779,0.492859
-1.09711,0.483704
-1.091,0.495911
-1.08643,0.491333
-1.07727,0.489807
-1.07117,0.489807
-1.06812,0.489807
-1.05896,0.492859
-1.05591,0.491333
-1.05133,0.489807
-1.05133,0.489807
-1.05133,0.488281
-1.05438,0.494385
-1.06049,0.491333
-1.06659,0.488281
-1.07269,0.488281
-1.0849,0.488281
-1.09406,0.495911
-1.11084,0.492859
-1.12457,0.489807
-1.14594,0.494385
-1.1673,0.489807
-1.19171,0.495911
-1.21307,0.495911
-1.24359,0.488281
-1.26801,0.491333
-1.29852,0.488281
-1.32904,0.491333
-1.36108,0.494385
-1.38702,0.488281
-1.41907,0.489807
-1.45569,0.491333
-1.48468,0.494385
-1.52435,0.491333
-1.55792,0.488281
-1.59302,0.492859
-1.62506,0.491333
-1.66016,0.492859
-1.69678,0.491333
-1.73035,0.491333
-1.76392,0.491333
-1.79596,0.489807
-1.83105,0.497437
-1.86005,0.492859
-1.90125,0.488281
-1.93481,0.491333
-1.96228,0.485229
-1.99432,0.495911
-2.02789,0.491333
-2.05688,0.489807
-2.08588,0.491333
-2.11334,0.489807
-2.14081,0.494385
-2.16675,0.492859
-2.19727,0.489807
-2.2171,0.489807
-2.23846,0.491333
-2.26593,0.495911
-2.28729,0.492859
-2.31018,0.491333
-2.33307,0.491333
-2.35748,0.485229
-2.37579,0.498962
-2.39563,0.494385
-2.41547,0.488281
-2.43073,0.488281
-2.44904,0.488281
-2.46735,0.494385
-2.4826,0.492859
-2.49481,0.485229
-2.51617,0.488281
-2.52838,0.485229
-2.54517,0.492859
-2.5589,0.492859
-2.57263,0.488281
-2.58484,0.485229
-2.60162,0.485229
-2.61078,0.494385
-2.62604,0.494385
-2.63672,0.485229
-2.65045,0.488281
-2.66113,0.488281
-2.67029,0.494385
-2.68097,0.492859
-2.69623,0.488281
-2.70691,0.483704
-2.71759,0.483704
-2.72675,0.494385
-2.73895,0.491333
-2.74658,0.488281
-2.76184,0.483704
-2.76947,0.483704
-2.78473,0.492859
-2.79388,0.494385
-2.80457,0.489807
-2.8183,0.489807
-2.82593,0.483704
-2.83661,0.497437
-2.84882,0.494385
-2.86255,0.488281
-2.87323,0.488281
-2.89001,0.491333
-2.90222,0.494385
-2.91443,0.494385
-2.92969,0.485229
-2.94647,0.488281
-2.96021,0.488281
-2.97699,0.494385
-2.99072,0.492859
-3.00903,0.485229
-3.02887,0.489807
-3.04565,0.488281
-3.06549,0.491333
-3.08685,0.492859
-3.10669,0.488281
-3.12653,0.485229
-3.14941,0.485229
-3.1723,0.494385
-3.19061,0.491333
-3.21503,0.491333
-3.24097,0.485229
-3.26233,0.485229
-3.28217,0.491333
-3.30658,0.491333
-3.32794,0.488281
-3.34778,0.491333
-3.36304,0.488281
-3.37524,0.492859
-3.38745,0.491333
-3.38593,0.491333
-3.38135,0.488281
-3.36609,0.485229
-3.33862,0.492859
-3.29742,0.489807
-3.23792,0.485229
-3.15704,0.485229
-3.05786,0.489807
-2.94495,0.492859
-2.80914,0.489807
-2.6535,0.489807
-2.49023,0.483704
-2.32391,0.488281
-2.15302,0.489807
-1.98669,0.491333
-1.82648,0.488281
-1.67694,0.485229
-1.52893,0.485229
-1.39465,0.489807
-1.26343,0.491333
-1.14594,0.485229
-1.03455,0.488281
-0.932312,0.483704
-0.837708,0.492859
-0.753784,0.491333
-0.679016,0.488281
-0.611877,0.485229
-0.549316,0.488281
-0.497437,0.491333
-0.45166,0.491333
-0.410461,0.488281
-0.382996,0.485229
-0.357056,0.483704
-0.334167,0.491333
-0.328064,0.489807
-0.315857,0.485229
-0.318909,0.488281
-0.315857,0.489807
-0.325012,0.488281
-0.331116,0.488281
-0.341797,0.485229
-0.358582,0.483704
-0.375366,0.488281
-0.393677,0.488281
-0.413513,0.491333
-0.431824,0.483704
-0.454712,0.488281
-0.476074,0.485229
-0.495911,0.489807
-0.520325,0.491333
-0.541687,0.488281
-0.563049,0.485229
-0.585938,0.485229
-0.605774,0.489807
-0.628662,0.489807
-0.653076,0.485229
-0.675964,0.485229
-0.70343,0.488281
-0.724792,0.489807
-0.753784,0.489807
-0.78125,0.488281
-0.808716,0.485229
-0.840759,0.483704
-0.869751,0.488281
-0.901794,0.492859
-0.92926,0.488281
-0.96283,0.485229
-0.98877,0.485229
-1.01776,0.483704
-1.04218,0.489807
-1.06812,0.485229
-1.08795,0.480652
-1.10321,0.485229
-1.12152,0.489807
-1.13525,0.489807
-1.14899,0.491333
-1.15662,0.488281
-1.16272,0.483704
-1.16577,0.489807
-1.16577,0.488281
-1.17188,0.485229
-1.16882,0.485229
-1.16425,0.483704
-1.15967,0.491333
-1.15662,0.491333
-1.15356,0.483704
-1.14746,0.485229
-1.13525,0.483704
-1.12915,0.489807
-1.12152,0.492859
-1.11694,0.491333
-1.11084,0.482178
-1.10779,0.488281
-1.10321,0.485229
-1.09711,0.489807
-1.09711,0.483704
-1.09558,0.483704
-1.09711,0.485229
-1.09711,0.485229
-1.10321,0.492859
-1.11237,0.485229
-1.12305,0.480652
-1.12915,0.483704
-1.14288,0.488281
-1.16272,0.488281
-1.18103,0.483704
-1.20087,0.482178
-1.22223,0.480652
-1.24969,0.489807
-1.27411,0.488281
-1.30157,0.485229
-1.33362,0.4776
-1.36261,0.483704
-1.39465,0.488281
-1.4267,0.489807
-1.45721,0.482178
-1.49384,0.482178
-1.53046,0.483704
-1.56403,0.485229
-1.5976,0.489807
-1.63574,0.483704
-1.66779,0.482178
-1.70288,0.483704
-1.73645,0.485229
-1.7746,0.489807
-1.80664,0.482178
-1.84326,0.4776
-1.87988,0.482178
-1.91498,0.488281
-1.94855,0.489807
-1.98059,0.482178
-2.01263,0.476074
-2.04926,0.480652
-2.07672,0.482178
-2.10876,0.491333
-2.13928,0.483704
-2.16827,0.482178
-2.19574,0.482178
-2.22473,0.485229
-2.2522,0.485229
-2.27966,0.483704
-2.30103,0.4776
-2.32544,0.485229
-2.35138,0.483704
-2.37274,0.489807
-2.39258,0.480652
-2.41699,0.483704
-2.43683,0.482178
-2.45514,0.483704
-2.4765,0.489807
-2.49481,0.483704
-2.51465,0.4776
-2.52838,0.485229
-2.54822,0.483704
-2.565,0.489807
-2.57874,0.483704
-2.59094,0.480652
-2.60468,0.480652
-2.61688,0.485229
-2.63062,0.488281
-2.64587,0.482178
-2.6535,0.479126
-2.66418,0.480652
-2.67334,0.483704
-2.68402,0.488281
-2.69318,0.483704
-2.70081,0.480652
-2.70996,0.482178
-2.71606,0.483704
-2.72827,0.485229
-2.73438,0.480652
-2.74048,0.476074
-2.74963,0.483704
-2.74963,0.485229
-2.76184,0.488281
-2.76947,0.480652
-2.77557,0.480652
-2.78473,0.485229
-2.79083,0.483704
-2.79694,0.488281
-2.80609,0.482178
-2.81677,0.480652
-2.8244,0.485229
-2.83356,0.482178
-2.84271,0.488281
-2.85339,0.482178
-2.86865,0.476074
-2.88086,0.485229
-2.89154,0.485229
-2.90527,0.483704
-2.92206,0.482178
-2.93732,0.4776
-2.95868,0.485229
-2.96936,0.485229
-2.99072,0.482178
-3.01056,0.480652
-3.0304,0.479126
-3.05328,0.489807
-3.07159,0.483704
-3.09143,0.485229
-3.11737,0.479126
-3.13873,0.476074
-3.15857,0.491333
-3.18451,0.482178
-3.20282,0.488281
-3.22266,0.479126
-3.24249,0.4776
-3.25928,0.488281
-3.27454,0.485229
-3.28217,0.485229
-3.28369,0.479126
-3.28369,0.4776
-3.27148,0.485229
-3.25012,0.483704
-3.2135,0.483704
-3.15552,0.479126
-3.0899,0.476074
-3.00598,0.483704
-2.89764,0.482178
-2.771,0.488281
-2.62756,0.4776
-2.4704,0.479126
-2.30713,0.485229
-2.14539,0.485229
-1.98212,0.482178
-1.828,0.4776
-1.67999,0.480652
-1.53656,0.489807
-1.39923,0.482178
-1.27106,0.485229
-1.15509,0.482178
-1.04218,0.4776
-0.939941,0.483704
-0.845337,0.485229
-0.758362,0.482178
-0.682068,0.480652
-0.611877,0.4776
-0.547791,0.483704
-0.492859,0.482178
-0.448608,0.482178
-0.410461,0.4776
-0.38147,0.4776
-0.352478,0.485229
-0.331116,0.485229
-0.32196,0.483704
-0.312805,0.4776
-0.312805,0.479126
-0.312805,0.480652
-0.320435,0.482178
-0.331116,0.485229
-0.343323,0.476074
-0.361633,0.474548
-0.375366,0.480652
-0.39978,0.483704
-0.418091,0.488281
-0.444031,0.4776
-0.462341,0.476074
-0.488281,0.480652
-0.512695,0.480652
-0.532532,0.483704
-0.556946,0.479126
-0.582886,0.4776
-0.605774,0.480652
-0.627136,0.483704
-0.648499,0.485229
-0.674438,0.4776
-0.700378,0.476074
-0.724792,0.480652
-0.749207,0.482178
-0.778198,0.483704
-0.808716,0.4776
-0.836182,0.476074
-0.869751,0.480652
-0.898743,0.483704
-0.92926,0.485229
-0.959778,0.480652
-0.990295,0.476074
-1.01929,0.4776
-1.04675,0.488281
-1.07117,0.480652
-1.09863,0.480652
-1.11847,0.4776
-1.14136,0.479126
-1.15662,0.482178
-1.17798,0.485229
-1.18713,0.480652
-1.19781,0.476074
-1.2085,0.480652
-1.2146,0.480652
-1.2146,0.482178
-1.21307,0.480652
-1.21918,0.476074
-1.2146,0.474548
-1.21155,0.480652
-1.20697,0.480652
-1.20392,0.479126
-1.19781,0.476074
-1.19019,0.474548
-1.18561,0.480652
-1.18103,0.482178
-1.1734,0.480652
-1.1673,0.476074
-1.15814,0.473022
-1.15509,0.485229
-1.15204,0.479126
-1.14746,0.479126
-1.14441,0.479126
-1.14441,0.476074
-1.14594,0.482178
-1.15204,0.483704
-1.15814,0.479126
-1.16577,0.476074
-1.1795,0.474548
-1.19019,0.480652
-1.21002,0.483704
-1.22528,0.480652
-1.24664,0.474548
-1.26648,0.474548
-1.29395,0.4776
-1.31989,0.479126
-1.34583,0.480652
-1.37634,0.4776
-1.40533,0.471497
-1.4389,0.480652
-1.474,0.480652
-1.50909,0.4776
-1.54419,0.473022
-1.57623,0.473022
-1.61591,0.482178
-1.65253,0.482178
-1.6861,0.479126
-1.72882,0.474548
-1.76239,0.474548
-1.80054,0.479126
-1.84021,0.479126
-1.87531,0.480652
-1.91193,0.4776
-1.94855,0.476074
-1.98364,0.479126
-2.01874,0.479126
-2.05078,0.479126
-2.09045,0.473022
-2.12097,0.471497
-2.15302,0.479126
-2.18658,0.482178
-2.21863,0.4776
-2.25067,0.473022
-2.27814,0.474548
-2.30408,0.482178
-2.33459,0.483704
-2.36206,0.480652
-2.388,0.474548
-2.41394,0.473022
-2.4353,0.482178
-2.45819,0.483704
-2.4826,0.480652
-2.50244,0.474548
-2.52228,0.476074
-2.54364,0.479126
-2.56195,0.480652
-2.58026,0.480652
-2.60162,0.476074
-2.61688,0.4776
-2.63519,0.480652
-2.6535,0.479126
-2.66571,0.4776
-2.6825,0.473022
-2.69775,0.473022
-2.71454,0.482178
-2.72827,0.479126
-2.74353,0.4776
-2.76031,0.474548
-2.76947,0.476074
-2.78473,0.480652
-2.79541,0.480652
-2.81219,0.479126
-2.82593,0.473022
-2.83813,0.4776
-2.85187,0.479126
-2.86407,0.480652
-2.87323,0.479126
-2.88696,0.476074
-2.89459,0.476074
-2.9068,0.480652
-2.92053,0.480652
-2.93121,0.480652
-2.94342,0.474548
-2.94952,0.474548
-2.96326,0.480652
-2.97089,0.480652
-2.98157,0.479126
-2.9892,0.476074
-3.0014,0.476074
-3.01514,0.482178
-3.02887,0.479126
-3.03955,0.4776
-3.05023,0.473022
-3.06091,0.476074
-3.07465,0.479126
-3.08838,0.480652
-3.10364,0.4776
-3.11584,0.4776
-3.1311,0.476074
-3.14331,0.482178
-3.15857,0.480652
-3.17535,0.479126
-3.18909,0.474548
-3.20587,0.4776
-3.2196,0.479126
-3.24097,0.480652
-3.25775,0.4776
-3.27759,0.4776
-3.2959,0.4776
-3.31421,0.480652
-3.33405,0.480652
-3.35388,0.479126
-3.37372,0.480652
-3.39661,0.4776
-3.41797,0.480652
-3.43933,0.480652
-3.46069,0.4776
-3.479,0.474548
-3.49579,0.476074
-3.51257,0.479126
-3.52325,0.482178
-3.53241,0.4776
-3.53546,0.4776
-3.52783,0.476074
-3.51563,0.482178
-3.48816,0.479126
-3.44086,0.4776
-3.3844,0.4776
-3.30353,0.4776
-3.20892,0.480652
-3.09601,0.480652
-2.96326,0.480652
-2.81525,0.4776
-2.64587,0.479126
-2.47803,0.480652
-2.30255,0.480652
-2.13013,0.476074
-1.96228,0.473022
-1.80511,0.4776
-1.65253,0.480652
-1.50909,0.482178
-1.37482,0.479126
-1.25122,0.473022
-1.1322,0.4776
-1.02692,0.483704
-0.92926,0.479126
-0.839233,0.476074
-0.765991,0.474548
-0.691223,0.476074
-0.627136,0.479126
-0.575256,0.4776
-0.52948,0.474548
-0.489807,0.473022
-0.45929,0.4776
-0.434875,0.479126
-0.419617,0.479126
-0.404358,0.476074
-0.39978,0.473022
-0.395203,0.480652
-0.402832,0.479126
-0.408936,0.480652
-0.421143,0.4776
-0.436401,0.474548
-0.453186,0.482178
-0.4776,0.480652
-0.500488,0.479126
-0.523376,0.4776
-0.550842,0.476074
-0.579834,0.480652
-0.602722,0.479126
-0.634766,0.4776
-0.662231,0.474548
-0.689697,0.473022
-0.718689,0.4776
-0.749207,0.480652
-0.776672,0.480652
-0.804138,0.476074
-0.831604,0.474548
-0.863647,0.480652
-0.889587,0.479126
-0.921631,0.4776
-0.956726,0.474548
-0.993347,0.4776
-1.02386,0.479126
-1.06201,0.479126
-1.09711,0.4776
-1.12762,0.476074
-1.16272,0.476074
-1.19324,0.483704
-1.22528,0.482178
-1.25427,0.480652
-1.28021,0.4776
-1.3031,0.473022
-1.32446,0.480652
-1.33972,0.479126
-1.35345,0.479126
-1.36566,0.4776
-1.37482,0.471497
-1.37939,0.483704
-1.38397,0.479126
-1.3855,0.480652
-1.38245,0.4776
-1.38245,0.476074
-1.37787,0.480652
-1.37024,0.4776
-1.36261,0.479126
-1.35193,0.4776
-1.34125,0.476074
-1.32904,0.483704
-1.31836,0.4776
-1.30463,0.479126
-1.29395,0.474548
-1.28326,0.473022
-1.27258,0.479126
-1.26343,0.479126
-1.25275,0.4776
-1.24969,0.4776
-1.24512,0.474548
-1.24207,0.482178
-1.24054,0.479126
-1.24359,0.479126
-1.24664,0.473022
-1.25122,0.4776
-1.25885,0.483704
-1.27258,0.480652
-1.28326,0.4776
-1.30157,0.4776
-1.31378,0.473022
-1.33667,0.482178
-1.35651,0.4776
-1.38092,0.479126
-1.40839,0.473022
-1.43585,0.4776
-1.46637,0.482178
-1.49994,0.479126
-1.53503,0.480652
-1.56708,0.4776
-1.60065,0.479126
-1.63727,0.480652
-1.67694,0.482178
-1.71356,0.479126
-1.75323,0.4776
-1.78833,0.474548
-1.82648,0.482178
-1.86768,0.480652
-1.9043,0.4776
-1.94092,0.4776
-1.97906,0.4776
-2.01416,0.482178
-2.04926,0.479126
-2.08588,0.4776
-2.11639,0.4776
-2.14844,0.479126
-2.18353,0.483704
-2.2171,0.4776
-2.24609,0.480652
-2.27509,0.4776
-2.30408,0.476074
-2.33154,0.480652
-2.35748,0.479126
-2.38342,0.476074
-2.41394,0.479126
-2.43835,0.476074
-2.45972,0.483704
-2.48413,0.4776
-2.50549,0.482178
-2.52533,0.4776
-2.54822,0.479126
-2.56653,0.483704
-2.58484,0.4776
-2.6062,0.480652
-2.62146,0.4776
-2.63672,0.476074
-2.65808,0.482178
-2.66876,0.479126
-2.68402,0.479126
-2.69928,0.479126
-2.71454,0.474548
-2.72522,0.485229
-2.73743,0.479126
-2.74811,0.479126
-2.76184,0.4776
-2.771,0.476074
-2.7832,0.482178
-2.79388,0.480652
-2.80457,0.479126
-2.81525,0.474548
-2.82135,0.471497
-2.83508,0.483704
-2.83966,0.4776
-2.84729,0.480652
-2.85797,0.479126
-2.86407,0.476074
-2.8717,0.485229
-2.87933,0.4776
-2.88391,0.480652
-2.89154,0.479126
-2.90222,0.471497
-2.9068,0.482178
-2.91748,0.476074
-2.92053,0.480652
-2.93121,0.479126
-2.93884,0.474548
-2.94952,0.483704
-2.95563,0.480652
-2.96631,0.480652
-2.98004,0.479126
-2.99072,0.471497
-3.0014,0.482178
-3.01514,0.4776
-3.0304,0.479126
-3.04413,0.4776
-3.06091,0.474548
-3.07312,0.485229
-3.08838,0.480652
-3.10974,0.479126
-3.12042,0.479126
-3.14331,0.476074
-3.15704,0.483704
-3.17688,0.479126
-3.19672,0.480652
-3.21503,0.4776
-3.23944,0.4776
-3.25928,0.485229
-3.27911,0.4776
-3.302,0.480652
-3.32336,0.4776
-3.34015,0.4776
-3.35693,0.482178
-3.37219,0.4776
-3.3844,0.4776
-3.3905,0.479126
-3.39355,0.474548
-3.38745,0.482178
-3.36914,0.479126
-3.34015,0.482178
-3.302,0.4776
-3.24249,0.474548
-3.16467,0.483704
-3.07007,0.4776
-2.95715,0.479126
-2.82593,0.4776
-2.67487,0.476074
-2.51465,0.482178
-2.34985,0.480652
-2.18048,0.480652
-2.01111,0.479126
-1.85547,0.476074
-1.69678,0.482178
-1.55182,0.479126
-1.41296,0.480652
-1.28326,0.480652
-1.16119,0.4776
-1.0498,0.479126
-0.946045,0.4776
-0.852966,0.480652
-0.772095,0.479126
-0.688171,0.4776
-0.622559,0.482178
-0.563049,0.4776
-0.509644,0.479126
-0.466919,0.479126
-0.428772,0.476074
-0.401306,0.480652
-0.378418,0.4776
-0.364685,0.482178
-0.352478,0.479126
-0.344849,0.473022
-0.344849,0.479126
-0.349426,0.4776
-0.361633,0.480652
-0.372314,0.479126
-0.390625,0.476074
-0.413513,0.480652
-0.43335,0.479126
-0.457764,0.479126
-0.486755,0.479126
-0.509644,0.476074
-0.540161,0.480652
-0.559998,0.479126
-0.588989,0.479126
-0.611877,0.4776
-0.642395,0.474548
-0.665283,0.480652
-0.691223,0.479126
-0.715637,0.480652
-0.746155,0.4776
-0.772095,0.476074
-0.802612,0.479126
-0.828552,0.4776
-0.85907,0.480652
-0.891113,0.479126
-0.923157,0.4776
-0.950623,0.476074
-0.985718,0.4776
-1.02234,0.480652
-1.05591,0.4776
-1.091,0.479126
-1.12457,0.4776
-1.15509,0.4776
-1.18256,0.4776
-1.21002,0.480652
-1.23749,0.4776
-1.25885,0.4776
-1.27411,0.476074
-1.29089,0.479126
-1.30768,0.480652
-1.31531,0.476074
-1.32141,0.4776
-1.32599,0.479126
-1.33057,0.480652
-1.33209,0.4776
-1.32904,0.474548
-1.33057,0.474548
-1.32141,0.4776
-1.31683,0.480652
-1.31073,0.479126
-1.3031,0.4776
-1.29547,0.473022
-1.28479,0.4776
-1.28174,0.480652
-1.27258,0.479126
-1.26648,0.4776
-1.26038,0.4776
-1.25427,0.479126
-1.24969,0.479126
-1.24817,0.480652
-1.24664,0.473022
-1.24817,0.474548
-1.24512,0.479126
-1.24969,0.4776
-1.25427,0.479126
-1.26038,0.476074
-1.27106,0.4776
-1.28479,0.479126
-1.29852,0.479126
-1.31378,0.479126
-1.33514,0.474548
-1.35345,0.476074
-1.37787,0.479126
-1.40228,0.4776
-1.42975,0.479126
-1.46027,0.480652
-1.48468,0.476074
-1.51367,0.476074
-1.55182,0.479126
-1.58691,0.479126
-1.62048,0.476074
-1.6571,0.4776
-1.69373,0.4776
-1.72577,0.4776
-1.76392,0.479126
-1.79596,0.476074
-1.83716,0.473022
-1.8692,0.480652
-1.90735,0.480652
-1.94397,0.4776
-1.98059,0.479126
-2.01569,0.473022
-2.05231,0.479126
-2.08893,0.480652
-2.12402,0.480652
-2.15454,0.476074
-2.18811,0.476074
-2.22321,0.4776
-2.25525,0.482178
-2.28577,0.480652
-2.31781,0.479126
-2.34528,0.474548
-2.37579,0.473022
-2.40631,0.476074
-2.43225,0.480652
-2.45819,0.476074
-2.48413,0.479126
-2.50854,0.4776
-2.53296,0.480652
-2.55737,0.479126
-2.58179,0.4776
-2.60315,0.474548
-2.62299,0.479126
-2.64587,0.4776
-2.66418,0.479126
-2.68402,0.474548
-2.70081,0.4776
-2.72217,0.479126
-2.73438,0.479126
-2.75574,0.480652
-2.77252,0.479126
-2.78625,0.474548
-2.80609,0.476074
-2.81982,0.479126
-2.83508,0.479126
-2.84882,0.476074
-2.86407,0.474548
-2.87781,0.4776
-2.88849,0.476074
-2.90375,0.479126
-2.91748,0.4776
-2.92206,0.4776
-2.93579,0.4776
-2.94952,0.480652
-2.96173,0.479126
-2.97546,0.476074
-2.98157,0.476074
-2.99377,0.4776
-3.0014,0.479126
-3.01361,0.480652
-3.02124,0.476074
-3.0304,0.4776
-3.03955,0.480652
-3.04871,0.4776
-3.05176,0.4776
-3.06396,0.479126
-3.07159,0.474548
-3.07922,0.4776
-3.08838,0.479126
-3.09906,0.480652
-3.10822,0.474548
-3.11584,0.474548
-3.13263,0.479126
-3.14178,0.4776
-3.15552,0.479126
-3.16772,0.4776
-3.18298,0.474548
-3.19519,0.480652
-3.20587,0.483704
-3.21808,0.4776
-3.23486,0.479126
-3.25012,0.474548
-3.26538,0.4776
-3.28064,0.479126
-3.29742,0.480652
-3.31421,0.474548
-3.33099,0.473022
-3.3493,0.4776
-3.36761,0.480652
-3.38745,0.480652
-3.41034,0.4776
-3.43018,0.473022
-3.45154,0.473022
-3.4729,0.479126
-3.49426,0.4776
-3.5141,0.4776
-3.53546,0.476074
-3.55377,0.479126
-3.57056,0.483704
-3.59192,0.479126
-3.59955,0.474548
-3.61176,0.476074
-3.6087,0.4776
-3.60565,0.479126
-3.58887,0.480652
-3.55682,0.4776
-3.51257,0.474548
-3.44849,0.474548
-3.36609,0.480652
-3.26538,0.479126
-3.14331,0.476074
-3.00598,0.474548
-2.84424,0.476074
-2.67792,0.4776
-2.49939,0.474548
-2.32391,0.476074
-2.14539,0.4776
-1.97449,0.476074
-1.81122,0.482178
-1.6571,0.4776
-1.51215,0.4776
-1.37482,0.476074
-1.24817,0.479126
-1.13373,0.479126
-1.02692,0.4776
-0.932312,0.476074
-0.842285,0.473022
-0.764465,0.473022
-0.692749,0.479126
-0.636292,0.4776
-0.585938,0.4776
-0.541687,0.473022
-0.505066,0.4776
-0.4776,0.4776
-0.450134,0.4776
-0.436401,0.476074
-0.428772,0.469971
-0.42572,0.474548
-0.428772,0.4776
-0.437927,0.476074
-0.450134,0.476074
-0.466919,0.474548
-0.489807,0.476074
-0.512695,0.479126
-0.535583,0.4776
-0.563049,0.473022
-0.596619,0.474548
-0.62561,0.4776
-0.65918,0.479126
-0.691223,0.474548
-0.724792,0.474548
-0.75531,0.471497
-0.793457,0.476074
-0.823975,0.479126
-0.856018,0.476074
-0.894165,0.479126
-0.924683,0.473022
-0.958252,0.4776
-0.990295,0.480652
-1.02234,0.4776
-1.05743,0.4776
-1.091,0.474548
-1.1261,0.474548
-1.15967,0.4776
-1.19476,0.479126
-1.23444,0.476074
-1.26343,0.473022
-1.29852,0.476074
-1.32904,0.4776
-1.35498,0.480652
-1.38245,0.4776
-1.40686,0.473022
-1.4267,0.476074
-1.44348,0.4776
-1.45721,0.4776
-1.47095,0.474548
-1.474,0.471497
-1.48163,0.474548
-1.48315,0.4776
-1.48163,0.476074
-1.48163,0.474548
-1.474,0.476074
-1.46637,0.479126
-1.45721,0.476074
-1.44806,0.479126
-1.43738,0.476074
-1.4267,0.473022
-1.41296,0.473022
-1.40228,0.479126
-1.38397,0.4776
-1.37482,0.476074
-1.36108,0.473022
-1.34735,0.476074
-1.33667,0.476074
-1.32294,0.476074
-1.31836,0.474548
-1.31226,0.474548
-1.30157,0.479126
-1.30463,0.476074
-1.30157,0.476074
-1.3031,0.474548
-1.30615,0.471497
-1.31226,0.4776
-1.31683,0.4776
-1.33057,0.4776
-1.34277,0.474548
-1.35803,0.473022
-1.37787,0.4776
-1.40076,0.476074
-1.42059,0.476074
-1.44958,0.4776
-1.474,0.474548
-1.50299,0.4776
-1.53656,0.4776
-1.56555,0.476074
-1.60065,0.476074
-1.63116,0.476074
-1.66626,0.473022
-1.70135,0.476074
-1.7334,0.476074
-1.7746,0.4776
-1.80817,0.473022
-1.84479,0.476074
-1.88293,0.476074
-1.91956,0.476074
-1.95313,0.474548
-1.98975,0.474548
-2.02637,0.476074
-2.06451,0.476074
-2.10114,0.474548
-2.13318,0.474548
-2.16675,0.471497
-2.20184,0.476074
-2.23236,0.479126
-2.2644,0.476074
-2.29492,0.474548
-2.32697,0.474548
-2.35596,0.476074
-2.3819,0.476074
-2.41394,0.476074
-2.4353,0.474548
-2.45819,0.474548
-2.4826,0.4776
-2.50854,0.476074
-2.53143,0.4776
-2.54974,0.4776
-2.57111,0.473022
-2.59399,0.474548
-2.61078,0.473022
-2.62299,0.474548
-2.63977,0.476074
-2.65808,0.474548
-2.67334,0.476074
-2.68555,0.474548
-2.70386,0.479126
-2.71606,0.476074
-2.72827,0.473022
-2.7359,0.4776
-2.74658,0.476074
-2.75726,0.476074
-2.76489,0.474548
-2.77405,0.474548
-2.77863,0.474548
-2.78931,0.4776
-2.79541,0.474548
-2.80457,0.4776
-2.80762,0.473022
-2.81677,0.474548
-2.82288,0.471497
-2.82745,0.4776
-2.83356,0.476074
-2.83966,0.476074
-2.84729,0.476074
-2.85187,0.474548
-2.85797,0.476074
-2.86713,0.471497
-2.8717,0.473022
-2.87781,0.474548
-2.88696,0.474548
-2.89459,0.471497
-2.90222,0.474548
-2.91138,0.4776
-2.92053,0.4776
-2.93121,0.476074
-2.94495,0.474548
-2.95715,0.474548
-2.96631,0.474548
-2.97852,0.4776
-2.99072,0.4776
-3.00903,0.476074
-3.01971,0.4776
-3.03345,0.474548
-3.04718,0.474548
-3.06549,0.474548
-3.08228,0.4776
-3.09448,0.474548
-3.11279,0.4776
-3.13263,0.4776
-3.14941,0.474548
-3.16925,0.476074
-3.18451,0.476074
-3.20435,0.476074
-3.2196,0.474548
-3.23792,0.473022
-3.25928,0.476074
-3.27759,0.474548
-3.29285,0.479126
-3.30505,0.473022
-3.31268,0.474548
-3.32031,0.471497
-3.32642,0.474548
-3.31726,0.476074
-3.29742,0.474548
-3.26843,0.473022
-3.22571,0.474548
-3.16467,0.476074
-3.08533,0.476074
-2.99072,0.4776
-2.87781,0.476074
-2.74048,0.476074
-2.59094,0.473022
-2.43225,0.479126
-2.26746,0.4776
-2.10266,0.473022
-1.93939,0.476074
-1.77917,0.473022
-1.62811,0.4776
-1.48163,0.473022
-1.3504,0.471497
-1.22223,0.473022
-1.10931,0.474548
-0.996399,0.474548
-0.895691,0.474548
-0.802612,0.473022
-0.721741,0.473022
-0.648499,0.476074
-0.582886,0.473022
-0.521851,0.474548
-0.469971,0.471497
-0.430298,0.474548
-0.393677,0.473022
-0.363159,0.473022
-0.343323,0.474548
-0.331116,0.473022
-0.323486,0.474548
-0.320435,0.474548
-0.32196,0.4776
-0.32959,0.473022
-0.340271,0.473022
-0.357056,0.473022
-0.375366,0.468445
-0.396729,0.4776
-0.424194,0.474548
-0.450134,0.471497
-0.479126,0.474548
-0.511169,0.474548
-0.546265,0.4776
-0.57373,0.473022
-0.604248,0.476074
-0.636292,0.473022
-0.665283,0.474548
-0.694275,0.476074
-0.726318,0.474548
-0.75531,0.473022
-0.785828,0.473022
-0.816345,0.473022
-0.845337,0.479126
-0.871277,0.473022
-0.90332,0.473022
-0.933838,0.473022
-0.970459,0.476074
-1.00403,0.476074
-1.0376,0.474548
-1.07269,0.473022
-1.10779,0.473022
-1.14441,0.474548
-1.1734,0.473022
-1.20697,0.473022
-1.23138,0.4776
-1.2619,0.476074
-1.28479,0.473022
-1.30615,0.476074
-1.32141,0.476074
-1.3382,0.473022
-1.34888,0.473022
-1.36414,0.476074
-1.37024,0.4776
-1.37634,0.476074
-1.37787,0.473022
-1.37482,0.474548
-1.37482,0.471497
-1.37329,0.476074
-1.37177,0.474548
-1.36261,0.473022
-1.35803,0.474548
-1.35193,0.473022
-1.34277,0.476074
-1.33514,0.469971
-1.32904,0.476074
-1.31989,0.476074
-1.31378,0.473022
-1.3092,0.476074
-1.30157,0.474548
-1.29852,0.473022
-1.29547,0.474548
-1.29547,0.468445
-1.29395,0.476074
-1.29547,0.476074
-1.30005,0.476074
-1.3092,0.473022
-1.31378,0.474548
-1.32904,0.474548
-1.3382,0.473022
-1.35498,0.473022
-1.37177,0.474548
-1.39465,0.468445
-1.41449,0.479126
-1.44196,0.473022
-1.46484,0.473022
-1.49689,0.474548
-1.52588,0.469971
-1.55792,0.476074
-1.59149,0.474548
-1.62506,0.471497
-1.66473,0.474548
-1.69983,0.469971
-1.73798,0.476074
-1.77765,0.473022
-1.81427,0.471497
-1.85699,0.474548
-1.89362,0.468445
-1.93481,0.476074
-1.97449,0.474548
-2.01416,0.471497
-2.05078,0.474548
-2.09351,0.471497
-2.13165,0.476074
-2.16522,0.476074
-2.2049,0.473022
-2.23999,0.473022
-2.27509,0.469971
-2.31018,0.476074
-2.34375,0.474548
-2.37579,0.474548
-2.40784,0.471497
-2.43683,0.471497
-2.46735,0.474548
-2.49329,0.476074
-2.5238,0.474548
-2.54974,0.473022
-2.57874,0.466919
-2.60468,0.4776
-2.62299,0.473022
-2.65198,0.471497
-2.67792,0.471497
-2.70081,0.469971
-2.72217,0.4776
-2.742,0.471497
-2.76794,0.473022
-2.78625,0.469971
-2.80609,0.466919
-2.82593,0.474548
-2.84424,0.471497
-2.86255,0.473022
-2.88086,0.471497
-2.89917,0.468445
-2.9129,0.474548
-2.92664,0.473022
-2.94342,0.471497
-2.95563,0.473022
-2.97394,0.465393
-2.98767,0.474548
-2.99683,0.473022
-3.01361,0.471497
-3.02277,0.473022
-3.0365,0.466919
-3.04413,0.476074
-3.05481,0.473022
-3.06396,0.468445
-3.07312,0.473022
-3.0838,0.466919
-3.09448,0.474548
-3.10211,0.471497
-3.10974,0.473022
-3.1189,0.474548
-3.12347,0.466919
-3.13721,0.4776
-3.14026,0.474548
-3.14789,0.476074
-3.15857,0.473022
-3.1662,0.468445
-3.17383,0.474548
-3.18298,0.473022
-3.19214,0.471497
-3.20129,0.469971
-3.21045,0.468445
-3.2196,0.474548
-3.23029,0.474548
-3.24402,0.469971
-3.25775,0.474548
-3.26691,0.469971
-3.27911,0.476074
-3.29437,0.473022
-3.30811,0.471497
-3.32489,0.474548
-3.34015,0.471497
-3.35693,0.476074
-3.37524,0.471497
-3.39355,0.473022
-3.41187,0.471497
-3.4317,0.468445
-3.45154,0.473022
-3.46985,0.473022
-3.48969,0.471497
-3.51257,0.469971
-3.53241,0.468445
-3.55225,0.476074
-3.5675,0.471497
-3.58429,0.471497
-3.5965,0.473022
-3.60718,0.466919
-3.61481,0.473022
-3.61176,0.474548
-3.6026,0.471497
-3.58582,0.474548
-3.55377,0.466919
-3.50494,0.473022
-3.44391,0.474548
-3.36456,0.471497
-3.26385,0.473022
-3.14789,0.466919
-3.01208,0.473022
-2.85339,0.473022
-2.6886,0.471497
-2.51312,0.469971
-2.33612,0.462341
-2.16064,0.476074
-1.98822,0.473022
-1.828,0.474548
-1.67389,0.471497
-1.52893,0.463867
-1.39313,0.474548
-1.26953,0.471497
-1.15356,0.471497
-1.04523,0.471497
-0.946045,0.463867
-0.863647,0.474548
-0.78125,0.473022
-0.709534,0.471497
-0.650024,0.471497
-0.59967,0.463867
-0.553894,0.476074
-0.521851,0.473022
-0.488281,0.469971
-0.471497,0.473022
-0.457764,0.465393
-0.448608,0.474548
-0.447083,0.471497
-0.450134,0.471497
-0.45929,0.473022
-0.469971,0.463867
-0.489807,0.473022
-0.512695,0.473022
-0.540161,0.469971
-0.564575,0.474548
-0.595093,0.466919
-0.627136,0.474548
-0.660706,0.473022
-0.692749,0.474548
-0.730896,0.473022
-0.765991,0.466919
-0.799561,0.473022
-0.834656,0.473022
-0.868225,0.471497
-0.900269,0.471497
-0.933838,0.466919
-0.968933,0.474548
-0.997925,0.471497
-1.03302,0.471497
-1.06506,0.468445
-1.09558,0.462341
-1.13068,0.473022
-1.16425,0.471497
-1.20087,0.468445
-1.23444,0.471497
-1.26953,0.465393
-1.30005,0.474548
-1.33209,0.471497
-1.36261,0.471497
-1.38702,0.469971
-1.41296,0.463867
-1.4328,0.469971
-1.45264,0.471497
-1.47095,0.469971
-1.48315,0.469971
-1.49536,0.463867
-1.50452,0.473022
-1.50909,0.471497
-1.51062,0.471497
-1.51215,0.471497
-1.51062,0.460815
-1.50452,0.473022
-1.49841,0.471497
-1.49078,0.471497
-1.47858,0.471497
-1.46942,0.462341
-1.46027,0.473022
-1.44806,0.469971
-1.43127,0.471497
-1.42059,0.468445
-1.40839,0.462341
-1.39923,0.471497
-1.38397,0.471497
-1.37634,0.471497
-1.36566,0.471497
-1.36261,0.462341
-1.34888,0.471497
-1.34735,0.473022
-1.3443,0.469971
-1.34583,0.469971
-1.34583,0.465393
-1.3504,0.469971
-1.35803,0.469971
-1.36566,0.469971
-1.37329,0.469971
-1.3855,0.462341
-1.40381,0.474548
-1.41907,0.473022
-1.44348,0.469971
-1.46332,0.473022
-1.48468,0.462341
-1.51367,0.473022
-1.54266,0.469971
-1.57013,0.469971
-1.6037,0.471497
-1.63574,0.465393
-1.66626,0.471497
-1.69983,0.473022
-1.74103,0.468445
-1.77155,0.471497
-1.80817,0.462341
-1.84021,0.473022
-1.87531,0.471497
-1.91498,0.469971
-1.9516,0.466919
-1.98669,0.465393
-2.02484,0.473022
-2.05383,0.469971
-2.09045,0.469971
-2.12708,0.469971
-2.15759,0.465393
-2.18964,0.471497
-2.22168,0.468445
-2.2583,0.469971
-2.28729,0.468445
-2.32239,0.462341
-2.35291,0.473022
-2.37885,0.471497
-2.40784,0.469971
-2.43835,0.468445
-2.46277,0.463867
-2.48871,0.473022
-2.51617,0.468445
-2.54059,0.469971
-2.565,0.468445
-2.58636,0.463867
-2.60773,0.469971
-2.62604,0.471497
-2.64587,0.471497
-2.66418,0.471497
-2.68555,0.465393
-2.70081,0.473022
-2.71301,0.469971
-2.73132,0.469971
-2.74506,0.468445
-2.75726,0.463867
-2.76642,0.468445
-2.78015,0.471497
-2.78931,0.469971
-2.80151,0.471497
-2.80762,0.466919
-2.81982,0.474548
-2.82898,0.471497
-2.83508,0.471497
-2.84424,0.471497
-2.84882,0.463867
-2.85339,0.471497
-2.8595,0.469971
-2.86407,0.469971
-2.87018,0.469971
-2.87781,0.463867
-2.88086,0.469971
-2.88696,0.471497
-2.89001,0.466919
-2.89459,0.473022
-2.89764,0.463867
-2.90375,0.469971
-2.9068,0.471497
-2.91595,0.471497
-2.92206,0.471497
-2.92816,0.466919
-2.93274,0.471497
-2.94495,0.469971
-2.95258,0.466919
-2.96173,0.469971
-2.97089,0.465393
-2.98157,0.471497
-2.9892,0.469971
-3.00598,0.466919
-3.01514,0.469971
-3.02734,0.465393
-3.0426,0.471497
-3.05634,0.468445
-3.07007,0.469971
-3.08838,0.469971
-3.10364,0.466919
-3.12347,0.471497
-3.14026,0.471497
-3.1601,0.469971
-3.17688,0.471497
-3.19824,0.466919
-3.21655,0.473022
-3.23792,0.466919
-3.2547,0.469971
-3.26996,0.468445
-3.28369,0.469971
-3.29285,0.469971
-3.29742,0.471497
-3.29132,0.468445
-3.27759,0.469971
-3.25317,0.466919
-3.2135,0.466919
-3.15704,0.468445
-3.08685,0.468445
-2.99683,0.473022
-2.88849,0.468445
-2.76031,0.469971
-2.6123,0.471497
-2.45514,0.469971
-2.2934,0.466919
-2.12402,0.468445
-1.96381,0.468445
-1.79596,0.469971
-1.64185,0.468445
-1.49994,0.469971
-1.35803,0.469971
-1.22833,0.468445
-1.10931,0.468445
-0.997925,0.468445
-0.894165,0.468445
-0.802612,0.471497
-0.717163,0.471497
-0.640869,0.466919
-0.575256,0.468445
-0.517273,0.469971
-0.465393,0.466919
-0.422668,0.469971
-0.387573,0.469971
-0.357056,0.471497
-0.338745,0.465393
-0.323486,0.465393
-0.312805,0.471497
-0.309753,0.468445
-0.314331,0.466919
-0.323486,0.468445
-0.335693,0.468445
-0.346375,0.471497
-0.366211,0.468445
-0.389099,0.469971
-0.410461,0.469971
-0.437927,0.473022
-0.468445,0.469971
-0.495911,0.468445
-0.531006,0.465393
-0.558472,0.468445
-0.590515,0.473022
-0.624084,0.469971
-0.660706,0.469971
-0.688171,0.468445
-0.721741,0.471497
-0.753784,0.471497
-0.785828,0.471497
-0.817871,0.471497
-0.848389,0.468445
-0.881958,0.469971
-0.914001,0.469971
-0.952148,0.469971
-0.984192,0.468445
-1.02234,0.466919
-1.05591,0.469971
-1.091,0.469971
-1.12457,0.469971
-1.16272,0.468445
-1.19324,0.466919
-1.22223,0.468445
-1.24817,0.473022
-1.27869,0.469971
-1.30005,0.469971
-1.31836,0.466919
-1.33972,0.468445
-1.35498,0.469971
-1.36871,0.471497
-1.37787,0.469971
-1.3855,0.469971
-1.39465,0.469971
-1.39465,0.473022
-1.39618,0.469971
-1.39008,0.469971
-1.3855,0.471497
-1.38245,0.468445
-1.37634,0.473022
-1.36566,0.469971
-1.35803,0.469971
-1.3504,0.469971
-1.34277,0.469971
-1.33514,0.473022
-1.32294,0.466919
-1.31378,0.469971
-1.30157,0.468445
-1.29089,0.468445
-1.28632,0.473022
-1.28021,0.466919
-1.27563,0.469971
-1.27106,0.466919
-1.27106,0.466919
-1.27411,0.473022
-1.27563,0.473022
-1.28021,0.469971
-1.28479,0.466919
-1.29395,0.469971
-1.30615,0.469971
-1.31836,0.468445
-1.33514,0.469971
-1.35498,0.466919
-1.37482,0.469971
-1.39771,0.473022
-1.42212,0.468445
-1.44653,0.468445
-1.474,0.468445
-1.50452,0.468445
-1.53809,0.474548
-1.56708,0.468445
-1.59912,0.468445
-1.63269,0.469971
-1.67084,0.468445
-1.70135,0.473022
-1.74408,0.468445
-1.77612,0.466919
-1.81427,0.465393
-1.84784,0.468445
-1.88599,0.471497
-1.91803,0.468445
-1.95313,0.465393
-1.98669,0.468445
-2.02026,0.468445
-2.04926,0.473022
-2.0813,0.471497
-2.11487,0.466919
-2.14386,0.466919
-2.17438,0.466919
-2.20642,0.474548
-2.23389,0.468445
-2.2583,0.469971
-2.28729,0.465393
-2.31323,0.465393
-2.3407,0.471497
-2.36359,0.471497
-2.388,0.468445
-2.41394,0.469971
-2.43073,0.468445
-2.45361,0.473022
-2.47803,0.466919
-2.49634,0.466919
-2.5177,0.465393
-2.53601,0.465393
-2.54974,0.474548
-2.56805,0.468445
-2.57874,0.465393
-2.59552,0.468445
-2.60773,0.468445
-2.61841,0.476074
-2.62909,0.469971
-2.63824,0.468445
-2.64435,0.465393
-2.64893,0.466919
-2.65808,0.476074
-2.66266,0.468445
-2.66571,0.468445
-2.67181,0.469971
-2.67334,0.469971
-2.67487,0.476074
-2.67639,0.468445
-2.67639,0.468445
-2.67639,0.468445
-2.67944,0.469971
-2.6825,0.473022
-2.67639,0.469971
-2.67792,0.465393
-2.67792,0.465393
-2.68402,0.465393
-2.68555,0.473022
-2.69012,0.471497
-2.69318,0.468445
-2.69623,0.466919
-2.69928,0.466919
-2.70844,0.474548
-2.71454,0.469971
-2.72369,0.466919
-2.73438,0.468445
-2.74506,0.469971
-2.75574,0.474548
-2.76489,0.466919
-2.77557,0.469971
-2.78473,0.466919
-2.80151,0.465393
-2.81219,0.476074
-2.82745,0.471497
-2.84119,0.468445
-2.85187,0.466919
-2.87018,0.468445
-2.88696,0.474548
-2.90527,0.468445
-2.92053,0.466919
-2.94189,0.465393
-2.96173,0.465393
-2.98004,0.474548
-2.99835,0.471497
-3.01819,0.471497
-3.03802,0.465393
-3.05481,0.465393
-3.07465,0.476074
-3.08838,0.469971
-3.10059,0.466919
-3.11279,0.465393
-3.11737,0.468445
-3.1189,0.471497
-3.11127,0.469971
-3.09906,0.469971
-3.06396,0.468445
-3.02124,0.465393
-2.96326,0.474548
-2.89001,0.469971
-2.79541,0.468445
-2.68097,0.468445
-2.5528,0.466919
-2.40631,0.476074
-2.25372,0.466919
-2.09351,0.466919
-1.93481,0.468445
-1.77917,0.468445
-1.63116,0.473022
-1.4801,0.469971
-1.34125,0.466919
-1.21307,0.465393
-1.09406,0.465393
-0.979614,0.474548
-0.875854,0.469971
-0.778198,0.463867
-0.692749,0.465393
-0.613403,0.466919
-0.544739,0.473022
-0.483704,0.468445
-0.428772,0.463867
-0.38147,0.466919
-0.341797,0.465393
-0.315857,0.474548
-0.288391,0.469971
-0.268555,0.465393
-0.259399,0.465393
-0.256348,0.466919
-0.254822,0.471497
-0.259399,0.468445
-0.271606,0.468445
-0.282288,0.465393
-0.299072,0.466919
-0.318909,0.471497
-0.337219,0.468445
-0.361633,0.466919
-0.390625,0.469971
-0.419617,0.468445
-0.447083,0.473022
-0.4776,0.466919
-0.505066,0.463867
-0.540161,0.465393
-0.566101,0.466919
-0.602722,0.473022
-0.631714,0.468445
-0.662231,0.469971
-0.691223,0.466919
-0.72937,0.465393
-0.758362,0.473022
-0.791931,0.466919
-0.828552,0.465393
-0.860596,0.462341
-0.898743,0.468445
-0.93689,0.469971
-0.973511,0.468445
-1.00555,0.466919
-1.04523,0.463867
-1.0788,0.465393
-1.11084,0.471497
-1.14288,0.466919
-1.17188,0.466919
-1.19476,0.465393
-1.22528,0.463867
-1.24054,0.473022
-1.2558,0.465393
-1.27106,0.465393
-1.28479,0.465393
-1.29089,0.465393
-1.29852,0.469971
-1.30005,0.466919
-1.30005,0.466919
-1.30005,0.465393
-1.29852,0.465393
-1.29395,0.473022
-1.28937,0.468445
-1.28174,0.465393
-1.26953,0.465393
-1.26038,0.465393
-1.24969,0.471497
-1.23901,0.466919
-1.22833,0.466919
-1.2146,0.465393
-1.20544,0.465393
-1.19324,0.471497
-1.18713,0.468445
-1.17798,0.465393
-1.16882,0.466919
-1.16577,0.465393
-1.15967,0.469971
-1.15662,0.468445
-1.15356,0.465393
-1.15509,0.462341
-1.15814,0.463867
-1.16425,0.471497
-1.17493,0.468445
-1.18103,0.466919
-1.19629,0.465393
-1.21002,0.463867
-1.22681,0.471497
-1.24817,0.469971
-1.27258,0.463867
-1.29547,0.466919
-1.32294,0.465393
-1.3504,0.466919
-1.37939,0.466919
-1.40991,0.463867
-1.44043,0.465393
-1.47552,0.463867
-1.50909,0.471497
-1.54266,0.468445
-1.57776,0.466919
-1.61438,0.463867
-1.651,0.463867
-1.6861,0.468445
-1.72119,0.465393
-1.75781,0.463867
-1.79291,0.463867
-1.82343,0.466919
-1.86157,0.466919
-1.89209,0.468445
-1.92566,0.466919
-1.95923,0.463867
-1.9928,0.465393
-2.02179,0.468445
-2.04926,0.466919
-2.07825,0.465393
-2.10571,0.463867
-2.1347,0.463867
-2.16217,0.465393
-2.18658,0.466919
-2.20947,0.463867
-2.23846,0.463867
-2.26135,0.465393
-2.28424,0.465393
-2.30713,0.466919
-2.33002,0.463867
-2.35138,0.462341
-2.37427,0.465393
-2.3941,0.466919
-2.41547,0.466919
-2.43225,0.463867
-2.45056,0.465393
-2.46887,0.462341
-2.48718,0.469971
-2.50397,0.468445
-2.52075,0.465393
-2.53754,0.466919
-2.55127,0.463867
-2.56805,0.468445
-2.58179,0.465393
-2.59399,0.463867
-2.6062,0.465393
-2.61688,0.463867
-2.63062,0.471497
-2.63977,0.466919
-2.6474,0.463867
-2.65808,0.463867
-2.66571,0.463867
-2.67487,0.469971
-2.68402,0.468445
-2.69318,0.462341
-2.70386,0.463867
-2.70996,0.462341
-2.72064,0.466919
-2.72827,0.471497
-2.73438,0.463867
-2.74353,0.466919
-2.75269,0.462341
-2.76337,0.468445
-2.77252,0.466919
-2.78473,0.463867
-2.79236,0.462341
-2.80151,0.466919
-2.81525,0.463867
-2.82745,0.465393
-2.83813,0.463867
-2.85187,0.463867
-2.86407,0.460815
-2.88239,0.468445
-2.89459,0.463867
-2.90985,0.463867
-2.92206,0.465393
-2.93579,0.463867
-2.95105,0.465393
-2.96783,0.468445
-2.98309,0.466919
-2.99988,0.465393
-3.01971,0.465393
-3.0365,0.469971
-3.05328,0.463867
-3.07312,0.465393
-3.09143,0.463867
-3.10974,0.460815
-3.13263,0.468445
-3.15399,0.465393
-3.16925,0.465393
-3.18451,0.466919
-3.20129,0.463867
-3.21503,0.463867
-3.22571,0.466919
-3.23181,0.463867
-3.22876,0.463867
-3.21655,0.463867
-3.19519,0.466919
-3.1601,0.465393
-3.11127,0.465393
-3.04413,0.462341
-2.95868,0.465393
-2.85187,0.469971
-2.72522,0.466919
-2.58179,0.465393
-2.42462,0.466919
-2.26288,0.463867
-2.09808,0.466919
-1.93481,0.468445
-1.77765,0.463867
-1.62659,0.465393
-1.47858,0.465393
-1.3443,0.466919
-1.21765,0.466919
-1.09406,0.45929
-0.98877,0.463867
-0.883484,0.462341
-0.793457,0.466919
-0.708008,0.468445
-0.634766,0.465393
-0.566101,0.462341
-0.50354,0.460815
-0.457764,0.466919
-0.410461,0.465393
-0.375366,0.462341
-0.344849,0.463867
-0.325012,0.463867
-0.309753,0.463867
-0.297546,0.463867
-0.292969,0.463867
-0.291443,0.465393
-0.294495,0.462341
-0.30365,0.466919
-0.312805,0.465393
-0.331116,0.462341
-0.350952,0.463867
-0.367737,0.463867
-0.393677,0.466919
-0.418091,0.466919
-0.445557,0.463867
-0.469971,0.463867
-0.497437,0.462341
-0.526428,0.463867
-0.556946,0.463867
-0.585938,0.463867
-0.611877,0.460815
-0.640869,0.463867
-0.668335,0.465393
-0.694275,0.466919
-0.724792,0.462341
-0.750732,0.463867
-0.778198,0.463867
-0.80719,0.466919
-0.839233,0.463867
-0.868225,0.463867
-0.897217,0.463867
-0.92926,0.462341
-0.959778,0.463867
-0.996399,0.463867
-1.02844,0.462341
-1.06354,0.463867
-1.09253,0.462341
-1.12457,0.465393
-1.15356,0.463867
-1.17645,0.462341
-1.19934,0.463867
-1.2207,0.462341
-1.23901,0.463867
-1.25275,0.463867
-1.26343,0.462341
-1.27258,0.465393
-1.27869,0.463867
-1.28326,0.463867
-1.28479,0.463867
-1.28326,0.465393
-1.28021,0.463867
-1.27869,0.462341
-1.27258,0.463867
-1.2619,0.466919
-1.2558,0.462341
-1.24054,0.463867
-1.23138,0.460815
-1.22375,0.462341
-1.21155,0.463867
-1.19934,0.460815
-1.19019,0.463867
-1.18103,0.463867
-1.17188,0.462341
-1.16272,0.465393
-1.15509,0.460815
-1.15204,0.463867
-1.14746,0.45929
-1.14288,0.463867
-1.14746,0.465393
-1.14899,0.463867
-1.15051,0.462341
-1.15814,0.460815
-1.1673,0.462341
-1.17645,0.465393
-1.19019,0.463867
-1.2085,0.465393
-1.22528,0.462341
-1.24664,0.466919
-1.26648,0.465393
-1.28937,0.463867
-1.31683,0.463867
-1.3443,0.460815
-1.37329,0.463867
-1.40228,0.468445
-1.4328,0.460815
-1.4679,0.463867
-1.49841,0.462341
-1.53351,0.465393
-1.5686,0.463867
-1.6037,0.462341
-1.63879,0.463867
-1.67236,0.460815
-1.70441,0.462341
-1.74408,0.462341
-1.7807,0.462341
-1.81885,0.463867
-1.85242,0.462341
-1.88751,0.465393
-1.92413,0.460815
-1.95618,0.460815
-1.9928,0.462341
-2.02637,0.463867
-2.05688,0.463867
-2.08588,0.465393
-2.11945,0.462341
-2.14539,0.463867
-2.17285,0.460815
-2.20184,0.462341
-2.22626,0.463867
-2.25372,0.462341
-2.27509,0.460815
-2.29645,0.460815
-2.31781,0.462341
-2.34222,0.465393
-2.36206,0.462341
-2.3819,0.45929
-2.39716,0.462341
-2.41699,0.460815
-2.43073,0.460815
-2.44751,0.462341
-2.46735,0.462341
-2.47803,0.460815
-2.49023,0.462341
-2.50702,0.463867
-2.51465,0.462341
-2.5238,0.45929
-2.53754,0.460815
-2.54822,0.463867
-2.5589,0.465393
-2.56958,0.462341
-2.57568,0.462341
-2.58484,0.462341
-2.59094,0.462341
-2.60162,0.466919
-2.60925,0.463867
-2.61993,0.463867
-2.62756,0.45929
-2.63977,0.462341
-2.64587,0.463867
-2.65808,0.463867
-2.66113,0.462341
-2.67181,0.462341
-2.6825,0.463867
-2.69318,0.462341
-2.70081,0.462341
-2.71149,0.463867
-2.72064,0.460815
-2.7298,0.465393
-2.74048,0.463867
-2.74658,0.460815
-2.76337,0.460815
-2.77405,0.463867
-2.78931,0.462341
-2.80151,0.463867
-2.81677,0.462341
-2.83051,0.462341
-2.84424,0.45929
-2.85797,0.465393
-2.87781,0.465393
-2.89307,0.462341
-2.91443,0.462341
-2.92816,0.463867
-2.948,0.462341
-2.96326,0.460815
-2.98157,0.460815
-2.99835,0.462341
-3.01971,0.460815
-3.04413,0.462341
-3.05939,0.462341
-3.08228,0.462341
-3.10211,0.465393
-3.11737,0.460815
-3.13568,0.460815
-3.14331,0.462341
-3.15399,0.460815
-3.15399,0.463867
-3.14789,0.462341
-3.13721,0.465393
-3.11279,0.463867
-3.07159,0.463867
-3.01514,0.460815
-2.94189,0.462341
-2.85187,0.45929
-2.73895,0.463867
-2.6123,0.462341
-2.46735,0.462341
-2.31934,0.45929
-2.16217,0.460815
-2.00653,0.465393
-1.85089,0.462341
-1.70135,0.460815
-1.56403,0.462341
-1.42822,0.462341
-1.3031,0.462341
-1.18408,0.462341
-1.06812,0.463867
-0.970459,0.460815
-0.871277,0.463867
-0.784302,0.463867
-0.709534,0.462341
-0.640869,0.45929
-0.576782,0.45929
-0.526428,0.45929
-0.479126,0.462341
-0.439453,0.460815
-0.405884,0.460815
-0.378418,0.460815
-0.363159,0.460815
-0.343323,0.463867
-0.338745,0.45929
-0.335693,0.460815
-0.337219,0.460815
-0.344849,0.460815
-0.350952,0.462341
-0.366211,0.462341
-0.378418,0.462341
-0.396729,0.460815
-0.419617,0.462341
-0.444031,0.462341
-0.465393,0.45929
-0.492859,0.460815
-0.518799,0.460815
-0.544739,0.462341
-0.572205,0.462341
-0.595093,0.462341
-0.62561,0.460815
-0.65155,0.460815
-0.674438,0.460815
-0.701904,0.462341
-0.72937,0.45929
-0.753784,0.462341
-0.78125,0.462341
-0.811768,0.462341
-0.845337,0.463867
-0.872803,0.462341
-0.906372,0.462341
-0.938416,0.460815
-0.973511,0.45929
-1.00861,0.465393
-1.03912,0.460815
-1.07269,0.460815
-1.10474,0.460815
-1.13983,0.462341
-1.16577,0.463867
-1.19476,0.460815
-1.2207,0.45929
-1.24512,0.462341
-1.26343,0.463867
-1.27869,0.460815
-1.29089,0.454712
-1.3031,0.460815
-1.30768,0.45929
-1.31226,0.45929
-1.31378,0.462341
-1.31073,0.462341
-1.3092,0.45929
-1.30463,0.462341
-1.29852,0.462341
-1.28784,0.462341
-1.28021,0.460815
-1.27106,0.463867
-1.26038,0.460815
-1.25122,0.462341
-1.24207,0.462341
-1.22986,0.460815
-1.22223,0.462341
-1.21307,0.45929
-1.20544,0.456238
-1.19629,0.463867
-1.19171,0.462341
-1.19019,0.460815
-1.18866,0.45929
-1.18866,0.460815
-1.18713,0.463867
-1.19171,0.460815
-1.19629,0.460815
-1.19934,0.45929
-1.21307,0.460815
-1.22833,0.462341
-1.24512,0.462341
-1.2619,0.463867
-1.28021,0.45929
-1.30768,0.45929
-1.33057,0.462341
-1.35345,0.45929
-1.38245,0.460815
-1.40839,0.460815
-1.44501,0.460815
-1.474,0.463867
-1.50299,0.460815
-1.53809,0.456238
-1.57013,0.460815
-1.60675,0.456238
-1.64185,0.460815
-1.67847,0.45929
-1.71051,0.460815
-1.74866,0.454712
-1.78528,0.460815
-1.81885,0.463867
-1.85394,0.45929
-1.89209,0.460815
-1.92566,0.45929
-1.9577,0.45929
-1.9928,0.462341
-2.02637,0.462341
-2.05841,0.45929
-2.08588,0.45929
-2.12097,0.45929
-2.14844,0.460815
-2.1759,0.460815
-2.2049,0.460815
-2.23694,0.460815
-2.26135,0.462341
-2.28882,0.463867
-2.31934,0.45929
-2.33765,0.465393
-2.36664,0.460815
-2.39258,0.45929
-2.41547,0.465393
-2.44141,0.45929
-2.46277,0.463867
-2.4826,0.460815
-2.50702,0.460815
-2.52228,0.462341
-2.54669,0.45929
-2.56348,0.460815
-2.58331,0.45929
-2.60162,0.45929
-2.61993,0.463867
-2.63824,0.460815
-2.65656,0.462341
-2.67181,0.460815
-2.69012,0.460815
-2.70081,0.463867
-2.71759,0.460815
-2.73132,0.462341
-2.74658,0.462341
-2.76184,0.460815
-2.771,0.462341
-2.7832,0.45929
-2.79541,0.45929
-2.80609,0.45929
-2.81677,0.460815
-2.82745,0.463867
-2.83813,0.460815
-2.84729,0.460815
-2.85492,0.460815
-2.8656,0.460815
-2.87476,0.45929
-2.88086,0.460815
-2.89001,0.460815
-2.89764,0.462341
-2.9068,0.45929
-2.91748,0.462341
-2.92358,0.460815
-2.93427,0.45929
-2.94189,0.45929
-2.9541,0.463867
-2.96326,0.460815
-2.97394,0.462341
-2.98615,0.463867
-2.9953,0.454712
-3.00903,0.462341
-3.02277,0.45929
-3.03345,0.462341
-3.04718,0.462341
-3.06549,0.456238
-3.07922,0.460815
-3.09601,0.460815
-3.11279,0.454712
-3.1311,0.462341
-3.14941,0.462341
-3.16772,0.460815
-3.18756,0.462341
-3.2074,0.45929
-3.22876,0.45929
-3.24707,0.456238
-3.26843,0.456238
-3.29285,0.462341
-3.30963,0.45929
-3.33099,0.45929
-3.3493,0.456238
-3.37067,0.460815
-3.38898,0.45929
-3.39966,0.45929
-3.41187,0.45929
-3.41644,0.456238
-3.41339,0.462341
-3.40424,0.45929
-3.38593,0.460815
-3.3493,0.45929
-3.30048,0.45929
-3.23792,0.45929
-3.15552,0.462341
-3.05634,0.460815
-2.93121,0.460815
-2.79083,0.456238
-2.63367,0.456238
-2.46735,0.463867
-2.29645,0.460815
-2.12555,0.462341
-1.96381,0.456238
-1.79749,0.460815
-1.64795,0.460815
-1.49994,0.460815
-1.36566,0.462341
-1.23901,0.45929
-1.12,0.45929
-1.01318,0.45929
-0.912476,0.456238
-0.823975,0.460815
-0.741577,0.45929
-0.669861,0.45929
-0.605774,0.456238
-0.546265,0.460815
-0.502014,0.460815
-0.460815,0.45929
-0.428772,0.456238
-0.40741,0.45929
-0.387573,0.45929
-0.372314,0.460815
-0.366211,0.462341
-0.367737,0.45929
-0.370789,0.462341
-0.38147,0.456238
-0.393677,0.460815
-0.408936,0.45929
-0.431824,0.462341
-0.454712,0.462341
-0.4776,0.456238
-0.505066,0.456238
-0.534058,0.45929
-0.559998,0.462341
-0.590515,0.460815
-0.619507,0.45929
-0.648499,0.45929
-0.680542,0.45929
-0.709534,0.45929
-0.735474,0.460815
-0.762939,0.462341
-0.791931,0.45929
-0.813293,0.462341
-0.842285,0.45929
-0.866699,0.462341
-0.894165,0.454712
-0.923157,0.463867
-0.950623,0.45929
-0.979614,0.460815
-1.00555,0.460815
-1.03607,0.454712
-1.06812,0.45929
-1.09863,0.45929
-1.12457,0.460815
-1.15204,0.463867
-1.17798,0.45929
-1.20087,0.462341
-1.22223,0.456238
-1.24359,0.45929
-1.26038,0.460815
-1.27869,0.45929
-1.28479,0.454712
-1.29852,0.454712
-1.30768,0.460815
-1.3092,0.460815
-1.31226,0.462341
-1.31073,0.456238
-1.31226,0.456238
-1.30768,0.45929
-1.30463,0.462341
-1.30005,0.456238
-1.29242,0.456238
-1.28479,0.454712
-1.28021,0.456238
-1.26953,0.45929
-1.25885,0.45929
-1.2558,0.456238
-1.24512,0.454712
-1.24207,0.460815
-1.23444,0.45929
-1.22375,0.456238
-1.2207,0.45929
-1.2207,0.454712
-1.21613,0.462341
-1.2146,0.462341
-1.2146,0.45929
-1.2207,0.45929
-1.22375,0.456238
-1.23138,0.462341
-1.24359,0.456238
-1.2558,0.456238
-1.26343,0.45929
-1.28326,0.456238
-1.30005,0.460815
-1.31989,0.45929
-1.34125,0.45929
-1.36414,0.45929
-1.38855,0.45929
-1.41144,0.460815
-1.4389,0.45929
-1.47247,0.460815
-1.49994,0.460815
-1.53046,0.454712
-1.5625,0.460815
-1.59607,0.460815
-1.62811,0.45929
-1.66321,0.456238
-1.69983,0.456238
-1.73187,0.460815
-1.76697,0.460815
-1.80054,0.456238
-1.83716,0.45929
-1.87073,0.460815
-1.90582,0.462341
-1.93787,0.456238
-1.96991,0.456238
-2.00195,0.45929
-2.03094,0.45929
-2.06451,0.462341
-2.09808,0.460815
-2.12555,0.45929
-2.15454,0.460815
-2.18353,0.454712
-2.211,0.462341
-2.23694,0.45929
-2.26288,0.45929
-2.28729,0.460815
-2.31323,0.45929
-2.33459,0.462341
-2.36053,0.460815
-2.38037,0.45929
-2.40173,0.456238
-2.42157,0.456238
-2.44293,0.460815
-2.45819,0.45929
-2.47803,0.45929
-2.49176,0.456238
-2.51007,0.456238
-2.52533,0.460815
-2.53906,0.460815
-2.55127,0.456238
-2.56805,0.456238
-2.58026,0.454712
-2.59552,0.462341
-2.60773,0.45929
-2.62146,0.45929
-2.63214,0.460815
-2.64587,0.456238
-2.65656,0.460815
-2.66418,0.462341
-2.67334,0.456238
-2.68097,0.454712
-2.6947,0.453186
-2.70233,0.460815
-2.70844,0.460815
-2.71454,0.460815
-2.72675,0.456238
-2.73132,0.453186
-2.742,0.462341
-2.74963,0.462341
-2.75726,0.454712
-2.76337,0.45929
-2.771,0.45929
-2.7832,0.462341
-2.78931,0.462341
-2.79541,0.456238
-2.80151,0.453186
-2.8183,0.454712
-2.8244,0.462341
-2.83356,0.456238
-2.84271,0.460815
-2.85339,0.454712
-2.86713,0.454712
-2.87933,0.45929
-2.89307,0.456238
-2.90527,0.45929
-2.91901,0.453186
-2.93579,0.453186
-2.94952,0.460815
-2.96631,0.460815
-2.98462,0.456238
-2.99988,0.454712
-3.01819,0.456238
-3.0365,0.462341
-3.05634,0.462341
-3.07159,0.456238
-3.09296,0.454712
-3.11127,0.45929
-3.1311,0.462341
-3.15094,0.460815
-3.1601,0.454712
-3.17688,0.454712
-3.18909,0.456238
-3.19672,0.462341
-3.20129,0.462341
-3.19824,0.456238
-3.19061,0.456238
-3.17688,0.453186
-3.14331,0.460815
-3.09601,0.45929
-3.03345,0.453186
-2.95715,0.456238
-2.86102,0.454712
-2.74353,0.462341
-2.60468,0.45929
-2.46124,0.45929
-2.30408,0.453186
-2.14691,0.456238
-1.98669,0.463867
-1.83563,0.460815
-1.6861,0.456238
